ALX,ALY,ALZ,ARX,ARY,ARZ,EMG0L,EMG1L,EMG2L,EMG3L,EMG4L,EMG5L,EMG6L,EMG7L,EMG0R,EMG1R,EMG2R,EMG3R,EMG4R,EMG5R,EMG6R,EMG7R,GLX,GLY,GLZ,GRX,GRY,GRZ,ORL,OPL,OYL,ORR,OPR,OYR,LHNX,LHNY,LHNZ,RHNX,RHNY,RHNZ,HX,HY,HZ,LTX,LTY,LTZ,RTX,RTY,RTZ,SpineMidX,SpineMidY,SpineMidZ,SpineBaseX,SpineBaseY,SpineBaseZ,ShoulderLeftX,ShoulderLeftY,ShoulderLeftZ,ShoulderRightX,ShoulderRightY,ShoulderRightZ,ElbowLeftX,ElbowLeftY,ElbowLeftZ,ElbowRightX,ElbowRightY,ElbowRightZ,Myo_Pose_left,Myo_Pose_Right,Kinect_pose_left,Kinect_pose_right
0.9384766,-0.3432617,0.07421875,0.9414063,0.2299805,0.171875,-1,-5,0,-1,0,2,-1,1,0,-4,-2,0,-3,-3,0,6,0.5,0.5,0.5,-0.375,-0.375,-0.375,2.799192,3.067503,7.261114,6.597898,2.951649,9.982452,-0.1239208,-0.4777005,1.357696,0.2907874,-0.4877822,1.338898,0.1144679,0.2760805,1.450646,-0.1529046,-0.4740096,1.335063,0.3247353,-0.5000799,1.340288,0.0953218,-0.1582087,1.455299,0.09225728,-0.4546358,1.437883,-0.06987818,0.02159877,1.437423,0.02353986,-0.443108,1.403915,-0.1154089,-0.2300776,1.440623,0.2978679,-0.2445868,1.430124,NA,NA,NotTracked,NotTracked,
0.9418945,-0.3413086,0.06591797,0.9282227,0.2260742,0.1738281,-2,-5,-2,-3,0,0,-2,-13,-1,-1,-1,-1,2,-2,-2,-4,-3.0625,-3.0625,-3.0625,-1.625,-1.625,-1.625,2.796958,3.067543,7.261672,6.597491,2.952411,9.982028,-0.1238968,-0.4771599,1.358249,0.2914349,-0.4877816,1.339049,0.1143895,0.2761527,1.450571,-0.1597551,-0.455273,1.356115,0.3263278,-0.4986969,1.343033,0.09530985,-0.1581901,1.455232,0.09224328,-0.4546405,1.437845,-0.06991658,0.02161749,1.437418,0.02352602,-0.4431161,1.403885,-0.1154112,-0.2300497,1.440555,0.2978637,-0.2445526,1.430095,NA,NA,NotTracked,NotTracked,
0.9311523,-0.3330078,0.0703125,0.9433594,0.2324219,0.1782227,1,1,1,-1,1,1,3,12,-2,-1,-1,1,1,-2,-3,-4,-0.25,-0.25,-0.25,3.5,3.5,3.5,2.794055,3.068465,7.263741,6.599766,2.952588,9.982807,-0.1243804,-0.4777466,1.358058,0.2914398,-0.4880474,1.339196,0.1143471,0.2762255,1.450443,-0.1509941,-0.4753257,1.33459,0.3261867,-0.4960946,1.341659,0.09523816,-0.1581696,1.455124,0.09220794,-0.4546498,1.437783,-0.06994367,0.02163072,1.437413,0.02347887,-0.4431266,1.403815,-0.1155022,-0.2299027,1.440507,0.2978511,-0.2445906,1.430065,NA,NA,NotTracked,NotTracked,
0.9257813,-0.3525391,0.08984375,0.9633789,0.2421875,0.1572266,-1,-1,1,-1,-1,1,0,2,1,1,0,-1,-2,-2,-5,-5,-3.875,-3.875,-3.875,1.875,1.875,1.875,2.793223,3.070534,7.260531,6.597305,2.953566,9.988651,-0.1252174,-0.4773532,1.358253,0.2913035,-0.488071,1.339139,0.1142785,0.2762021,1.45039,-0.1553835,-0.4790094,1.335821,0.3259872,-0.4987068,1.341621,0.09518838,-0.1582009,1.455081,0.09221231,-0.4547006,1.437736,-0.07005934,0.02148123,1.437312,0.02347909,-0.4432022,1.40375,-0.1156126,-0.2300172,1.440482,0.2978467,-0.2445973,1.430025,NA,NA,NotTracked,NotTracked,
0.9604492,-0.3422852,0.07910156,1.040527,0.2729492,0.07226563,-1,-1,2,-5,-9,-3,2,7,-2,6,-1,19,3,1,-2,-14,-3.9375,-3.9375,-3.9375,28.75,28.75,28.75,2.794045,3.072332,7.254687,6.579414,2.967474,0.03772186,-0.1244044,-0.4768999,1.356122,0.2906629,-0.4854214,1.337162,0.114228,0.2761844,1.450368,-0.1518826,-0.472591,1.334556,0.3267967,-0.4958988,1.343178,0.09517694,-0.1582424,1.454985,0.09219714,-0.454743,1.437624,-0.07011534,0.02146245,1.43731,0.02346229,-0.44326,1.403671,-0.1158058,-0.2300869,1.44038,0.2979392,-0.2446084,1.430056,NA,NA,NotTracked,NotTracked,
1.057617,-0.3144531,-0.00390625,1.129883,0.3227539,0.3032227,-4,-3,-7,12,2,6,1,-1,-1,-6,-13,-15,-32,7,-7,-3,-3.625,-3.625,-3.625,53,53,53,2.853321,3.093071,7.182328,6.356604,3.10086,0.3858197,-0.1184168,-0.4707037,1.34639,0.2855243,-0.4764378,1.326097,0.114136,0.2762342,1.450331,-0.1493765,-0.4697912,1.311882,0.3193609,-0.4926064,1.3262,0.09509631,-0.1581902,1.454876,0.09205764,-0.4546694,1.437457,-0.07021065,0.0215456,1.437343,0.02330264,-0.4431702,1.403546,-0.116268,-0.2292359,1.440643,0.3005979,-0.2430706,1.430673,NA,NA,NotTracked,NotTracked,
1.034668,-0.4140625,0.1308594,0.9526367,0.4941406,0.5078125,-2,-7,-3,7,4,16,3,-4,1,5,-2,0,31,3,2,-2,-19.75,-19.75,-19.75,23.0625,23.0625,23.0625,3.022007,3.188794,6.975461,6.218571,3.317801,0.6169503,-0.1080052,-0.4450775,1.321852,0.2741686,-0.4486509,1.303571,0.1139775,0.2764429,1.450234,-0.1196219,-0.4485211,1.278406,0.3034859,-0.472492,1.298364,0.09475636,-0.157931,1.454459,0.09142198,-0.4542433,1.436882,-0.07025996,0.0217546,1.437388,0.02257047,-0.4427034,1.403111,-0.1186229,-0.2238695,1.443815,0.3104959,-0.2315208,1.433068,NA,NA,NotTracked,NotTracked,
0.9204102,-0.5976563,0.3642578,0.7475586,0.3935547,0.6582031,0,5,27,10,3,16,3,4,1,1,23,51,45,-15,-4,-2,-18.375,-18.375,-18.375,28.5,28.5,28.5,3.190961,3.380307,6.746629,6.095118,3.585769,0.8033874,-0.080065,-0.4058712,1.301283,0.2554543,-0.4107278,1.269835,0.1138693,0.2767086,1.449927,-0.09806652,-0.3784379,1.263531,0.2913018,-0.4060884,1.260564,0.09436885,-0.1573857,1.453589,0.09055311,-0.4532869,1.435247,-0.07032407,0.02229414,1.437517,0.02150679,-0.4418277,1.401582,-0.1220296,-0.2158691,1.449195,0.3255016,-0.2052689,1.436387,NA,NA,Unknown,Unknown,
0.7802734,-0.7329102,0.4335938,0.53125,0.5336914,0.6831055,-14,-8,-19,-7,-6,-13,3,-4,-3,-4,-6,-12,-3,-3,3,8,-3.375,-3.375,-3.375,34.75,34.75,34.75,3.318951,3.655387,6.564345,6.089283,3.991325,0.9601302,-0.05257807,-0.3573526,1.255025,0.2265908,-0.3565818,1.247953,0.1137752,0.2767475,1.449882,-0.0708419,-0.3295711,1.217646,0.2542327,-0.3722375,1.212938,0.09386738,-0.15705,1.452926,0.08956136,-0.4524543,1.433379,-0.07037915,0.02308593,1.438113,0.02060551,-0.4412205,1.399912,-0.1274007,-0.1942099,1.454125,0.3354299,-0.1885994,1.432837,NA,NA,Unknown,Unknown,
0.409668,-0.7661133,0.5029297,0.2954102,0.5253906,0.7324219,1,2,2,0,4,-11,3,1,8,2,-1,6,-11,-7,5,0,-14.5625,-14.5625,-14.5625,58.5625,58.5625,58.5625,3.440098,4.207499,6.346376,6.109842,4.298063,1.067367,-0.02714579,-0.2788322,1.223568,0.2076983,-0.2847915,1.22835,0.1136487,0.2766096,1.449986,-0.05434097,-0.2656821,1.192586,0.2031849,-0.2463101,1.204697,0.0934339,-0.1567284,1.452822,0.0883574,-0.4512307,1.432674,-0.07042075,0.02417751,1.439009,0.01952533,-0.439874,1.398887,-0.1358283,-0.177355,1.448959,0.3497035,-0.1818109,1.423096,NA,NA,Closed,Unknown,
0.2709961,-0.7490234,0.5708008,0.1518555,0.6557617,0.6801758,0,-3,-8,8,-4,2,-1,-4,-1,-4,10,13,61,-1,-1,-2,1.6875,1.6875,1.6875,59.25,59.25,59.25,3.474711,4.554671,6.24184,6.184511,4.585704,1.156652,-0.01121624,-0.2008332,1.216953,0.2059025,-0.2076235,1.222599,0.1132714,0.2765245,1.450424,-0.03369936,-0.1791001,1.178644,0.1862542,-0.1769049,1.197071,0.09312988,-0.1561324,1.453049,0.08777034,-0.449383,1.432915,-0.0698377,0.02513905,1.439331,0.01916249,-0.4378366,1.399051,-0.1605179,-0.1682955,1.42321,0.3614074,-0.1704581,1.395728,NA,NA,Closed,Unknown,
0.07128906,-0.7236328,0.5454102,0.001953125,0.6816406,0.659668,-2,-5,-4,-5,-16,2,17,-2,-4,-6,-16,-18,15,-15,4,-5,-19.1875,-19.1875,-19.1875,77.25,77.25,77.25,3.476985,4.874563,6.145589,6.320689,4.934486,1.261852,0.0009141479,-0.1368585,1.208031,0.1937309,-0.1479064,1.218996,0.1127569,0.2761177,1.451215,-0.01765526,-0.1118633,1.172411,0.1837684,-0.1177965,1.195045,0.09296915,-0.1556286,1.453741,0.0875339,-0.4484403,1.433393,-0.07194058,0.02607444,1.440656,0.01906919,-0.4367904,1.39964,-0.1659408,-0.167212,1.416796,0.3600242,-0.1631964,1.358872,NA,NA,NotTracked,Open,
-0.008789063,-0.7587891,0.5717773,-0.07617188,0.6850586,0.6679688,1,-1,-6,-4,-12,-33,6,22,-4,2,-16,-2,14,5,-4,-5,-29.25,-29.25,-29.25,72.875,72.875,72.875,3.431878,5.13431,6.05139,6.444291,5.146405,1.332548,0.008098856,-0.08607738,1.206978,0.1411405,-0.09967344,1.218626,0.1121565,0.2756999,1.4527,0.0468338,-0.1202807,1.259833,0.1521115,-0.1222532,1.176357,0.09256589,-0.1552988,1.454626,0.0873258,-0.4479118,1.433841,-0.07348724,0.02637273,1.441162,0.01895901,-0.4364084,1.400266,-0.1642084,-0.1650948,1.396824,0.364016,-0.151539,1.340301,NA,NA,NotTracked,NotTracked,
-0.09619141,-0.8085938,0.5639648,-0.1982422,0.7626953,0.5488281,-2,-3,-1,0,0,13,1,-8,2,0,-1,1,0,36,-12,7,-23.5,-23.5,-23.5,64.5625,64.5625,64.5625,3.415949,5.210133,6.021756,6.568881,5.324821,1.405949,0.002656462,-0.05366858,1.210439,0.02678085,-0.05551302,1.208114,0.111534,0.2751569,1.454448,0.04214017,-0.07451351,1.200917,-0.01319381,-0.08165342,1.204818,0.09199549,-0.1550115,1.45567,0.08705501,-0.4472373,1.434459,-0.07623991,0.02759693,1.442181,0.01880024,-0.4361296,1.400727,-0.15939,-0.1664685,1.392522,0.3381537,-0.1087592,1.279818,NA,NA,NotTracked,NotTracked,
-0.2099609,-0.7353516,0.5039063,-0.2397461,0.7202148,0.4604492,-8,-3,-19,-5,-7,-3,-8,-9,-2,2,4,-1,17,16,10,-15,-20.1875,-20.1875,-20.1875,41.75,41.75,41.75,3.329252,5.487288,5.886472,6.695762,5.473684,1.485263,0.006877358,-0.03467577,1.21236,0.1443447,-0.03268708,1.210601,0.1108943,0.2740042,1.456456,0.03889929,-0.0582126,1.207734,0.1373696,-0.06960502,1.202409,0.09033698,-0.1548751,1.456775,0.08690944,-0.4468607,1.434804,-0.07815117,0.0293725,1.443061,0.01864976,-0.4360142,1.400818,-0.1563742,-0.1647443,1.383291,0.3663456,-0.1111472,1.314206,NA,NA,NotTracked,NotTracked,
-0.3154297,-0.7392578,0.4067383,-0.2851563,0.7294922,0.4208984,0,2,11,0,3,-15,-11,14,-7,-8,-6,-9,7,11,-16,4,-6.875,-6.875,-6.875,30.6875,30.6875,30.6875,3.302845,5.529369,5.846899,6.781861,5.514155,1.544479,0.01037279,-0.03007929,1.212188,0.08523835,-0.02120285,1.21449,0.1103912,0.2735264,1.457834,0.05333433,-0.05173169,1.203727,0.07617251,-0.03771608,1.223445,0.08869202,-0.154912,1.457523,0.08679692,-0.4468488,1.434954,-0.07913973,0.03042105,1.443459,0.01845346,-0.4360691,1.4009,-0.1561788,-0.1637621,1.381895,0.3679651,-0.1053067,1.308507,NA,NA,NotTracked,NotTracked,
-0.3564453,-0.7680664,0.4482422,-0.3081055,0.7861328,0.4277344,1,0,4,0,-6,-7,7,-15,-4,9,6,-6,-32,-11,-1,10,9,9,9,10.4375,10.4375,10.4375,3.29498,5.514567,5.832341,6.805695,5.49305,1.564187,0.01437521,-0.03252268,1.210264,0.08572736,-0.0233211,1.214717,0.110219,0.2734231,1.45896,0.05748965,-0.05381177,1.201108,0.06810012,-0.01992599,1.1792,0.08763293,-0.1549487,1.45798,0.086707,-0.4468626,1.435024,-0.07982333,0.03127008,1.443949,0.01824715,-0.4361522,1.400983,-0.1556889,-0.1627109,1.379636,0.3694848,-0.0998272,1.303329,NA,NA,NotTracked,NotTracked,
-0.315918,-0.8496094,0.4990234,-0.3154297,0.8759766,0.3769531,-5,4,21,-2,-2,1,-45,-16,1,7,4,-1,-6,3,-3,5,6.75,6.75,6.75,2.4375,2.4375,2.4375,3.309078,5.485151,5.844724,6.818189,5.473676,1.574899,0.08222801,-0.03035776,1.215127,0.08130153,-0.02830246,1.214129,0.1102788,0.2735417,1.460012,0.1327381,-0.05689225,1.182,0.0310055,-0.007911146,1.1792,0.08705726,-0.154944,1.458144,0.08662613,-0.4468331,1.435029,-0.08009792,0.03160806,1.444184,0.0181004,-0.4361647,1.400975,-0.1489039,-0.1618013,1.368466,0.3703712,-0.09689734,1.300801,NA,NA,NotTracked,NotTracked,
-0.3359375,-0.8789063,0.4477539,-0.3046875,0.859375,0.4082031,3,2,12,2,-2,-14,15,-3,8,-4,-5,4,31,-5,8,-2,13,13,13,-0.9375,-0.9375,-0.9375,3.321368,5.473622,5.851041,6.805315,5.457229,1.568123,0.01800166,-0.04061103,1.210805,0.07743247,-0.0317051,1.21585,0.1103959,0.2733347,1.461068,0.05898494,-0.06070649,1.202,0.03416687,-0.01073476,1.181102,0.08716597,-0.1550251,1.458787,0.08648822,-0.4468553,1.435182,-0.08034035,0.03173996,1.44443,0.01786425,-0.4362474,1.401234,-0.1498365,-0.1622526,1.371417,0.3710748,-0.09516931,1.299638,NA,NA,NotTracked,NotTracked,
-0.3417969,-0.8813477,0.4643555,-0.3544922,0.8730469,0.4228516,-3,-11,-37,8,3,-5,92,10,12,-5,-3,-8,-25,-40,-8,-1,-2.5625,-2.5625,-2.5625,-3.1875,-3.1875,-3.1875,3.324775,5.475351,5.855145,6.7988,5.454268,1.559858,0.01980401,-0.04135927,1.21044,0.07654338,-0.03397138,1.21546,0.1105391,0.2732738,1.461502,0.06282385,-0.06193832,1.201588,0.05567644,-0.01269911,1.186692,0.08768733,-0.1550003,1.459291,0.08645862,-0.4468425,1.435221,-0.08043656,0.03179584,1.444511,0.01780845,-0.4362504,1.401291,-0.1508688,-0.1626789,1.374317,0.3717341,-0.09416004,1.299187,NA,NA,NotTracked,NotTracked,
-0.2963867,-0.8208008,0.4887695,-0.3378906,0.8740234,0.4047852,5,-1,15,11,11,0,12,29,3,0,-4,2,-21,35,2,1,-2.4375,-2.4375,-2.4375,-3.375,-3.375,-3.375,3.326157,5.473553,5.856316,6.790568,5.455647,1.54846,0.01940253,-0.04268275,1.210635,0.07112403,-0.03626162,1.214591,0.1105488,0.273201,1.461977,0.06167291,-0.06262697,1.201919,0.1124795,-0.01124447,1.19805,0.08765975,-0.1550063,1.459522,0.08644918,-0.4468157,1.43526,-0.08052689,0.03184197,1.444606,0.01779342,-0.4362476,1.401323,-0.1512868,-0.1629529,1.375988,0.3719242,-0.0932796,1.298392,NA,NA,NotTracked,NotTracked,
-0.2636719,-0.8608398,0.5151367,-0.3374023,0.8681641,0.4155273,-4,2,4,-4,-6,22,-56,10,-7,-30,-11,-4,-15,22,3,-18,-3.625,-3.625,-3.625,-0.5,-0.5,-0.5,3.321685,5.474766,5.863703,6.791644,5.456913,1.546793,0.0223486,-0.04354296,1.212259,0.1464769,-0.03592163,1.211902,0.1106692,0.2731077,1.462288,0.06671077,-0.06432611,1.207249,0.06794556,-0.03204379,1.1916,0.08800601,-0.1549773,1.459816,0.08642747,-0.4467376,1.435335,-0.07931356,0.03291644,1.444736,0.0177692,-0.4362184,1.401349,-0.150902,-0.1617163,1.37659,0.3725513,-0.09269271,1.298358,NA,NA,NotTracked,NotTracked,
-0.3139648,-0.8237305,0.4584961,-0.3554688,0.8808594,0.4072266,-3,0,7,-3,-8,-11,65,6,-1,5,-6,-8,-12,-21,-13,-2,-4.8125,-4.8125,-4.8125,6.3125,6.3125,6.3125,3.318147,5.473724,5.861397,6.801288,5.467435,1.551923,0.02738816,-0.04418188,1.213639,0.1496511,-0.03247074,1.21611,0.1107989,0.2731377,1.462619,0.08374871,-0.05792292,1.232429,0.1561871,-0.01160706,1.190692,0.08834542,-0.1549618,1.460209,0.08639836,-0.4466951,1.435532,-0.0795676,0.03284471,1.444872,0.0177102,-0.436225,1.401557,-0.1506783,-0.162043,1.37702,0.3729782,-0.09226677,1.298284,NA,NA,NotTracked,NotTracked,
-0.3110352,-0.8579102,0.4838867,-0.394043,0.9072266,0.3950195,4,1,-9,-5,-1,30,-9,-10,-20,7,2,5,3,2,-2,10,1.4375,1.4375,1.4375,15.375,15.375,15.375,3.313492,5.471084,5.863411,6.825826,5.491782,1.565825,0.02139567,-0.04546025,1.212662,0.1008404,-0.04455767,1.218616,0.1108115,0.2731135,1.463074,0.06114101,-0.06693543,1.207462,0.03680506,-0.03545633,1.177775,0.08772278,-0.154988,1.460334,0.08636063,-0.446678,1.435727,-0.07977133,0.03277496,1.44501,0.01765565,-0.4362468,1.401751,-0.1509579,-0.1622083,1.377624,0.3729953,-0.09194913,1.297952,NA,NA,NotTracked,NotTracked,
-0.3134766,-0.8510742,0.4848633,-0.4248047,0.8745117,0.3461914,-15,-7,-35,-8,3,-7,-28,6,-19,12,-3,-5,-5,-2,0,0,-2.375,-2.375,-2.375,13.9375,13.9375,13.9375,3.315212,5.472596,5.863539,6.871995,5.560192,1.589169,0.05077481,-0.03378637,1.211544,0.07554159,-0.03481604,1.217543,0.1111312,0.2733097,1.463707,0.06571273,-0.05827001,1.199308,0.02272365,-0.01229319,1.185607,0.08760705,-0.1550092,1.460556,0.08634526,-0.446711,1.435889,-0.07989467,0.03272923,1.445111,0.0176199,-0.4363102,1.401951,-0.1490794,-0.1623525,1.375429,0.3730759,-0.09092509,1.296755,NA,NA,NotTracked,NotTracked,
-0.347168,-0.8623047,0.4794922,-0.4423828,0.8779297,0.3041992,-2,-2,6,10,12,8,4,11,-4,-15,-6,-2,-2,-14,-2,10,0.8125,0.8125,0.8125,14.5,14.5,14.5,3.31441,5.48563,5.853889,6.904639,5.63003,1.589935,0.07078779,-0.0322048,1.214469,0.0749429,-0.0289369,1.214502,0.1112866,0.2734771,1.464141,0.1355675,-0.02170501,1.174,0.1353711,0.002908631,1.186539,0.08800232,-0.1550149,1.460946,0.08628792,-0.4467516,1.435994,-0.07829847,0.03402126,1.445388,0.01746783,-0.4363743,1.402331,-0.1488008,-0.1608102,1.376457,0.3728526,-0.08803342,1.292877,NA,NA,NotTracked,NotTracked,
-0.3139648,-0.8427734,0.4951172,-0.5024414,0.8227539,0.2783203,-3,3,-3,6,-3,-7,5,-7,17,-1,-4,0,-4,-22,3,-6,-0.9375,-0.9375,-0.9375,5.375,5.375,5.375,3.313702,5.495619,5.849002,6.908008,5.700471,1.55744,0.1047997,-0.01306279,1.206002,0.1584304,0.02287581,1.197564,0.1112656,0.2737075,1.464794,0.1482967,-0.01512378,1.156934,0.1485668,0.04657709,1.212875,0.08850189,-0.1553454,1.461279,0.08605995,-0.4474558,1.436136,-0.07859175,0.0339651,1.445544,0.01700979,-0.4372659,1.403254,-0.145556,-0.1608801,1.372288,0.3734306,-0.08403226,1.285561,NA,NA,NotTracked,NotTracked,
-0.3056641,-0.8417969,0.4887695,-0.5336914,0.8574219,0.2919922,-5,3,8,1,1,-10,-11,-6,18,1,2,1,-2,9,9,11,-3.625,-3.625,-3.625,-8.4375,-8.4375,-8.4375,3.30968,5.512012,5.845206,6.865997,5.759671,1.454899,0.1475061,0.03005324,1.174501,0.1629405,0.04343402,1.177159,0.1112057,0.2739619,1.465247,0.1502832,-0.001559429,1.15025,0.1447381,0.06573419,1.190072,0.08851773,-0.1558761,1.461386,0.08518473,-0.4500663,1.435877,-0.07882325,0.03384913,1.445596,0.01581698,-0.4398502,1.404534,-0.1453945,-0.1609279,1.371671,0.3740122,-0.08032575,1.27571,NA,NA,NotTracked,NotTracked,
-0.3339844,-0.8442383,0.4667969,-0.4536133,0.7182617,0.3598633,-5,4,8,-4,-4,-13,-34,0,-3,3,3,2,-1,-7,0,4,-1.125,-1.125,-1.125,-6.6875,-6.6875,-6.6875,3.30789,5.525373,5.840447,6.797262,5.773511,1.321625,0.1025587,0.006841863,1.18315,0.174178,0.05345469,1.149958,0.1113776,0.2749774,1.466532,0.1519505,0.01128174,1.141714,0.1341354,0.08054072,1.166333,0.08834581,-0.156286,1.461601,0.08445722,-0.452556,1.435943,-0.07903469,0.03373784,1.445775,0.01492132,-0.4420594,1.405693,-0.1466605,-0.1614631,1.374528,0.3730725,-0.07686641,1.266486,NA,NA,NotTracked,NotTracked,
-0.3632813,-0.8330078,0.4389648,-0.3007813,0.7475586,0.3696289,-7,-19,-12,-8,-10,-43,28,20,12,9,8,2,7,-32,15,-18,0.5625,0.5625,0.5625,-5.4375,-5.4375,-5.4375,3.306211,5.547883,5.839321,6.72744,5.684698,1.169434,0.02687173,-0.02833327,1.221036,0.1763559,0.03959165,1.111014,0.1115369,0.275396,1.466913,0.07169876,-0.05204174,1.236625,0.1523699,0.006513325,1.082264,0.08789377,-0.1569138,1.461609,0.08348428,-0.4548086,1.435559,-0.07915633,0.0336918,1.44583,0.01399116,-0.4437148,1.406012,-0.1470711,-0.1615119,1.374949,0.3718508,-0.07111307,1.244987,NA,NA,NotTracked,NotTracked,
-0.3618164,-0.8125,0.4370117,-0.09423828,0.6533203,0.4262695,-20,-12,-28,-9,-12,-40,-38,5,-30,-8,-3,-21,2,43,-3,-15,3,3,3,8.625,8.625,8.625,3.307665,5.557251,5.844127,6.68516,5.537295,1.04554,0.02692707,-0.02641566,1.222187,0.2002494,0.01669362,1.084641,0.1118167,0.2753579,1.46764,0.06904023,-0.0509762,1.242455,0.1693735,-0.0239482,1.08137,0.08804265,-0.1572984,1.461889,0.08329043,-0.4552147,1.43552,-0.07715853,0.03438163,1.446068,0.01381254,-0.443979,1.405897,-0.1473081,-0.1604182,1.37654,0.3624011,-0.06949551,1.24203,NA,NA,Closed,Unknown,
-0.3432617,-0.8442383,0.4873047,-0.03027344,0.753418,0.5107422,-11,-7,-12,-6,-9,-37,9,-1,6,0,2,2,5,81,25,20,-4.25,-4.25,-4.25,13.625,13.625,13.625,3.306812,5.559311,5.858093,6.697715,5.294991,0.9589132,0.02656706,-0.02619436,1.219897,0.2144079,-0.02483729,1.069324,0.1120808,0.2752462,1.468148,0.07901732,-0.04721791,1.24221,0.2111065,-0.06718901,1.02975,0.08838651,-0.1571222,1.462327,0.0838794,-0.4539502,1.435836,-0.07745167,0.03393535,1.445997,0.0144828,-0.4429765,1.405338,-0.1496709,-0.1603965,1.377565,0.3485963,-0.06846195,1.240951,NA,NA,Closed,Unknown,
-0.3325195,-0.862793,0.4589844,0.03710938,0.8925781,0.6020508,-24,-7,-6,0,0,4,1,4,9,14,9,18,-29,1,7,17,-2.6875,-2.6875,-2.6875,13.6875,13.6875,13.6875,3.312697,5.552579,5.880264,6.733337,5.078683,0.980615,0.02508699,-0.0276788,1.218764,0.2203946,-0.07008943,1.073822,0.1121046,0.2750025,1.468521,0.06603819,-0.0499075,1.224286,0.2237031,-0.1110394,1.033031,0.08871312,-0.1568814,1.462636,0.08426201,-0.4524325,1.436005,-0.07673778,0.03390605,1.446245,0.01497501,-0.4417478,1.405048,-0.1519246,-0.1589412,1.376589,0.3495656,-0.0771815,1.224806,NA,NA,Closed,Unknown,
-0.3486328,-0.8056641,0.4628906,0.1137695,0.9931641,0.5810547,15,7,25,16,12,44,39,35,-8,-48,-3,10,31,23,-9,-8,3.75,3.75,3.75,-4.1875,-4.1875,-4.1875,3.320373,5.546206,5.889213,6.725449,4.989981,1.061852,0.02360361,-0.0291264,1.215838,0.2203141,-0.0998206,1.097085,0.1119444,0.2748159,1.468526,0.07016646,-0.05089334,1.233199,0.2283377,-0.1393259,1.065102,0.08887041,-0.1568018,1.462659,0.08436927,-0.4516548,1.435885,-0.07753758,0.03350085,1.446209,0.01519976,-0.4409509,1.404467,-0.1525628,-0.1595474,1.377066,0.3504864,-0.08672081,1.224743,NA,NA,Closed,Unknown,
-0.3212891,-0.8242188,0.4912109,-0.137207,1.062988,0.5522461,-5,11,17,9,6,7,25,1,-11,-29,2,-3,4,72,19,1,-0.25,-0.25,-0.25,-36,-36,-36,3.317823,5.530452,5.905926,6.692707,4.977439,1.194576,0.0222341,-0.03134151,1.212535,0.2121894,-0.1159707,1.133959,0.111857,0.2747135,1.468362,0.07272031,-0.05038552,1.218833,0.1853881,-0.1738679,1.143625,0.08899346,-0.1566876,1.462562,0.08434305,-0.4507692,1.435768,-0.0780104,0.03342665,1.446249,0.01531324,-0.4400197,1.404038,-0.1524446,-0.1601265,1.378103,0.3567796,-0.1002769,1.254466,NA,NA,Closed,Unknown,
-0.3164063,-0.8569336,0.4692383,-0.2333984,1.055176,0.496582,4,-6,-10,16,-1,-26,0,-18,-24,19,-8,-8,-13,-102,-28,-6,-2.625,-2.625,-2.625,-25.0625,-25.0625,-25.0625,3.309179,5.517401,5.92031,6.6546,5.051964,1.324338,0.02165283,-0.03323686,1.210872,0.2005198,-0.1131706,1.172036,0.1117846,0.2743988,1.467902,0.06914255,-0.0557281,1.235572,0.1881957,-0.1725502,1.188,0.08909577,-0.1565724,1.462428,0.08436706,-0.4499496,1.435626,-0.07835416,0.03321125,1.446101,0.01553841,-0.4391495,1.403534,-0.1834381,-0.1730778,1.402159,0.363292,-0.09990101,1.285361,NA,NA,NotTracked,Open,
-0.3422852,-0.8535156,0.4560547,-0.3291016,0.9331055,0.3950195,1,4,-15,-15,-13,8,-54,-12,19,23,27,5,2,-17,7,3,-7.3125,-7.3125,-7.3125,-15.1875,-15.1875,-15.1875,3.304696,5.511302,5.923012,6.637126,5.257865,1.432019,0.02019212,-0.03404301,1.207856,0.1928568,-0.08745489,1.200533,0.1119106,0.2738929,1.466826,0.06236247,-0.05728601,1.223667,0.1570318,-0.1434523,1.231,0.08920816,-0.1564453,1.462164,0.08437884,-0.4493275,1.435436,-0.07865665,0.03318237,1.445959,0.01572587,-0.4385434,1.403012,-0.1838,-0.173061,1.403528,0.3658336,-0.1041115,1.289594,NA,NA,NotTracked,NotTracked,
-0.3500977,-0.8173828,0.4545898,-0.3203125,0.8530273,0.4165039,-4,-3,7,-1,-3,-5,-1,44,16,-5,1,3,-29,-27,-18,-26,2.6875,2.6875,2.6875,8.0625,8.0625,8.0625,3.305815,5.513152,5.922227,6.657854,5.414605,1.445037,0.01195104,-0.03320244,1.204778,0.09499505,-0.05407052,1.219068,0.1123026,0.2733921,1.465782,0.04992963,-0.05541628,1.1974,0.08683386,-0.05205469,1.223105,0.08935204,-0.1562894,1.461808,0.08446723,-0.4486131,1.435182,-0.0788928,0.03307544,1.445766,0.01595757,-0.4377804,1.401921,-0.1838477,-0.1730113,1.403666,0.3645672,-0.1036187,1.292876,NA,NA,NotTracked,NotTracked,
-0.3032227,-0.8549805,0.4873047,-0.3364258,0.8051758,0.4023438,19,-4,-15,4,-6,-25,15,2,0,9,-12,-7,6,-8,18,7,-1.375,-1.375,-1.375,12,12,12,3.301753,5.522204,5.927539,6.673914,5.521189,1.432705,0.01259354,-0.03178982,1.204533,0.07407711,-0.03498515,1.214439,0.1126476,0.2730495,1.465171,0.05204173,-0.05506898,1.201973,0.05657827,-0.05098455,1.206357,0.08946386,-0.1562469,1.461677,0.08454855,-0.4483365,1.435051,-0.0790868,0.03302702,1.445594,0.01602086,-0.4375156,1.401331,-0.1850754,-0.1757808,1.396358,0.3625406,-0.1018074,1.292965,NA,NA,NotTracked,NotTracked,
-0.3349609,-0.8344727,0.480957,-0.3173828,0.7392578,0.4633789,-3,-9,-10,-6,-5,-17,24,-5,-1,1,-3,-3,-9,13,3,3,-0.5625,-0.5625,-0.5625,10.625,10.625,10.625,3.303101,5.529681,5.922137,6.678015,5.55932,1.415595,0.01345197,-0.03090607,1.204368,0.04961858,-0.02376153,1.208053,0.1129668,0.2727174,1.464502,0.05296145,-0.05331035,1.198795,0.0492229,-0.05355855,1.206054,0.0895081,-0.1562235,1.461476,0.08461457,-0.4482223,1.434713,-0.07929546,0.03312139,1.445442,0.01601575,-0.4374333,1.400666,-0.1841944,-0.1724342,1.400694,0.3614316,-0.0983148,1.290011,NA,NA,NotTracked,NotTracked,
-0.2666016,-0.8442383,0.4658203,-0.2836914,0.7246094,0.4931641,2,-2,9,0,4,-9,-12,3,-17,11,-3,-9,-43,-73,-56,1,-7.5,-7.5,-7.5,-4,-4,-4,3.29677,5.532647,5.925234,6.680126,5.544843,1.407219,0.01478223,-0.03192882,1.203477,0.06489447,-0.0228003,1.210931,0.1131201,0.2725766,1.464438,0.05398146,-0.05320179,1.19692,0.0561322,-0.05267602,1.194909,0.08959717,-0.1562163,1.461415,0.08466791,-0.4481156,1.434544,-0.07947822,0.03318009,1.44541,0.01604394,-0.4373351,1.400347,-0.1839729,-0.1716713,1.401408,0.3598064,-0.09617168,1.287821,NA,NA,NotTracked,NotTracked,
-0.3217773,-0.8144531,0.4633789,-0.3466797,0.8457031,0.4711914,-2,0,8,4,-3,-5,90,16,-3,-4,24,0,19,10,28,4,-1.8125,-1.8125,-1.8125,-6.5625,-6.5625,-6.5625,3.300036,5.524916,5.932699,6.671862,5.535482,1.405512,0.02206866,-0.03319041,1.20516,0.128582,-0.01318265,1.219338,0.1133369,0.2723941,1.464303,0.07127383,-0.0538745,1.209889,0.06361686,-0.02068346,1.1835,0.0896812,-0.1562186,1.461314,0.08479729,-0.4479998,1.434306,-0.07959048,0.03321166,1.445352,0.01614168,-0.437274,1.400041,-0.1833836,-0.1713955,1.400103,0.3592691,-0.09506565,1.286883,NA,NA,NotTracked,NotTracked,
-0.3310547,-0.8222656,0.4624023,-0.3554688,0.8144531,0.4785156,3,8,6,-6,-3,23,8,-22,20,-2,-5,-6,-7,-18,1,14,-1.1875,-1.1875,-1.1875,-2.5,-2.5,-2.5,3.30261,5.514487,5.940713,6.660386,5.530361,1.400166,0.02188364,-0.03482151,1.205345,0.1316844,-0.01498323,1.218944,0.113435,0.2723212,1.464239,0.07179218,-0.05280536,1.217,0.0636934,-0.01667998,1.185,0.08980177,-0.1561995,1.461067,0.08492462,-0.4478489,1.433999,-0.07967429,0.03322656,1.445349,0.01624029,-0.4371957,1.399681,-0.1833026,-0.1716446,1.40209,0.3598489,-0.09513561,1.287935,NA,NA,NotTracked,NotTracked,
-0.3574219,-0.8447266,0.4521484,-0.3657227,0.8647461,0.4594727,-9,-6,-20,-5,1,-13,-25,-17,22,7,8,7,47,24,3,10,2.0625,2.0625,2.0625,0.4375,0.4375,0.4375,3.30266,5.513718,5.942131,6.664612,5.528428,1.399724,0.02227751,-0.0351957,1.20388,0.1263176,-0.02252501,1.216226,0.1135862,0.2722288,1.464148,0.06871729,-0.05524148,1.20956,0.1244634,-0.04524885,1.177,0.08987077,-0.1561901,1.460958,0.08498887,-0.4477617,1.433867,-0.0797471,0.03324356,1.445333,0.01629463,-0.4371511,1.399499,-0.1548143,-0.1553781,1.362514,0.3598983,-0.09505354,1.288211,NA,NA,NotTracked,NotTracked,
-0.3222656,-0.8481445,0.4873047,-0.3149414,0.8164063,0.4824219,5,3,-15,2,-8,-23,-61,-57,-21,-9,-2,0,-5,-7,-1,3,2.75,2.75,2.75,3.25,3.25,3.25,3.302862,5.50803,5.945763,6.663459,5.52545,1.392648,0.02285664,-0.03577046,1.204005,0.1243911,-0.02448467,1.216164,0.1135836,0.2723082,1.464036,0.07871398,-0.05043588,1.217111,0.1341274,-0.04456763,1.176572,0.08929715,-0.1561018,1.460546,0.08508521,-0.4476883,1.433751,-0.07978654,0.03324938,1.445292,0.01636504,-0.4371082,1.399398,-0.1506685,-0.1581207,1.365653,0.3592647,-0.09464753,1.287533,NA,NA,NotTracked,NotTracked,
