ALX,ALY,ALZ,ARX,ARY,ARZ,EMG0L,EMG1L,EMG2L,EMG3L,EMG4L,EMG5L,EMG6L,EMG7L,EMG0R,EMG1R,EMG2R,EMG3R,EMG4R,EMG5R,EMG6R,EMG7R,GLX,GLY,GLZ,GRX,GRY,GRZ,ORL,OPL,OYL,ORR,OPR,OYR,LHNX,LHNY,LHNZ,RHNX,RHNY,RHNZ,HX,HY,HZ,LTX,LTY,LTZ,RTX,RTY,RTZ,SpineMidX,SpineMidY,SpineMidZ,SpineBaseX,SpineBaseY,SpineBaseZ,ShoulderLeftX,ShoulderLeftY,ShoulderLeftZ,ShoulderRightX,ShoulderRightY,ShoulderRightZ,ElbowLeftX,ElbowLeftY,ElbowLeftZ,ElbowRightX,ElbowRightY,ElbowRightZ,Myo_Pose_left,Myo_Pose_Right,Kinect_pose_left,Kinect_pose_right
0.9160156,-0.394043,0.08447266,0.9243164,0.2924805,0.2646484,-2,-1,-2,0,0,-2,-4,-5,0,1,0,1,-1,0,-2,-3,-2.0625,-2.0625,-2.0625,6.6875,6.6875,6.6875,2.858628,3.151811,6.283091,6.43162,3.107632,3.440325,-0.1150779,-0.4682574,1.281206,0.2319738,-0.4886256,1.246426,0.100086,0.2739825,1.427936,-0.07410944,-0.4584092,1.270366,0.194784,-0.4789097,1.249118,0.07847446,-0.163865,1.422346,0.07405987,-0.4649926,1.393814,-0.08677225,0.01608247,1.396457,0.003390761,-0.4526902,1.358289,-0.1243081,-0.2285052,1.37698,0.2600086,-0.2366285,1.360063,NA,NA,NotTracked,Unknown,
0.9204102,-0.4145508,0.1020508,0.9199219,0.3417969,0.2749023,-1,-2,-1,2,-1,3,-12,0,2,-1,-4,-2,-2,27,11,3,-12.875,-12.875,-12.875,-2.375,-2.375,-2.375,2.861928,3.164295,6.260982,6.401885,3.144392,3.476207,-0.1141269,-0.4674654,1.277613,0.2293931,-0.4886764,1.241112,0.1000585,0.273988,1.427981,-0.07832056,-0.4582661,1.258494,0.1925809,-0.4763048,1.245429,0.07844198,-0.1638549,1.422344,0.07404731,-0.4649865,1.393734,-0.08677746,0.01602409,1.396434,0.003378244,-0.452698,1.358223,-0.1244278,-0.2283518,1.376706,0.2600479,-0.2361228,1.360039,NA,NA,NotTracked,Unknown,
0.9262695,-0.4697266,0.09960938,0.9233398,0.3618164,0.3188477,-2,-1,1,3,4,0,0,-1,5,-1,2,-1,0,-7,-3,0,-4,-4,-4,8.1875,8.1875,8.1875,2.879115,3.198507,6.226315,6.367414,3.202109,3.51993,-0.1121822,-0.464616,1.268126,0.2259468,-0.4790171,1.23424,0.09996931,0.2742032,1.428159,-0.07531165,-0.4564818,1.250914,0.187274,-0.4665662,1.238057,0.07840286,-0.1637065,1.422364,0.07397196,-0.4648204,1.39367,-0.08699797,0.01614543,1.396683,0.003293788,-0.4524973,1.358148,-0.1244888,-0.2277635,1.376382,0.2607815,-0.2323,1.361097,NA,NA,Unknown,Unknown,
0.8964844,-0.5234375,0.1386719,0.9145508,0.3950195,0.3657227,-2,-1,-6,-2,2,-1,3,-8,-2,-4,-3,-2,-3,-8,-2,-2,-14.0625,-14.0625,-14.0625,13.5625,13.5625,13.5625,2.917266,3.282016,6.149507,6.326518,3.31748,3.588956,-0.1083817,-0.4591001,1.251492,0.2213506,-0.4687508,1.221818,0.0997026,0.2744498,1.428748,-0.07052599,-0.4506275,1.235754,0.1834513,-0.4526478,1.231149,0.07831769,-0.1636059,1.422442,0.07384894,-0.4646964,1.393564,-0.08714048,0.01626195,1.396873,0.003138294,-0.4523665,1.358066,-0.1257016,-0.2249852,1.375166,0.2619736,-0.2277368,1.361432,NA,NA,Unknown,Unknown,
0.8823242,-0.5571289,0.1694336,0.8461914,0.4614258,0.4282227,0,-1,1,3,1,0,4,-8,0,0,-1,-1,1,-4,-2,0,-30.6875,-30.6875,-30.6875,9.0625,9.0625,9.0625,2.954462,3.385501,6.075776,6.316918,3.441592,3.629511,-0.1021358,-0.4482849,1.225538,0.2156086,-0.4540585,1.20395,0.09926363,0.2746798,1.429666,-0.0650695,-0.4368684,1.209036,0.1781566,-0.4442602,1.197195,0.0782344,-0.1635428,1.42254,0.07372677,-0.4645993,1.393445,-0.08755364,0.01654577,1.397633,0.002995142,-0.4522825,1.357966,-0.1280081,-0.2171186,1.373557,0.2633692,-0.2220827,1.362277,NA,NA,Unknown,Unknown,
0.8227539,-0.6176758,0.2294922,0.7485352,0.5219727,0.4804688,0,-2,-1,-5,-4,1,0,10,9,1,1,13,6,3,-2,-4,3.625,3.625,3.625,16.1875,16.1875,16.1875,2.979658,3.530414,6.023727,6.314795,3.588158,3.658812,-0.0946641,-0.4271412,1.19205,0.209945,-0.4348914,1.17898,0.09861717,0.2751467,1.431423,-0.05538643,-0.4066613,1.19734,0.1711455,-0.4210741,1.191354,0.07820331,-0.1633995,1.422823,0.0736231,-0.464498,1.393321,-0.08762476,0.01750233,1.398612,0.002865872,-0.4522013,1.357885,-0.1317509,-0.2083019,1.371067,0.2661681,-0.2185918,1.359996,NA,NA,Unknown,Unknown,
0.7246094,-0.7705078,0.2338867,0.7011719,0.5932617,0.5224609,1,-1,-2,-6,-4,4,-5,20,11,7,0,2,-1,1,0,2,-31.625,-31.625,-31.625,21.375,21.375,21.375,2.962114,3.746811,5.977512,6.33965,3.796805,3.678605,-0.08405337,-0.3975128,1.158108,0.2021612,-0.4090498,1.151697,0.09799335,0.2757956,1.433784,-0.03769806,-0.3926505,1.1859,0.1625443,-0.4058503,1.188208,0.07812862,-0.1629559,1.423271,0.07357088,-0.4638608,1.392969,-0.08754311,0.0192304,1.399984,0.002779268,-0.4518058,1.357643,-0.1373439,-0.1959886,1.363443,0.2723018,-0.20726,1.353507,NA,NA,Unknown,Unknown,
0.6420898,-0.7524414,0.2270508,0.6245117,0.5722656,0.5546875,-1,-1,-1,1,-2,3,-8,10,-3,-1,-3,-9,-4,-7,2,2,-18.5625,-18.5625,-18.5625,20.5,20.5,20.5,2.946825,3.916472,5.948365,6.361149,3.957502,3.68924,-0.07728209,-0.3581297,1.124441,0.1991484,-0.3675708,1.124957,0.09722373,0.276933,1.43635,-0.02834943,-0.3621955,1.1536,0.1547919,-0.3887499,1.157462,0.07810374,-0.1619998,1.423923,0.07376901,-0.4625645,1.392435,-0.08759958,0.02149839,1.401462,0.002942119,-0.450857,1.357307,-0.142373,-0.1849422,1.351989,0.2837248,-0.1987579,1.341694,NA,NA,Closed,Unknown,
0.5507813,-0.8696289,0.2387695,0.546875,0.6240234,0.5771484,-4,-4,-3,7,-7,-10,-4,-12,-2,18,0,0,-3,-1,0,-2,-23.0625,-23.0625,-23.0625,19.25,19.25,19.25,2.901437,4.139683,5.921576,6.387603,4.122259,3.696289,-0.07068861,-0.3173451,1.096046,0.1975126,-0.3312485,1.099797,0.09668867,0.2779965,1.438748,-0.02077359,-0.3208449,1.122875,0.149178,-0.3692211,1.124,0.07786341,-0.1608736,1.424675,0.07377673,-0.4611137,1.391971,-0.08702864,0.02294015,1.402062,0.003058988,-0.4496818,1.356996,-0.1472698,-0.1777222,1.340769,0.289199,-0.1919492,1.331495,NA,NA,Unknown,Unknown,
0.453125,-0.8549805,0.2329102,0.3886719,0.628418,0.5830078,0,-4,-4,-1,-2,-6,-23,15,2,-11,-1,1,4,4,0,2,-31.1875,-31.1875,-31.1875,20.125,20.125,20.125,2.872256,4.293468,5.900113,6.415642,4.320702,3.707255,-0.06566253,-0.2776498,1.073939,0.1959101,-0.2936544,1.081766,0.09617662,0.2787154,1.441789,-0.01106105,-0.2921988,1.094333,0.1496039,-0.328764,1.104125,0.07781702,-0.1598385,1.426083,0.07375991,-0.459998,1.392175,-0.08662901,0.02497581,1.40329,0.003338253,-0.4486822,1.357184,-0.1718029,-0.1603163,1.321899,0.2978313,-0.1838688,1.320441,NA,NA,Closed,Unknown,
0.4013672,-0.8964844,0.2275391,0.3540039,0.6699219,0.5878906,-2,0,1,-18,-7,-9,-19,14,1,0,-4,-3,-1,-5,-2,-13,-26.375,-26.375,-26.375,19,19,19,2.834162,4.430155,5.886148,6.445082,4.440831,3.709987,-0.06110079,-0.2406345,1.05288,0.1971615,-0.2555166,1.067035,0.09586909,0.2793953,1.443732,-0.006229966,-0.2554588,1.07425,0.1513787,-0.270741,1.0931,0.07729429,-0.1586281,1.427625,0.07334439,-0.4585137,1.392901,-0.08563051,0.02722468,1.404201,0.003283603,-0.447193,1.357938,-0.1777578,-0.1513058,1.314253,0.2876575,-0.1595261,1.270899,NA,NA,Unknown,Unknown,
0.3393555,-0.8994141,0.2055664,0.2944336,0.684082,0.5883789,-2,-2,-1,0,-6,6,16,0,22,22,1,0,-3,-12,-10,-6,-33.9375,-33.9375,-33.9375,15.8125,15.8125,15.8125,2.788731,4.561926,5.872317,6.466922,4.541868,3.716129,-0.05753552,-0.2069033,1.040543,0.1982154,-0.2223509,1.059245,0.09572741,0.2802035,1.44547,-0.001839129,-0.2304138,1.063555,0.1515326,-0.2377473,1.084462,0.07721807,-0.1572444,1.429194,0.07325465,-0.4564504,1.394158,-0.08457687,0.02969124,1.404408,0.003443822,-0.4452414,1.359072,-0.1846218,-0.1413953,1.307697,0.2910064,-0.1534576,1.26867,NA,NA,Unknown,Unknown,
0.2685547,-0.8696289,0.1865234,0.1928711,0.6738281,0.5795898,-7,-6,-8,-16,5,6,-3,-25,-9,-41,-8,-8,-5,9,-4,-11,-16.4375,-16.4375,-16.4375,10.5625,10.5625,10.5625,2.762354,4.635314,5.860428,6.476573,4.651685,3.720614,-0.05502829,-0.1836327,1.033462,0.1964252,-0.1963414,1.055711,0.09571024,0.280808,1.446245,-0.0006194238,-0.2048784,1.058083,0.1501427,-0.2134142,1.081941,0.07724205,-0.1559286,1.430552,0.07312803,-0.454556,1.395452,-0.08370796,0.03227098,1.404417,0.003481121,-0.443266,1.360442,-0.1878358,-0.1338762,1.30284,0.3194828,-0.1324824,1.259574,NA,NA,Closed,Unknown,
0.2563477,-0.9140625,0.1796875,0.1513672,0.7646484,0.5878906,-37,-11,3,-5,-5,-7,-4,-14,-17,-40,-2,-4,-2,-25,-16,-38,-23.0625,-23.0625,-23.0625,9.9375,9.9375,9.9375,2.728753,4.682784,5.84833,6.491828,4.706454,3.724974,-0.05419244,-0.1689892,1.033011,0.1942751,-0.1776327,1.052773,0.09591252,0.2812967,1.44706,-0.001434875,-0.1912999,1.051267,0.1495558,-0.1937973,1.078833,0.07734936,-0.1551024,1.431459,0.07319544,-0.4534521,1.396254,-0.08307565,0.03341999,1.404326,0.003591636,-0.4421204,1.361227,-0.192414,-0.1283903,1.301041,0.3233804,-0.1248988,1.254833,NA,NA,Unknown,Unknown,
0.1669922,-0.9174805,0.1362305,0.0703125,0.6884766,0.6044922,88,38,4,30,-4,-60,1,20,-6,10,-8,5,-1,24,17,122,-15,-15,-15,8.25,8.25,8.25,2.715241,4.718726,5.833556,6.483152,4.739481,3.740425,-0.054294,-0.1509329,1.046363,0.192098,-0.1629587,1.054033,0.09624492,0.2814895,1.44777,-0.01230984,-0.1791765,1.063556,0.1502768,-0.1888903,1.075867,0.07725409,-0.1548352,1.431884,0.07327105,-0.4532021,1.396623,-0.0800584,0.03198537,1.400084,0.003652715,-0.4418212,1.361499,-0.2089961,-0.1258389,1.318638,0.3296672,-0.121824,1.252236,NA,NA,Unknown,Unknown,
0.04345703,-0.9819336,0.04199219,0.1210938,0.8237305,0.5913086,79,77,69,13,12,-53,-5,10,-21,37,-21,7,26,33,15,32,-1.8125,-1.8125,-1.8125,-13.3125,-13.3125,-13.3125,2.702751,4.734698,5.819941,6.483992,4.768588,3.757371,-0.05388717,-0.1443036,1.059113,0.1898438,-0.1551184,1.05535,0.0965066,0.281407,1.448073,-0.0158466,-0.1713912,1.071,0.1449097,-0.1779288,1.0698,0.07733539,-0.1548445,1.431995,0.07336222,-0.4532716,1.396713,-0.07799597,0.03051576,1.396704,0.003713508,-0.4418701,1.36157,-0.2153816,-0.1244937,1.326613,0.330272,-0.1213559,1.2467,NA,NA,Unknown,Unknown,
0.1611328,-0.8759766,0.1254883,0.175293,0.7827148,0.5913086,-72,31,104,32,0,-3,-16,-23,10,26,11,7,20,-17,27,104,3.125,3.125,3.125,5.75,5.75,5.75,2.746099,4.742763,5.803966,6.47204,4.776969,3.766405,-0.05374442,-0.1508376,1.060553,0.1883999,-0.1533056,1.057578,0.09676445,0.2812949,1.447991,-0.0210216,-0.1246451,1.061865,0.1465634,-0.1789041,1.075893,0.07763042,-0.1548138,1.432103,0.07339935,-0.4532096,1.396788,-0.0779225,0.03254056,1.397629,0.003749145,-0.4417661,1.361662,-0.215308,-0.1228711,1.328637,0.3322531,-0.1217344,1.245817,NA,NA,Closed,Closed,
0.2539063,-1.01709,0.1953125,0.1494141,0.8071289,0.6425781,27,2,31,36,23,34,-43,49,22,-96,-17,-10,7,84,9,38,-8.8125,-8.8125,-8.8125,-6.75,-6.75,-6.75,2.738583,4.716898,5.800185,6.463886,4.77637,3.771058,-0.05333876,-0.1569286,1.064339,0.07624032,-0.2201189,0.9785936,0.09723599,0.2810369,1.447446,-0.02056968,-0.1306198,1.064382,0.03597823,-0.2402585,0.995448,0.07763951,-0.1547522,1.43212,0.07339588,-0.4530467,1.39683,-0.0775519,0.03271103,1.397399,0.003762543,-0.4415791,1.361727,-0.2162002,-0.1218354,1.329169,0.3326941,-0.1223671,1.244759,NA,NA,NotTracked,Closed,
0.1674805,-0.9926758,0.1640625,0.06835938,0.8081055,0.6176758,0,-36,-47,-20,-15,21,11,36,-75,-24,-3,-27,10,71,-30,-128,2.25,2.25,2.25,0.25,0.25,0.25,2.744076,4.718588,5.796774,6.456091,4.786943,3.777882,-0.0542867,-0.1598784,1.066625,0.1839708,-0.1549599,1.063192,0.09783266,0.2804241,1.446033,-0.01868412,-0.1361259,1.067625,0.1405714,-0.1725081,1.086572,0.07772846,-0.1547702,1.432047,0.07340817,-0.4529464,1.396789,-0.07697162,0.03223754,1.396358,0.0037873,-0.4414569,1.36173,-0.2176826,-0.1210868,1.330085,0.3271477,-0.1261957,1.250984,NA,NA,Closed,Unknown,
0.1713867,-0.9799805,0.1308594,0.1118164,0.7573242,0.6054688,-105,-60,-29,7,10,-35,21,-15,23,46,5,-6,-3,-107,-23,127,-2.9375,-2.9375,-2.9375,-4.75,-4.75,-4.75,2.744815,4.721459,5.800859,6.451071,4.783277,3.777551,-0.05498937,-0.1630687,1.067676,0.1835738,-0.1573556,1.064371,0.09850106,0.2794033,1.444114,-0.02057629,-0.1381163,1.066958,0.1408393,-0.1740605,1.07901,0.07789956,-0.1550552,1.431873,0.07348469,-0.4532005,1.396635,-0.07599114,0.03056234,1.394383,0.003848755,-0.4417161,1.361605,-0.2216015,-0.1201187,1.334549,0.3296953,-0.1265958,1.249663,NA,NA,Closed,Closed,
0.1748047,-0.9575195,0.175293,0.1176758,0.7104492,0.605957,127,3,-14,11,16,31,29,34,-18,10,14,-5,-25,-112,-94,-85,-5.5,-5.5,-5.5,-12.0625,-12.0625,-12.0625,2.743846,4.704527,5.801184,6.43425,4.77526,3.771446,-0.05589947,-0.1657854,1.068099,0.1838362,-0.1601813,1.064862,0.09917495,0.2782322,1.441593,-0.02048117,-0.1435685,1.066437,0.140682,-0.1748487,1.079469,0.07795498,-0.155108,1.431739,0.07344441,-0.4531017,1.396552,-0.07694088,0.03238599,1.396637,0.00383163,-0.4416016,1.36153,-0.221134,-0.1193632,1.335787,0.3308847,-0.1274256,1.246301,NA,NA,Closed,Unknown,
0.1821289,-0.855957,0.2700195,0.1435547,0.5644531,0.5795898,23,29,2,-14,14,32,-19,23,-29,-8,-31,-13,-7,-9,-47,-47,1.125,1.125,1.125,-21.9375,-21.9375,-21.9375,2.753174,4.676828,5.80242,6.39554,4.730543,3.767007,-0.0579995,-0.1760375,1.068756,0.1835148,-0.1684484,1.065328,0.0995741,0.2772883,1.439874,-0.02026315,-0.1590784,1.064687,0.1407349,-0.1762637,1.07889,0.07801059,-0.155221,1.431479,0.07346588,-0.4531064,1.396399,-0.07730038,0.03326248,1.397669,0.003843449,-0.4415835,1.36139,-0.2213946,-0.1184597,1.336409,0.3313322,-0.128596,1.246509,NA,NA,Closed,Closed,
0.3232422,-0.6318359,0.1577148,0.04541016,0.5371094,0.5473633,-11,19,55,-49,-19,-24,-26,57,-51,-95,-50,-15,1,56,-21,49,0.1875,0.1875,0.1875,-16.5,-16.5,-16.5,2.771062,4.588117,5.817195,6.339536,4.643734,3.743954,-0.06066882,-0.2076335,1.076572,0.1617367,-0.2002323,1.061857,0.09984308,0.2766585,1.43873,-0.02053437,-0.1956267,1.071,0.1403312,-0.19859,1.06,0.0783346,-0.1554241,1.431145,0.07349735,-0.453176,1.396186,-0.07748035,0.0334137,1.397912,0.003880478,-0.4416521,1.361095,-0.2202102,-0.119264,1.335531,0.3312353,-0.1335461,1.247584,NA,NA,Closed,Unknown,
0.4291992,-0.6791992,0.2558594,0.2954102,0.7519531,0.6303711,18,-1,99,25,-19,-7,42,9,32,-16,-12,7,17,42,61,69,5.125,5.125,5.125,5.625,5.625,5.625,2.777149,4.404152,5.834486,6.335438,4.41324,3.713704,-0.06696017,-0.2622209,1.092152,0.1902643,-0.2381109,1.08013,0.09996811,0.2759448,1.438605,-0.02806755,-0.2492881,1.089765,0.1419664,-0.2582715,1.099583,0.07875345,-0.1566876,1.430692,0.07395599,-0.4555852,1.394467,-0.07597518,0.02885724,1.39349,0.004250722,-0.4442413,1.359561,-0.2116868,-0.1301768,1.331263,0.2704374,-0.1781403,1.246167,NA,NA,Closed,Closed,
0.534668,-0.7739258,0.1899414,0.6738281,0.9350586,0.6992188,127,62,2,-40,-21,-31,46,27,13,59,-5,-28,-9,-38,31,61,10.9375,10.9375,10.9375,-10.0625,-10.0625,-10.0625,2.791608,4.160977,5.854051,6.348166,4.14221,3.705851,-0.06912778,-0.3142749,1.116742,0.1911073,-0.2883036,1.089952,0.0999011,0.2746187,1.438734,-0.03782196,-0.3013065,1.127214,0.1485562,-0.2886564,1.095178,0.07897776,-0.158566,1.429483,0.07476223,-0.458299,1.391146,-0.07683151,0.0272368,1.394146,0.005040572,-0.4472477,1.356569,-0.1992552,-0.1420962,1.331191,0.2688562,-0.1950628,1.251533,NA,NA,Closed,Closed,
0.6079102,-1.113281,0.0390625,0.4619141,0.7539063,0.59375,-16,-11,-10,-68,4,2,8,-19,-48,-29,-36,-13,8,-17,-19,-50,18.1875,18.1875,18.1875,-8.6875,-8.6875,-8.6875,2.803325,3.893611,5.876505,6.32967,4.078621,3.700632,-0.06601097,-0.3470551,1.124013,0.1912275,-0.3102188,1.101012,0.09954832,0.273517,1.438499,-0.03077785,-0.3273435,1.104132,0.1432076,-0.3259902,1.122831,0.07905534,-0.1599839,1.42838,0.07519221,-0.4601524,1.388522,-0.07751967,0.02528363,1.394686,0.005327784,-0.4490724,1.354301,-0.1447,-0.1769946,1.326834,0.2655922,-0.2107137,1.252386,NA,NA,Closed,Unknown,
0.5449219,-1.058105,-0.008300781,0.5209961,0.7324219,0.6010742,28,16,-35,10,9,2,64,-54,72,-52,23,38,70,24,106,89,19.0625,19.0625,19.0625,4.4375,4.4375,4.4375,2.800422,3.878396,5.887811,6.339251,4.057027,3.695143,-0.07065908,-0.3541437,1.127814,0.1908399,-0.3167839,1.10399,0.09901773,0.2728033,1.438025,-0.03355227,-0.3361402,1.109375,0.1772883,-0.2983523,1.066333,0.07898064,-0.1610273,1.427253,0.07521158,-0.461327,1.386817,-0.07811829,0.0241764,1.395002,0.005247558,-0.450297,1.352839,-0.1447689,-0.1769903,1.326834,0.264327,-0.2166229,1.253895,NA,NA,Closed,Closed,
0.7368164,-0.7519531,0.2001953,0.5356445,0.625,0.5610352,38,35,-39,6,-48,-70,-80,13,45,29,-1,-20,-2,41,44,87,-2.4375,-2.4375,-2.4375,4.3125,4.3125,4.3125,2.7623,3.83866,5.929683,6.344315,4.061657,3.689327,-0.07474916,-0.3554508,1.127257,0.1910014,-0.3177598,1.103388,0.09845169,0.2721766,1.437324,-0.04059003,-0.3348398,1.104788,0.1435666,-0.3349948,1.124454,0.07890977,-0.1616911,1.426417,0.07518733,-0.4619193,1.385961,-0.07854129,0.02356095,1.395102,0.005130011,-0.4508879,1.352151,-0.1449309,-0.1770726,1.326918,0.2639892,-0.2190504,1.254151,NA,NA,Closed,Closed,
0.6958008,-0.7724609,0.1601563,0.4873047,0.6455078,0.5444336,-106,-30,-55,25,6,-60,10,-81,5,5,-6,30,-8,-40,-49,-60,3.5625,3.5625,3.5625,2.125,2.125,2.125,2.758055,3.839309,5.942882,6.353616,4.063216,3.687671,-0.07692848,-0.3556694,1.125904,0.19225,-0.3175914,1.102356,0.09800918,0.2713099,1.436437,-0.0322636,-0.3553119,1.12725,0.143528,-0.3360859,1.12467,0.07877934,-0.1622782,1.425926,0.07520979,-0.4625039,1.385352,-0.07883883,0.02289366,1.395026,0.005071282,-0.4514694,1.351593,-0.1458611,-0.177323,1.32702,0.2851949,-0.1922653,1.323914,NA,NA,Closed,Unknown,
0.6552734,-0.7504883,0.1708984,0.5209961,0.625,0.5507813,24,26,-23,-18,10,28,36,62,-15,34,-16,16,-27,-29,-4,127,-6.4375,-6.4375,-6.4375,3.1875,3.1875,3.1875,2.75017,3.836807,5.949081,6.357985,4.065938,3.684098,-0.07907255,-0.3557652,1.125437,0.1925454,-0.3167794,1.101643,0.09765714,0.2707166,1.436028,-0.04320806,-0.3372149,1.104167,0.1434405,-0.3405687,1.128597,0.07879424,-0.1628499,1.425394,0.07518468,-0.4629821,1.384805,-0.07915161,0.0223792,1.395069,0.004958522,-0.4519812,1.351074,-0.1462047,-0.177405,1.32694,0.275923,-0.2023284,1.292397,NA,NA,Closed,Closed,
0.7226563,-0.6855469,0.1035156,0.5063477,0.5976563,0.5405273,-59,-30,21,11,-7,-11,-7,-38,-79,54,38,3,-27,21,25,-18,-0.5625,-0.5625,-0.5625,4.5625,4.5625,4.5625,2.746114,3.832913,5.965839,6.359035,4.073872,3.678579,-0.08053663,-0.3552549,1.123969,0.1929658,-0.3150362,1.10026,0.09757096,0.270242,1.435822,-0.03964941,-0.3406309,1.109828,0.1547274,-0.3035898,1.090281,0.07877953,-0.1631894,1.425049,0.07507423,-0.4632107,1.384346,-0.07923908,0.02219954,1.394943,0.004800395,-0.4522313,1.350584,-0.1467294,-0.1777707,1.326492,0.2656169,-0.2234281,1.254154,NA,NA,Closed,Unknown,
0.6821289,-0.7216797,0.1318359,0.5297852,0.5966797,0.5566406,-80,-31,-43,-28,-26,-36,-20,50,15,34,-9,-10,11,49,42,72,-1.1875,-1.1875,-1.1875,-0.5,-0.5,-0.5,2.732533,3.828133,5.971315,6.361249,4.069675,3.673843,-0.08198047,-0.3544393,1.122581,0.1937954,-0.3145901,1.099298,0.09755202,0.2701719,1.435659,-0.04019678,-0.346841,1.116818,0.1464262,-0.3319246,1.1221,0.07878225,-0.1632737,1.424811,0.07501698,-0.4633318,1.384046,-0.07937518,0.02202194,1.394871,0.004693819,-0.4523677,1.350279,-0.1470494,-0.1773843,1.325931,0.2895206,-0.1908104,1.317124,NA,NA,Closed,Unknown,
0.6196289,-0.7490234,0.1274414,0.5214844,0.6318359,0.559082,-74,-35,-35,13,33,2,21,-22,-128,-57,-23,5,14,-106,-37,-15,0.4375,0.4375,0.4375,-0.75,-0.75,-0.75,2.72548,3.829059,5.975262,6.360876,4.066039,3.674505,-0.08329742,-0.3550539,1.121542,0.1939162,-0.3164732,1.10049,0.09751486,0.2700717,1.435451,-0.04333073,-0.339474,1.106841,0.1462254,-0.3366666,1.123636,0.07873283,-0.1633762,1.42451,0.07492805,-0.4634245,1.383725,-0.07953326,0.02167095,1.394499,0.004552304,-0.4524802,1.349848,-0.1476614,-0.1769902,1.325587,0.2674304,-0.2242903,1.2506,NA,NA,Closed,Unknown,
0.6923828,-0.7397461,0.1376953,0.5302734,0.6337891,0.546875,15,9,15,18,2,-3,14,-15,9,-8,25,-9,-42,52,-45,-87,-3.9375,-3.9375,-3.9375,1.375,1.375,1.375,2.724603,3.827633,5.984091,6.363586,4.061663,3.672392,-0.08361927,-0.3552116,1.121075,0.1945212,-0.3181819,1.101355,0.09755278,0.2700003,1.435377,-0.04327022,-0.3394389,1.10598,0.1458764,-0.3419012,1.1251,0.0788203,-0.1635438,1.424224,0.07488237,-0.4635817,1.383423,-0.0794903,0.02160887,1.394408,0.004486884,-0.4526192,1.349481,-0.1478,-0.177037,1.325183,0.2672915,-0.2241692,1.25139,NA,NA,Closed,Closed,
0.668457,-0.7255859,0.128418,0.5009766,0.6660156,0.543457,36,10,37,-39,-4,-12,-14,7,0,-26,-9,-9,-4,-38,9,3,-4,-4,-4,-2.8125,-2.8125,-2.8125,2.714491,3.827055,5.982516,6.362727,4.061988,3.667959,-0.08282406,-0.3539293,1.119648,0.1946968,-0.3182846,1.101762,0.09761005,0.2698633,1.435328,-0.04284033,-0.3401893,1.106701,0.146997,-0.3409518,1.128797,0.07879406,-0.1636856,1.424075,0.07485487,-0.4637141,1.383225,-0.07939066,0.02140452,1.3942,0.004423535,-0.4527649,1.349141,-0.1480928,-0.1765337,1.324482,0.2671241,-0.2243448,1.251837,NA,NA,Closed,Closed,
0.7128906,-0.7163086,0.1025391,0.5380859,0.6010742,0.5727539,52,26,28,12,-17,-18,17,-19,-82,-20,-8,-1,47,50,27,-41,-4.75,-4.75,-4.75,3.5625,3.5625,3.5625,2.709908,3.827315,5.989039,6.360146,4.058637,3.664294,-0.08287433,-0.3536101,1.119384,0.1959039,-0.3182056,1.102069,0.0976483,0.2698102,1.43532,-0.04833063,-0.3333509,1.096205,0.1631665,-0.3000875,1.073822,0.07879493,-0.1637734,1.423945,0.07485543,-0.4637779,1.383119,-0.07945304,0.02119556,1.394055,0.004411599,-0.4528105,1.349049,-0.1483577,-0.176206,1.32366,0.2904019,-0.1925573,1.321692,NA,NA,Closed,Unknown,
0.6777344,-0.7231445,0.112793,0.5454102,0.5991211,0.5600586,-27,-6,17,1,-37,-54,-13,-25,-40,-57,-26,2,6,7,18,53,-1.0625,-1.0625,-1.0625,-0.3125,-0.3125,-0.3125,2.705305,3.831109,5.99175,6.362442,4.054679,3.657315,-0.08310726,-0.3514797,1.116507,0.1959405,-0.3186241,1.102593,0.0977196,0.2697978,1.435339,-0.04733369,-0.3332297,1.097146,0.1550906,-0.328184,1.128214,0.07883961,-0.163783,1.423912,0.07487149,-0.4637731,1.383078,-0.07943444,0.0211966,1.394047,0.00442116,-0.4527945,1.349017,-0.1482692,-0.1758787,1.323147,0.2686269,-0.2234255,1.255257,NA,NA,Closed,Closed,
0.6689453,-0.6992188,0.1083984,0.5375977,0.6176758,0.546875,26,19,26,6,-14,-25,-25,17,7,34,13,9,-17,-30,-24,-32,-3.5,-3.5,-3.5,2.9375,2.9375,2.9375,2.700183,3.833202,5.996165,6.368472,4.046195,3.652656,-0.08371638,-0.3514381,1.116126,0.1972639,-0.3212696,1.104378,0.097842,0.2698188,1.435394,-0.0445142,-0.3418453,1.108745,0.159169,-0.3104113,1.094231,0.07883975,-0.1637998,1.423864,0.07487735,-0.4638002,1.383031,-0.07928782,0.0211659,1.393775,0.004417517,-0.4528154,1.348945,-0.1481164,-0.1752872,1.322488,0.2905858,-0.1934726,1.323342,NA,NA,Closed,Unknown,
0.6777344,-0.762207,0.1166992,0.5126953,0.6333008,0.5361328,-31,-2,-23,0,-17,-9,-4,-20,33,9,-5,19,11,13,9,5,6.625,6.625,6.625,-3.25,-3.25,-3.25,2.695709,3.825377,6.003625,6.369698,4.041611,3.642565,-0.08352079,-0.351762,1.115136,0.1971127,-0.3238238,1.105272,0.0980161,0.2698597,1.435624,-0.04515452,-0.3365542,1.100618,0.1598233,-0.3141379,1.095267,0.07887969,-0.1638704,1.423796,0.07488034,-0.4638489,1.382981,-0.07915916,0.02102107,1.393625,0.004411479,-0.452867,1.348876,-0.148095,-0.174961,1.322063,0.2694497,-0.2267526,1.25601,NA,NA,Closed,Unknown,
0.6674805,-0.7485352,0.1088867,0.5610352,0.5927734,0.5664063,11,15,-13,-42,3,-22,-24,-21,-34,-54,-18,-13,-19,-6,1,-7,-6.4375,-6.4375,-6.4375,5,5,5,2.690327,3.819839,6.006605,6.373126,4.026917,3.636011,-0.08310874,-0.3516247,1.114886,0.1998461,-0.3243039,1.106216,0.09839241,0.2701465,1.43635,-0.04547139,-0.3354445,1.098484,0.1499339,-0.3470082,1.123667,0.07892374,-0.1639102,1.423774,0.07488561,-0.463878,1.382967,-0.07906754,0.02096726,1.393566,0.004407223,-0.4528792,1.348861,-0.1478845,-0.1746396,1.321613,0.259839,-0.243771,1.357965,NA,NA,Closed,Unknown,
0.6904297,-0.7128906,0.09277344,0.5507813,0.6430664,0.5166016,-2,11,4,-15,-13,-8,-21,-8,-35,-8,0,17,8,-14,-2,-4,-9.125,-9.125,-9.125,11,11,11,2.680637,3.810598,6.014959,6.398151,4.013129,3.623789,-0.08213225,-0.3513838,1.11457,0.1982134,-0.3275434,1.105794,0.09877545,0.2706945,1.437239,-0.0463719,-0.3312111,1.095168,0.1526056,-0.3417167,1.121659,0.07900552,-0.163856,1.423786,0.0748717,-0.463873,1.382965,-0.07895585,0.02094941,1.393491,0.004373527,-0.4528507,1.348791,-0.1477463,-0.1744493,1.32137,0.2899366,-0.1941676,1.323034,NA,NA,Closed,Unknown,
0.706543,-0.7280273,0.09619141,0.6015625,0.5922852,0.534668,7,-14,-1,32,-2,-9,-91,-4,-18,-4,-3,-9,-18,-7,-23,-8,-8.25,-8.25,-8.25,-3.1875,-3.1875,-3.1875,2.660943,3.79775,6.013075,6.398731,3.991566,3.614512,-0.08008162,-0.3533463,1.114855,0.1983878,-0.3317513,1.105116,0.09934566,0.2713851,1.438286,-0.05256118,-0.3313609,1.090483,0.1521032,-0.3428298,1.121845,0.07902759,-0.1637864,1.423729,0.07486936,-0.4638647,1.382951,-0.07883346,0.0210063,1.393393,0.004343319,-0.45279,1.348716,-0.1474884,-0.1744681,1.321391,0.2900275,-0.1942259,1.323143,NA,NA,Closed,Unknown,
0.6845703,-0.6791992,0.08349609,0.5800781,0.6254883,0.4897461,-6,15,0,9,5,4,-2,-1,-7,20,8,4,-3,-9,9,2,14.25,14.25,14.25,-11.8125,-11.8125,-11.8125,2.690157,3.794829,5.995861,6.396713,3.969242,3.60697,-0.0808199,-0.356398,1.115069,0.1981835,-0.3379416,1.105563,0.09968144,0.2720631,1.439216,-0.04596389,-0.3401748,1.095212,0.1531044,-0.3515024,1.12545,0.07908376,-0.1637187,1.423649,0.07486949,-0.4638515,1.382936,-0.07860935,0.02112839,1.393269,0.004315533,-0.4526967,1.348626,-0.1472511,-0.1748168,1.321555,0.2662544,-0.2278692,1.272411,NA,NA,Closed,Unknown,
0.6577148,-0.690918,0.08300781,0.5708008,0.5454102,0.5390625,-6,1,0,1,3,10,-13,-5,-13,-62,-1,-4,-9,-6,1,5,5.625,5.625,5.625,-9.75,-9.75,-9.75,2.716738,3.786738,5.972413,6.370086,3.935939,3.591446,-0.07963056,-0.3664912,1.11662,0.199248,-0.3464547,1.10701,0.1000421,0.2730114,1.44065,-0.02707951,-0.3841665,1.145,0.1486731,-0.3598421,1.124375,0.07911918,-0.1636841,1.423606,0.07484457,-0.4638869,1.382958,-0.07856634,0.02102698,1.39326,0.004245861,-0.4527363,1.348638,-0.1466207,-0.1754041,1.321707,0.2670368,-0.228316,1.271853,NA,NA,Unknown,Unknown,
0.6665039,-0.6855469,0.1293945,0.6113281,0.628418,0.5112305,-6,-6,-1,-1,-4,5,19,1,-16,-10,3,3,2,2,6,7,-7.6875,-7.6875,-7.6875,-11.4375,-11.4375,-11.4375,2.711722,3.773637,5.966488,6.363704,3.907934,3.577619,-0.07836771,-0.3797848,1.123011,0.1918595,-0.3822137,1.092256,0.1002327,0.2738474,1.441664,-0.02996134,-0.3884535,1.156727,0.1472099,-0.3942426,1.115235,0.07915683,-0.1635964,1.423593,0.07484122,-0.4639047,1.383,-0.07850263,0.02107013,1.393359,0.004204357,-0.4527438,1.348636,-0.1459273,-0.1777819,1.322665,0.2677966,-0.2284817,1.272352,NA,NA,Closed,Closed,
