ALX,ALY,ALZ,ARX,ARY,ARZ,EMG0L,EMG1L,EMG2L,EMG3L,EMG4L,EMG5L,EMG6L,EMG7L,EMG0R,EMG1R,EMG2R,EMG3R,EMG4R,EMG5R,EMG6R,EMG7R,GLX,GLY,GLZ,GRX,GRY,GRZ,ORL,OPL,OYL,ORR,OPR,OYR,LHNX,LHNY,LHNZ,RHNX,RHNY,RHNZ,HX,HY,HZ,LTX,LTY,LTZ,RTX,RTY,RTZ,SpineMidX,SpineMidY,SpineMidZ,SpineBaseX,SpineBaseY,SpineBaseZ,ShoulderLeftX,ShoulderLeftY,ShoulderLeftZ,ShoulderRightX,ShoulderRightY,ShoulderRightZ,ElbowLeftX,ElbowLeftY,ElbowLeftZ,ElbowRightX,ElbowRightY,ElbowRightZ,Myo_Pose_left,Myo_Pose_Right,Kinect_pose_left,Kinect_pose_right
0.909668,-0.3984375,0.1079102,0.8833008,0.3071289,0.3178711,0,-2,-3,-2,-1,0,-2,-1,-9,-1,-3,-1,-4,0,1,-1,0.3125,0.3125,0.3125,1.5,1.5,1.5,2.850013,3.18829,6.419971,6.246336,3.215678,3.182445,-0.1137993,-0.475332,1.26817,0.2408719,-0.4785802,1.22603,0.1040072,0.2774811,1.437371,-0.07292119,-0.4662714,1.258256,0.196392,-0.4642033,1.229547,0.08294931,-0.163359,1.428044,0.07882891,-0.466804,1.398004,-0.0821966,0.01573741,1.399067,0.008554558,-0.4537238,1.361373,-0.1194749,-0.2288978,1.369981,0.2620485,-0.2330989,1.359826,NA,NA,Unknown,Unknown,
0.9023438,-0.4091797,0.1108398,0.8833008,0.2875977,0.3041992,-2,0,-1,-1,-2,-1,2,-3,-7,-1,-1,-1,0,1,-1,-5,-0.375,-0.375,-0.375,1.1875,1.1875,1.1875,2.849654,3.188792,6.419825,6.245563,3.215796,3.18374,-0.1136642,-0.4752081,1.268087,0.2405429,-0.4786431,1.225556,0.1037612,0.2774369,1.43731,-0.07266028,-0.4667918,1.258247,0.1967824,-0.4629224,1.229568,0.08290842,-0.1633743,1.427992,0.0788465,-0.4667896,1.397949,-0.0822193,0.0157269,1.399065,0.008561479,-0.4537179,1.361348,-0.1195416,-0.2289195,1.369934,0.2620097,-0.233011,1.359774,NA,NA,Unknown,Unknown,
0.9116211,-0.3994141,0.1020508,0.8818359,0.2963867,0.3061523,-1,-1,-1,1,-2,-2,0,-1,-19,-3,-1,0,-1,-2,-5,-3,0.375,0.375,0.375,-0.4375,-0.4375,-0.4375,2.851342,3.190166,6.42026,6.245593,3.216624,3.18499,-0.113703,-0.4742629,1.268313,0.2401405,-0.4792542,1.225842,0.1035745,0.2774624,1.437334,-0.07292722,-0.4641978,1.260108,0.1967056,-0.4631658,1.229459,0.08290818,-0.1633773,1.427973,0.07885084,-0.4667838,1.397916,-0.08232746,0.0156353,1.399111,0.008562575,-0.4537179,1.361346,-0.1195737,-0.2289665,1.370003,0.2619617,-0.2330429,1.359725,NA,NA,Unknown,Unknown,
0.9052734,-0.402832,0.1015625,0.8828125,0.2851563,0.3100586,-1,-2,-2,-2,1,0,-2,-2,12,-2,0,-1,0,1,0,-1,0.0625,0.0625,0.0625,0.625,0.625,0.625,2.850264,3.191378,6.422017,6.242796,3.216955,3.187173,-0.114118,-0.4745984,1.267872,0.2401042,-0.4788404,1.224889,0.1034204,0.2774331,1.437277,-0.07244841,-0.4673209,1.257055,0.1966755,-0.4630573,1.229446,0.08280078,-0.1633795,1.427912,0.07882412,-0.466762,1.397868,-0.08245648,0.01551332,1.399086,0.008540798,-0.4537153,1.361338,-0.1195664,-0.2288771,1.36995,0.2618999,-0.2329455,1.359663,NA,NA,Unknown,Unknown,
0.9082031,-0.4057617,0.1030273,0.8862305,0.2915039,0.3129883,-1,-3,-1,-1,1,1,2,-1,-11,-3,-3,-1,-2,1,-2,1,-0.25,-0.25,-0.25,-1.125,-1.125,-1.125,2.849381,3.191028,6.422714,6.238741,3.217508,3.191921,-0.1143526,-0.475309,1.268708,0.2397271,-0.479221,1.225955,0.1033585,0.2774283,1.437324,-0.072474,-0.4675077,1.258117,0.1967684,-0.4625052,1.230429,0.08276578,-0.1633952,1.427897,0.07879725,-0.466762,1.397847,-0.08246714,0.01551689,1.3991,0.008513226,-0.4537224,1.361324,-0.1196983,-0.2288392,1.369922,0.2618488,-0.232917,1.359727,NA,NA,Unknown,Unknown,
0.9067383,-0.4125977,0.09863281,0.8857422,0.3095703,0.3129883,1,0,0,-1,-1,-1,-2,-8,5,1,-2,-1,-1,-2,0,-2,-0.9375,-0.9375,-0.9375,-0.125,-0.125,-0.125,2.848199,3.190031,6.423099,6.238794,3.217876,3.193143,-0.1150652,-0.4754284,1.268365,0.239049,-0.4789357,1.225027,0.1032864,0.2774419,1.437375,-0.07322796,-0.4653836,1.258885,0.196632,-0.4630551,1.229421,0.0827295,-0.1634087,1.427886,0.07872873,-0.4667867,1.397789,-0.08248562,0.01552325,1.399105,0.008424133,-0.4537553,1.361317,-0.1196763,-0.2293378,1.369802,0.2617984,-0.2329119,1.359679,NA,NA,Unknown,Unknown,
0.9086914,-0.4047852,0.1123047,0.8828125,0.2939453,0.3071289,-2,-2,-1,-1,-2,0,1,-2,-18,-4,0,-1,0,-1,-1,-5,-1.3125,-1.3125,-1.3125,-0.125,-0.125,-0.125,2.848199,3.190031,6.423099,6.236697,3.22051,3.194004,-0.1147531,-0.4753975,1.268408,0.2391928,-0.4788488,1.225103,0.1032275,0.2774328,1.437395,-0.07311276,-0.466163,1.258374,0.1966013,-0.4625881,1.229574,0.08266956,-0.1634094,1.427875,0.07869127,-0.4667717,1.397773,-0.0825645,0.01553079,1.39913,0.008386651,-0.4537629,1.361333,-0.1197187,-0.2294068,1.369823,0.2618017,-0.2329181,1.359672,NA,NA,Open,Unknown,
0.9125977,-0.4077148,0.1040039,0.8901367,0.3110352,0.3154297,-1,-2,0,-2,1,-2,0,-4,1,-9,-3,1,-2,-1,-3,1,2,2,2,0.75,0.75,0.75,2.852372,3.191539,6.419141,6.234411,3.227794,3.199281,-0.1141808,-0.4748208,1.267621,0.2388222,-0.478336,1.223876,0.1031702,0.2774398,1.437401,-0.07270318,-0.4666219,1.257548,0.1964437,-0.4615991,1.22878,0.0826344,-0.1634046,1.427841,0.07860276,-0.4667398,1.39767,-0.08257523,0.01552104,1.399132,0.008291627,-0.4537164,1.361246,-0.1197827,-0.2293915,1.369747,0.2617663,-0.2329186,1.359693,NA,NA,Unknown,Unknown,
0.9165039,-0.4047852,0.109375,0.8730469,0.3339844,0.3383789,-3,0,0,-1,-2,-1,0,-1,8,-7,-5,-1,-2,-3,1,-2,-2.8125,-2.8125,-2.8125,0.625,0.625,0.625,2.862916,3.19582,6.409693,6.224171,3.24518,3.211663,-0.1137458,-0.4750107,1.266497,0.2379113,-0.4757879,1.222619,0.1030454,0.2774879,1.437552,-0.07249184,-0.4647461,1.259966,0.1961045,-0.459392,1.228377,0.08258659,-0.1634093,1.427825,0.07852917,-0.4667274,1.397575,-0.0826145,0.01550535,1.399133,0.008223452,-0.453723,1.361176,-0.1197759,-0.2293896,1.369692,0.2617175,-0.2327826,1.359679,NA,NA,Unknown,Unknown,
0.8974609,-0.4335938,0.1240234,0.9003906,0.3295898,0.3515625,0,-1,-3,0,1,0,-1,7,9,-3,-1,-1,-3,2,-2,1,8.8125,8.8125,8.8125,3.375,3.375,3.375,2.889176,3.214686,6.379821,6.20265,3.276321,3.235093,-0.1119743,-0.4735326,1.264018,0.2361073,-0.4738955,1.21925,0.1029034,0.2774903,1.437672,-0.07091332,-0.463556,1.255117,0.1921363,-0.458307,1.224274,0.08241453,-0.1634323,1.427775,0.0784478,-0.4667405,1.39748,-0.08264807,0.01550884,1.399151,0.008119973,-0.4537648,1.361092,-0.1198593,-0.2291334,1.369604,0.2615982,-0.2325451,1.359758,NA,NA,Unknown,Unknown,
0.9267578,-0.4165039,0.1176758,0.8964844,0.3525391,0.3510742,0,-1,-2,1,3,1,2,4,13,-2,-2,-2,0,-3,-2,3,-10,-10,-10,-1.375,-1.375,-1.375,2.922343,3.23474,6.344268,6.186337,3.315714,3.25467,-0.1112773,-0.4715402,1.25841,0.2337143,-0.4704366,1.212689,0.1027047,0.2775612,1.437818,-0.06895419,-0.4583668,1.248539,0.1917195,-0.4514911,1.222689,0.08232364,-0.1634268,1.427734,0.07829171,-0.4667132,1.397316,-0.08275242,0.0154944,1.399222,0.007943814,-0.4537302,1.360922,-0.1197998,-0.2288479,1.369571,0.2616819,-0.2320161,1.359858,NA,NA,Open,Unknown,
0.9121094,-0.4946289,0.1616211,0.8500977,0.4003906,0.409668,-2,-1,-4,1,-2,-3,-2,-3,-2,4,-2,1,-2,6,0,-1,8.8125,8.8125,8.8125,3.375,3.375,3.375,2.976266,3.290153,6.284081,6.16262,3.381696,3.280709,-0.1079845,-0.466199,1.247669,0.2306622,-0.4632168,1.203816,0.1024407,0.277724,1.438163,-0.06522017,-0.4500245,1.239533,0.1893326,-0.4501743,1.219582,0.08230156,-0.1634069,1.427689,0.07825192,-0.4666317,1.39714,-0.08283609,0.01556176,1.399285,0.007887985,-0.4536679,1.360736,-0.1198643,-0.227029,1.369855,0.2618734,-0.2310432,1.359974,NA,NA,Open,Unknown,
0.8486328,-0.5458984,0.2094727,0.8393555,0.4287109,0.4443359,-2,-2,0,3,2,-7,-2,2,11,2,-5,-2,-2,-2,-3,-3,-5.75,-5.75,-5.75,3.875,3.875,3.875,3.052548,3.406191,6.201886,6.153278,3.470622,3.304746,-0.1040223,-0.463621,1.228903,0.2265739,-0.4522745,1.190663,0.102185,0.2778903,1.438448,-0.06874371,-0.4481955,1.207376,0.1840488,-0.435556,1.20115,0.08215013,-0.1632854,1.427673,0.07822833,-0.4664572,1.396966,-0.08320738,0.01576542,1.399643,0.007836426,-0.4535332,1.360557,-0.1199534,-0.2259293,1.369925,0.2628017,-0.2273291,1.361068,NA,NA,Open,Unknown,
0.8027344,-0.597168,0.2529297,0.7949219,0.4506836,0.5229492,-1,1,0,-2,-5,-8,-11,-4,-10,2,4,-2,4,0,-2,-8,-5.625,-5.625,-5.625,9.4375,9.4375,9.4375,3.078526,3.526568,6.150174,6.145286,3.628451,3.329971,-0.09809497,-0.4470087,1.20475,0.2221381,-0.4335472,1.173752,0.1019461,0.2780548,1.438808,-0.05434071,-0.4266069,1.2125,0.1839316,-0.4367331,1.197138,0.08202016,-0.1631463,1.427707,0.07826189,-0.4662665,1.396826,-0.08346973,0.01594683,1.400153,0.007836761,-0.4534297,1.360454,-0.1208816,-0.2198325,1.369964,0.2647374,-0.222239,1.360975,NA,NA,Open,Unknown,
0.7753906,-0.6953125,0.2470703,0.690918,0.5048828,0.574707,0,-2,-4,-12,-10,-5,-2,-3,21,6,0,-3,2,-5,0,5,-25.5,-25.5,-25.5,4.375,4.375,4.375,3.076153,3.668174,6.115404,6.145828,3.772686,3.341008,-0.09172889,-0.4194123,1.176139,0.215911,-0.4112975,1.152406,0.1015039,0.2784999,1.43977,-0.05281617,-0.4052425,1.16538,0.1743493,-0.4472672,1.197,0.08196075,-0.1629557,1.427742,0.07824104,-0.4658923,1.396533,-0.08390274,0.01632283,1.400859,0.007786165,-0.4532992,1.360294,-0.1234084,-0.2074063,1.36827,0.2679094,-0.2171402,1.358048,NA,NA,Open,Unknown,
0.6977539,-0.7631836,0.2763672,0.6796875,0.5166016,0.605957,-1,-2,-4,1,2,-17,-4,-6,-11,1,-2,-11,0,11,2,3,-27.25,-27.25,-27.25,7.9375,7.9375,7.9375,3.056088,3.883701,6.071509,6.153394,3.926311,3.35075,-0.08267976,-0.3880983,1.145442,0.2136016,-0.3806432,1.129182,0.1011003,0.2789214,1.440632,-0.03032591,-0.3954797,1.166722,0.162132,-0.4068864,1.151923,0.08192561,-0.1626366,1.427714,0.07843958,-0.465159,1.395918,-0.08408061,0.01720697,1.401648,0.007887668,-0.452985,1.359917,-0.1268816,-0.1985782,1.364759,0.2706571,-0.208016,1.355393,NA,NA,Unknown,Unknown,
0.5454102,-0.8344727,0.2832031,0.5092773,0.5449219,0.6640625,1,0,-2,-4,0,4,-2,-4,11,-7,-3,-6,-6,-30,-3,1,-28.75,-28.75,-28.75,14.25,14.25,14.25,3.026813,4.059306,6.039257,6.166866,4.148911,3.365291,-0.07589078,-0.3432142,1.120187,0.2116782,-0.3407722,1.110595,0.1008013,0.2794565,1.441754,-0.02275131,-0.3576373,1.138611,0.1641641,-0.3734014,1.129364,0.08190871,-0.1621051,1.427716,0.07876035,-0.4640337,1.395268,-0.08386535,0.01858564,1.4026,0.008161778,-0.4522186,1.359451,-0.1334748,-0.1878486,1.357669,0.2763329,-0.204849,1.35434,NA,NA,Unknown,Unknown,
0.4663086,-0.8203125,0.2861328,0.4101563,0.5507813,0.6674805,0,-2,-19,-19,-5,-2,-11,3,-14,2,-2,-19,-2,-13,-20,-11,-30.9375,-30.9375,-30.9375,17.25,17.25,17.25,2.995582,4.230294,6.012683,6.182665,4.311146,3.376621,-0.07091475,-0.3042658,1.095462,0.2100219,-0.3076225,1.091098,0.1004977,0.2800598,1.443021,-0.01890611,-0.3114862,1.116,0.1724757,-0.2939484,1.10803,0.08213313,-0.161315,1.427999,0.07910218,-0.4627483,1.395126,-0.08351159,0.02034048,1.403473,0.008536919,-0.4512828,1.359331,-0.1392964,-0.1830936,1.34986,0.2872221,-0.1988527,1.343747,NA,NA,Closed,Closed,
0.3637695,-0.9018555,0.2880859,0.2758789,0.5922852,0.6733398,-5,-5,13,36,4,6,2,15,-23,-10,-19,0,18,89,31,-58,-30.8125,-30.8125,-30.8125,11.5,11.5,11.5,2.948802,4.387707,5.992916,6.201869,4.495569,3.391084,-0.06665225,-0.2683391,1.076321,0.2103319,-0.270578,1.080971,0.1003948,0.2805653,1.444519,-0.01302396,-0.2804184,1.093036,0.1604111,-0.2932676,1.097714,0.08217524,-0.1606357,1.428559,0.07920793,-0.4617902,1.395462,-0.08273127,0.02147004,1.404069,0.00881821,-0.4503592,1.359715,-0.1661376,-0.1682476,1.334218,0.321222,-0.184757,1.33293,NA,NA,Unknown,Unknown,
0.3085938,-0.8344727,0.2250977,0.1655273,0.4619141,0.6289063,-32,26,125,16,-10,-28,6,-27,-10,55,-5,14,13,-128,-34,41,-30.3125,-30.3125,-30.3125,29.6875,29.6875,29.6875,2.897968,4.553561,5.975541,6.220851,4.573203,3.40273,-0.06451445,-0.2231468,1.072023,0.2109559,-0.2380785,1.075523,0.1002849,0.2811183,1.4463,-0.01845393,-0.2541315,1.078273,0.1619969,-0.2675828,1.08819,0.08201565,-0.1599813,1.429648,0.07874063,-0.4608046,1.396798,-0.08119903,0.02381439,1.404495,0.00848153,-0.4493077,1.360859,-0.1835371,-0.1568961,1.336571,0.3021204,-0.1852729,1.317476,NA,NA,Unknown,Unknown,
0.2998047,-1.0625,0.3876953,0.4287109,0.9643555,0.7353516,-75,-73,42,31,-21,-30,-13,-112,16,-68,50,12,-11,127,62,88,-21.3125,-21.3125,-21.3125,-13.625,-13.625,-13.625,2.835706,4.580937,5.978049,6.262646,4.618202,3.408974,-0.06360723,-0.205753,1.068468,0.2071816,-0.21764,1.069261,0.1003355,0.2816587,1.448005,-0.0329899,-0.1795021,1.072167,0.166025,-0.2254457,1.101833,0.08191785,-0.1593078,1.430875,0.07834342,-0.4599288,1.398119,-0.08009821,0.0251782,1.404612,0.008110888,-0.4481763,1.362179,-0.1850669,-0.1511987,1.32791,0.3313459,-0.1681856,1.308326,NA,NA,Closed,Closed,
0.5336914,-0.784668,0.2915039,0.3222656,0.5893555,0.6547852,-90,-43,-61,-74,-55,-1,11,14,65,-53,-19,11,5,-128,31,126,-5.5625,-5.5625,-5.5625,17.4375,17.4375,17.4375,2.899149,4.575562,5.989915,6.238329,4.626052,3.416812,-0.06500631,-0.208325,1.064517,0.206455,-0.2131288,1.067058,0.1005195,0.2817459,1.449666,-0.02772669,-0.1952895,1.06152,0.1670607,-0.2138836,1.090999,0.08168757,-0.1589098,1.431911,0.07818521,-0.4594772,1.398738,-0.07904653,0.02613947,1.404253,0.007945585,-0.4475656,1.362908,-0.1874175,-0.1473749,1.325365,0.3343121,-0.1658918,1.308582,NA,NA,Closed,Closed,
0.2851563,-0.9194336,0.3085938,0.2319336,0.6665039,0.7016602,-9,-45,-12,-17,-20,-15,-27,115,-49,-52,28,6,-17,-55,30,8,0.4375,0.4375,0.4375,9.9375,9.9375,9.9375,2.895863,4.550376,5.985674,6.25636,4.629919,3.413072,-0.06560357,-0.2124994,1.066278,0.2061441,-0.2124135,1.066554,0.1008357,0.2820669,1.451269,-0.02814199,-0.1962715,1.064842,0.1683448,-0.2035646,1.085508,0.08162758,-0.1586779,1.432546,0.07813939,-0.4592692,1.399101,-0.07832353,0.02674782,1.404298,0.007914487,-0.4473014,1.363198,-0.1879921,-0.1450216,1.322959,0.3354333,-0.1645309,1.30855,NA,NA,Closed,Closed,
0.2573242,-0.8920898,0.2270508,0.1489258,0.7006836,0.6845703,112,-26,-56,-19,-9,-23,-55,29,63,66,14,24,-14,-70,30,9,10.3125,10.3125,10.3125,1.5,1.5,1.5,2.909822,4.537359,5.992937,6.265771,4.633681,3.416385,-0.06505273,-0.2173123,1.067852,0.2055456,-0.212743,1.067117,0.101131,0.2823248,1.45243,-0.02778124,-0.2008159,1.062823,0.1672461,-0.206917,1.084294,0.08165224,-0.1586597,1.432741,0.07816314,-0.4592773,1.399171,-0.07813118,0.02610923,1.404369,0.007924546,-0.447298,1.363211,-0.1914874,-0.1442711,1.325759,0.3009335,-0.1670974,1.287153,NA,NA,Closed,Closed,
0.262207,-0.9633789,0.269043,0.2167969,0.7036133,0.6992188,53,-30,0,-15,-22,-91,-35,-4,-106,-36,-36,-3,12,-31,20,-63,2.5625,2.5625,2.5625,0.5625,0.5625,0.5625,2.912771,4.519684,5.990701,6.268293,4.630533,3.413585,-0.06446667,-0.222179,1.069738,0.205686,-0.2145699,1.067442,0.1014426,0.2824352,1.453542,-0.02590995,-0.2035394,1.059847,0.1615462,-0.2276568,1.097,0.08171592,-0.1586409,1.433052,0.07817151,-0.459249,1.399291,-0.07761701,0.02643591,1.404087,0.007939989,-0.4472614,1.363312,-0.1920316,-0.1435604,1.326341,0.3326967,-0.1648274,1.307734,NA,NA,Closed,Closed,
0.2998047,-0.9951172,0.2480469,0.2148438,0.7260742,0.6923828,0,-34,17,22,4,-16,21,127,47,58,16,5,-4,31,-27,-81,-2.1875,-2.1875,-2.1875,1.125,1.125,1.125,2.92213,4.505596,5.991895,6.269391,4.632411,3.413396,-0.06264974,-0.2240843,1.070447,0.2052517,-0.2143492,1.066338,0.1016169,0.2824545,1.454056,-0.02693699,-0.2020714,1.069136,0.162384,-0.2228682,1.089805,0.08178291,-0.1586372,1.433242,0.07818609,-0.4592557,1.399325,-0.07720028,0.02608079,1.404045,0.007942646,-0.4472539,1.363345,-0.1924393,-0.1435045,1.32671,0.3111482,-0.1738542,1.307163,NA,NA,Closed,Closed,
0.3134766,-0.9921875,0.2485352,0.2353516,0.7226563,0.7026367,16,-46,-94,-8,3,38,-5,-12,-25,-24,13,-15,-31,87,-69,-20,1.0625,1.0625,1.0625,2.125,2.125,2.125,2.921024,4.502521,5.990729,6.271862,4.637747,3.416497,-0.06132275,-0.2245253,1.071641,0.2042498,-0.2135235,1.066847,0.1016935,0.2826064,1.454926,-0.02637297,-0.2026458,1.065304,0.1596448,-0.2270377,1.0861,0.08174172,-0.1585874,1.433559,0.07814224,-0.4592015,1.399515,-0.07681494,0.02640564,1.403904,0.007896726,-0.4471922,1.363591,-0.1919591,-0.1434249,1.32704,0.3009507,-0.167751,1.28973,NA,NA,Closed,Unknown,
0.3203125,-0.9707031,0.2602539,0.1811523,0.7182617,0.6860352,-46,-26,-8,-43,-49,-24,-84,21,-71,-20,-26,2,0,98,-21,-62,-1.1875,-1.1875,-1.1875,0.125,0.125,0.125,2.919463,4.512033,5.996144,6.269933,4.655553,3.421276,-0.06139487,-0.2216072,1.069064,0.2034352,-0.2115732,1.064835,0.1017743,0.2826525,1.455163,-0.02498605,-0.2026908,1.063702,0.1676729,-0.1935208,1.069462,0.0817548,-0.1585728,1.433687,0.07812463,-0.4591858,1.399651,-0.07650173,0.02663308,1.403793,0.007900584,-0.4471562,1.36386,-0.1917214,-0.1432923,1.327317,0.3002731,-0.1735848,1.299819,NA,NA,Closed,Unknown,
0.2373047,-0.9331055,0.2480469,0.1923828,0.6918945,0.6831055,40,64,42,24,0,-6,51,62,45,4,-20,-6,31,38,-16,70,0.75,0.75,0.75,0.5,0.5,0.5,2.906492,4.527219,6.002235,6.271282,4.662091,3.421545,-0.06301392,-0.2190939,1.067995,0.2021538,-0.2103228,1.065117,0.1017722,0.2826412,1.455169,-0.02481992,-0.2047655,1.064431,0.1590992,-0.222442,1.081563,0.08175085,-0.1585648,1.433741,0.07812809,-0.4591734,1.399715,-0.07620259,0.02677834,1.403576,0.007901948,-0.4471339,1.363911,-0.192461,-0.1422983,1.326721,0.3004664,-0.1742701,1.301764,NA,NA,Closed,Unknown,
0.2763672,-0.90625,0.2480469,0.2070313,0.6616211,0.675293,127,70,66,-19,-15,33,6,31,-6,4,-3,-8,-37,-128,-54,68,-7.9375,-7.9375,-7.9375,0.125,0.125,0.125,2.899491,4.533003,6.010424,6.269994,4.659652,3.418232,-0.06332447,-0.2168524,1.064096,0.2022304,-0.2103369,1.063918,0.1017973,0.2825248,1.455175,-0.02516836,-0.2013457,1.05831,0.1682997,-0.193046,1.074913,0.08178126,-0.1585937,1.433818,0.07811288,-0.4591803,1.399757,-0.07590481,0.02689666,1.403462,0.007894697,-0.4471298,1.363925,-0.1919686,-0.1418183,1.325258,0.3464053,-0.1726276,1.353314,NA,NA,Closed,Closed,
0.284668,-0.9008789,0.2573242,0.1796875,0.644043,0.6601563,-128,13,87,-13,-36,-89,14,-77,-5,-33,-30,-17,3,71,13,60,-2.4375,-2.4375,-2.4375,-3.75,-3.75,-3.75,2.892847,4.530937,6.012899,6.26551,4.646639,3.416677,-0.06407299,-0.2174597,1.063146,0.2017813,-0.2138219,1.065438,0.1018058,0.2824645,1.455177,-0.0287136,-0.1959123,1.05658,0.1586848,-0.2238584,1.093286,0.08180399,-0.158621,1.433837,0.07813146,-0.4591922,1.399777,-0.07569032,0.02699585,1.403178,0.007911343,-0.4471482,1.363934,-0.191325,-0.1411876,1.322801,0.3393959,-0.1629133,1.313053,NA,NA,Closed,Closed,
0.328125,-0.7431641,0.2143555,0.2182617,0.6079102,0.6459961,48,26,44,39,89,127,40,102,-14,-12,-2,-14,-3,94,-21,-29,9.0625,9.0625,9.0625,-6.4375,-6.4375,-6.4375,2.904423,4.492579,6.028761,6.258903,4.597879,3.415226,-0.06626526,-0.2274627,1.065669,0.2025305,-0.222075,1.067436,0.1018539,0.2824637,1.455208,-0.02730731,-0.2141268,1.059889,0.1582319,-0.233175,1.091333,0.08185982,-0.1586639,1.433816,0.07817519,-0.4592739,1.399775,-0.07544742,0.02652655,1.402861,0.007952556,-0.4472499,1.363932,-0.1922828,-0.1415027,1.324261,0.3060933,-0.1759062,1.308721,NA,NA,Closed,Closed,
0.3837891,-0.7612305,0.2700195,0.2978516,0.5610352,0.6225586,60,6,58,25,-14,36,12,12,13,-34,2,2,4,89,23,-8,5.25,5.25,5.25,-4.625,-4.625,-4.625,2.909802,4.399639,6.045809,6.241001,4.522496,3.40872,-0.07012989,-0.2513881,1.073418,0.202486,-0.23934,1.071228,0.1019443,0.2823792,1.455241,-0.03011877,-0.2366539,1.061937,0.157193,-0.2561704,1.0901,0.08190521,-0.1587266,1.43379,0.07832675,-0.4593817,1.399659,-0.07507271,0.02652995,1.402245,0.008114967,-0.4473772,1.363811,-0.1904498,-0.1422013,1.322812,0.3238303,-0.1711615,1.313063,NA,NA,Closed,Closed,
0.4887695,-0.8608398,0.2851563,0.3144531,0.6103516,0.6616211,-19,48,38,32,-11,-32,-62,-21,0,31,-17,-12,-17,-72,-57,45,10.25,10.25,10.25,-11.875,-11.875,-11.875,2.933218,4.237172,6.06307,6.226637,4.410423,3.40028,-0.07294805,-0.2817612,1.084492,0.2025177,-0.2661874,1.078568,0.1020907,0.2823142,1.455475,-0.03143016,-0.2692738,1.071063,0.1590827,-0.2776626,1.098636,0.08209069,-0.1590094,1.433593,0.07875933,-0.4598904,1.399159,-0.07485576,0.02559862,1.400972,0.008618344,-0.4480387,1.363322,-0.1806391,-0.1484306,1.319089,0.3243093,-0.1725077,1.314328,NA,NA,Closed,Closed,
0.4853516,-0.8330078,0.1704102,0.4052734,0.6650391,0.6464844,-19,11,44,-60,-46,2,16,-14,-72,-54,-24,28,-17,-128,-3,98,21,21,21,-8.125,-8.125,-8.125,2.938864,4.14051,6.08237,6.220978,4.210659,3.379605,-0.07643851,-0.3136114,1.099003,0.205739,-0.2994992,1.090196,0.1021613,0.2821763,1.455583,-0.03446703,-0.3050951,1.077809,0.1632721,-0.3140453,1.115889,0.08245637,-0.1594406,1.433297,0.07966022,-0.4608101,1.398142,-0.07457376,0.02432051,1.40022,0.009498362,-0.449227,1.362387,-0.1721237,-0.1545872,1.318597,0.3223884,-0.1767842,1.319731,NA,NA,Closed,Closed,
0.7084961,-0.8642578,0.1367188,0.6523438,0.7167969,0.6533203,-23,-9,71,24,28,-51,-43,-70,-16,-42,43,19,4,17,22,24,15.625,15.625,15.625,-1,-1,-1,2.916217,3.940945,6.134076,6.226711,4.055904,3.364649,-0.08006833,-0.346093,1.104361,0.208964,-0.3285747,1.103033,0.1021847,0.2819298,1.4557,-0.04350483,-0.3323829,1.079879,0.1713087,-0.3254154,1.096983,0.08261462,-0.1600737,1.432781,0.08003037,-0.4621781,1.396361,-0.07422126,0.02271051,1.399004,0.009648916,-0.4506981,1.360842,-0.136787,-0.1733526,1.323422,0.3191406,-0.1816248,1.32471,NA,NA,Closed,Closed,
0.5712891,-0.8837891,0.2001953,0.6884766,0.6191406,0.6035156,42,30,-13,-84,8,2,-7,13,66,-2,8,0,-11,-23,32,4,4.75,4.75,4.75,-13.5,-13.5,-13.5,2.912493,3.847203,6.153221,6.219412,3.960819,3.341395,-0.08359093,-0.3609153,1.114647,0.2126465,-0.3479112,1.114241,0.1021978,0.2815265,1.455784,-0.04690269,-0.3482254,1.088339,0.1822363,-0.3347744,1.07765,0.08257844,-0.1608643,1.432043,0.08016623,-0.4632829,1.394921,-0.07422781,0.02105069,1.397919,0.009579778,-0.4518743,1.359379,-0.1310599,-0.1780089,1.32656,0.3144768,-0.18592,1.328377,NA,NA,Closed,Unknown,
0.7070313,-0.8007813,0.2329102,0.637207,0.609375,0.6010742,15,-16,22,-1,-10,-22,14,-8,28,-1,3,-2,5,8,46,11,-2.125,-2.125,-2.125,-3.25,-3.25,-3.25,2.89675,3.795214,6.176806,6.226439,3.911283,3.32602,-0.08518756,-0.3667516,1.119047,0.2143703,-0.3595762,1.11904,0.1021573,0.2814236,1.455866,-0.04820042,-0.3546103,1.09161,0.1845354,-0.3440317,1.085692,0.0825882,-0.1612806,1.431752,0.08013953,-0.4640343,1.394241,-0.07447883,0.01998403,1.397476,0.009414281,-0.452679,1.35869,-0.1279497,-0.1817176,1.327526,0.3120521,-0.1887754,1.331257,NA,NA,Closed,Unknown,
0.7456055,-0.684082,0.1479492,0.6201172,0.5625,0.574707,5,4,-40,10,23,28,-14,1,-58,19,41,7,18,-79,-17,-66,1.875,1.875,1.875,-3.8125,-3.8125,-3.8125,2.894075,3.789213,6.18839,6.226317,3.913152,3.318807,-0.08569222,-0.3671038,1.117963,0.2152737,-0.3623582,1.117105,0.1020698,0.2812477,1.455938,-0.04845814,-0.3526571,1.090343,0.1830953,-0.349147,1.089327,0.08254525,-0.1616273,1.4314,0.08001939,-0.4643955,1.393695,-0.07469928,0.01923782,1.397148,0.009201779,-0.4531311,1.35817,-0.1270929,-0.1828257,1.327395,0.2758543,-0.2026624,1.345976,NA,NA,Closed,Unknown,
0.6611328,-0.7368164,0.1933594,0.5766602,0.5356445,0.5874023,-44,27,32,-16,25,-17,-14,0,10,-11,-11,8,26,77,-2,-60,5,5,5,0.9375,0.9375,0.9375,2.895432,3.796967,6.182275,6.224321,3.927322,3.317671,-0.08606191,-0.3655614,1.115585,0.2154824,-0.3606107,1.11559,0.1019735,0.2809198,1.456073,-0.04814032,-0.350161,1.089535,0.1770808,-0.371814,1.13755,0.08242105,-0.1620601,1.430976,0.07994132,-0.4647346,1.393251,-0.07484396,0.01884561,1.39677,0.009046627,-0.4534912,1.357747,-0.1265602,-0.1843728,1.328037,0.2754548,-0.2030345,1.34579,NA,NA,Closed,Unknown,
0.6855469,-0.6889648,0.1787109,0.5942383,0.5610352,0.5629883,-13,15,36,5,10,21,2,19,36,-58,36,17,22,-17,38,-20,3.125,3.125,3.125,1.625,1.625,1.625,2.891661,3.803191,6.186354,6.222926,3.942304,3.318777,-0.0874586,-0.3646632,1.114262,0.2152247,-0.3583969,1.114848,0.1019346,0.2807975,1.456085,-0.04838509,-0.3499194,1.08938,0.1841996,-0.3433707,1.089364,0.08239487,-0.1622923,1.430764,0.07992928,-0.4650041,1.392984,-0.07505765,0.01850184,1.396638,0.009000725,-0.4538208,1.357465,-0.1261999,-0.1847201,1.328014,0.2752145,-0.2034769,1.345966,NA,NA,Closed,Closed,
0.6860352,-0.7270508,0.2080078,0.6230469,0.5483398,0.5429688,7,9,52,-20,6,-13,-36,-39,53,7,1,10,-6,-60,-17,-31,-4.4375,-4.4375,-4.4375,2.6875,2.6875,2.6875,2.88636,3.798835,6.190492,6.228549,3.948108,3.312593,-0.08862421,-0.3653908,1.113955,0.215002,-0.3566166,1.113574,0.1018634,0.2807565,1.456078,-0.05081442,-0.3503134,1.088683,0.189152,-0.3364722,1.081,0.08243504,-0.1624789,1.430484,0.07991958,-0.4652366,1.392696,-0.07544255,0.01779105,1.396107,0.00895801,-0.4540734,1.357176,-0.1261688,-0.1850319,1.327736,0.2748308,-0.2038059,1.346201,NA,NA,Closed,Closed,
0.706543,-0.7084961,0.1879883,0.5869141,0.5556641,0.5678711,-7,-5,12,-41,14,84,-23,-80,-75,-39,53,-2,10,-12,21,7,-4.625,-4.625,-4.625,2.9375,2.9375,2.9375,2.88414,3.794569,6.197469,6.234567,3.952997,3.311168,-0.09056325,-0.3654146,1.113639,0.2154734,-0.3555152,1.112412,0.1017242,0.2806012,1.456064,-0.05342896,-0.3502535,1.086897,0.188997,-0.3364112,1.081099,0.08227293,-0.1626542,1.430311,0.07987075,-0.465417,1.392543,-0.07567886,0.01750683,1.395863,0.008885932,-0.4542553,1.356958,-0.1261024,-0.1857289,1.327679,0.274815,-0.204014,1.346522,NA,NA,Closed,Closed,
0.6982422,-0.6826172,0.1831055,0.6113281,0.5512695,0.565918,-19,8,20,-18,31,32,-34,9,15,47,5,0,-2,25,14,7,-2.9375,-2.9375,-2.9375,3.0625,3.0625,3.0625,2.884234,3.798065,6.203186,6.245893,3.95384,3.307208,-0.09166677,-0.3654837,1.113902,0.2166941,-0.3554378,1.112268,0.1015283,0.2805702,1.456067,-0.05244355,-0.3519768,1.090243,0.1868511,-0.3385037,1.085204,0.0822146,-0.1627253,1.430189,0.0798564,-0.4654698,1.392428,-0.07597604,0.01727982,1.39578,0.008849725,-0.4543148,1.35679,-0.1261283,-0.1858255,1.327516,0.2748258,-0.2041093,1.346541,NA,NA,Closed,Unknown,
0.6962891,-0.6987305,0.1816406,0.605957,0.546875,0.5561523,-17,17,47,22,-6,11,-6,-20,-33,-17,-13,-12,-3,-119,10,62,2.9375,2.9375,2.9375,-1,-1,-1,2.880231,3.798187,6.206401,6.247796,3.954362,3.301715,-0.09241448,-0.3657768,1.114209,0.217787,-0.3555823,1.112062,0.1014056,0.28059,1.456121,-0.07105321,-0.3445277,1.082525,0.1873714,-0.3400045,1.085367,0.08211912,-0.162768,1.430144,0.07977733,-0.4655533,1.392375,-0.07611327,0.01715271,1.395815,0.008748429,-0.4544074,1.35672,-0.1261313,-0.1861827,1.327754,0.2750444,-0.2041998,1.346739,NA,NA,Closed,Closed,
