ALX,ALY,ALZ,ARX,ARY,ARZ,EMG0L,EMG1L,EMG2L,EMG3L,EMG4L,EMG5L,EMG6L,EMG7L,EMG0R,EMG1R,EMG2R,EMG3R,EMG4R,EMG5R,EMG6R,EMG7R,GLX,GLY,GLZ,GRX,GRY,GRZ,ORL,OPL,OYL,ORR,OPR,OYR,LHNX,LHNY,LHNZ,RHNX,RHNY,RHNZ,HX,HY,HZ,LTX,LTY,LTZ,RTX,RTY,RTZ,SpineMidX,SpineMidY,SpineMidZ,SpineBaseX,SpineBaseY,SpineBaseZ,ShoulderLeftX,ShoulderLeftY,ShoulderLeftZ,ShoulderRightX,ShoulderRightY,ShoulderRightZ,ElbowLeftX,ElbowLeftY,ElbowLeftZ,ElbowRightX,ElbowRightY,ElbowRightZ,Myo_Pose_left,Myo_Pose_Right,Kinect_pose_left,Kinect_pose_right
0.9291992,-0.3364258,0.1181641,0.7529297,0.3505859,0.7368164,0,6,-1,0,-1,-1,-1,0,3,2,-4,-29,0,-14,1,3,-1.75,-1.75,-1.75,10.75,10.75,10.75,2.911577,3.083905,6.648552,5.786016,3.760123,3.143171,-0.1068519,-0.4825271,1.318235,0.207592,-0.4202903,1.231458,0.1226291,0.273809,1.43618,-0.07095085,-0.4692432,1.32475,0.2196062,-0.3880157,1.190387,0.09856626,-0.1670664,1.435404,0.09092806,-0.4715474,1.409969,-0.06413119,0.01577479,1.415316,0.01975104,-0.4589214,1.37551,-0.1001372,-0.2406063,1.405053,0.2949241,-0.2313178,1.404309,NA,NA,NotTracked,Unknown,
0.9428711,-0.3330078,0.1166992,0.5742188,0.4038086,0.8330078,-1,-2,-1,-2,-1,-1,-1,-2,0,4,-1,-42,9,-3,-14,8,-2.9375,-2.9375,-2.9375,2.1875,2.1875,2.1875,2.917036,3.081184,6.639946,5.714581,4.070769,3.26981,-0.1059588,-0.4818914,1.318141,0.1730024,-0.3546126,1.209262,0.1228034,0.2745328,1.437605,-0.06628325,-0.4839001,1.321867,0.1980616,-0.3433161,1.176686,0.09807901,-0.1668347,1.435549,0.08997503,-0.4713321,1.409965,-0.06408938,0.01580242,1.415313,0.01903125,-0.4586528,1.375599,-0.1000492,-0.2406053,1.404919,0.2951007,-0.2150608,1.402071,NA,NA,NotTracked,Unknown,
0.9287109,-0.3378906,0.1157227,0.2504883,0.387207,0.9316406,-6,-14,0,-1,0,-1,-2,-1,-8,-14,-3,34,13,7,-4,-9,-3.1875,-3.1875,-3.1875,13.1875,13.1875,13.1875,2.926432,3.08099,6.625638,5.663997,4.536512,3.445044,-0.1045185,-0.4822133,1.317194,0.146905,-0.2658058,1.202919,0.1232001,0.2749,1.438415,-0.07429391,-0.4744838,1.29175,0.1488418,-0.2366528,1.168993,0.09809693,-0.1666702,1.435621,0.09012073,-0.4710768,1.410043,-0.06407417,0.01584014,1.415343,0.01943275,-0.4584338,1.375866,-0.09951533,-0.2408275,1.404209,0.2987367,-0.206792,1.385389,NA,NA,NotTracked,Unknown,
0.9272461,-0.3515625,0.1108398,-0.0625,0.4433594,0.9482422,-1,-2,-1,-1,-1,2,0,0,11,40,-9,-10,-2,2,-4,11,-2.0625,-2.0625,-2.0625,21.875,21.875,21.875,2.934062,3.081802,6.612442,5.668474,4.90799,3.58983,-0.1035083,-0.4815931,1.317684,0.1125945,-0.1836169,1.209844,0.1239351,0.2757155,1.440332,-0.07118987,-0.4741203,1.294,0.1441653,-0.1955938,1.178383,0.09815693,-0.1660509,1.435909,0.09061348,-0.4697439,1.410351,-0.06390247,0.01583279,1.415389,0.02018046,-0.4573596,1.376357,-0.09899821,-0.2410432,1.40374,0.2999805,-0.2039469,1.359225,NA,NA,NotTracked,Unknown,
0.9379883,-0.3413086,0.1069336,-0.2055664,0.4052734,0.8398438,-3,-3,-1,-1,-1,-3,-1,-2,1,12,20,10,-11,1,-2,-19,-6.6875,-6.6875,-6.6875,37.875,37.875,37.875,2.938494,3.081777,6.601542,5.727479,5.256253,3.746866,-0.1017871,-0.4815483,1.317307,0.09243881,-0.1101347,1.224327,0.1250402,0.2764642,1.442436,-0.07058272,-0.4717386,1.297198,0.06404961,-0.1651259,1.268723,0.09859362,-0.1654061,1.436273,0.09135859,-0.4684013,1.410603,-0.06402761,0.01583765,1.414976,0.02116563,-0.4563091,1.376777,-0.09904884,-0.2412467,1.403716,0.3188702,-0.1983683,1.349249,NA,NA,NotTracked,Unknown,
0.940918,-0.3388672,0.1049805,-0.3476563,0.371582,0.8056641,-1,5,-1,-2,-1,-1,-1,1,14,1,-5,29,-7,13,14,23,-10.4375,-10.4375,-10.4375,32,32,32,2.931947,3.083102,6.585478,5.864919,5.627701,3.962676,-0.1011072,-0.4808069,1.316643,0.09520961,-0.04843435,1.231201,0.1263872,0.2767983,1.44408,-0.07023821,-0.4721101,1.292556,0.08436494,-0.0907361,1.267586,0.0988269,-0.165276,1.436614,0.0915959,-0.4683164,1.410748,-0.06416395,0.01581643,1.413927,0.02150754,-0.4563807,1.377239,-0.09841271,-0.2417312,1.403223,0.3005315,-0.1914805,1.31219,NA,NA,NotTracked,Unknown,
0.9350586,-0.3515625,0.1118164,-0.3422852,0.4140625,0.7246094,1,5,-1,-1,-2,-1,-1,-3,-48,-49,-9,-8,-2,0,-5,-14,-7.125,-7.125,-7.125,22.4375,22.4375,22.4375,2.922762,3.085632,6.579001,5.983338,5.799846,4.131374,-0.1007913,-0.481377,1.315735,0.09052879,-0.01504386,1.241501,0.1285205,0.2773694,1.446137,-0.06728088,-0.4738695,1.293919,0.0463681,-0.03267715,1.225722,0.09941837,-0.1651857,1.437181,0.092253,-0.468574,1.410936,-0.06293802,0.01589872,1.411367,0.02213452,-0.4568473,1.377762,-0.09812148,-0.2418175,1.403098,0.2805741,-0.1802095,1.2852,NA,NA,NotTracked,Unknown,
0.9233398,-0.3427734,0.1035156,-0.3510742,0.4140625,0.6933594,1,2,0,-1,0,0,-2,-1,19,-17,-11,-10,-10,1,10,32,-7.6875,-7.6875,-7.6875,12.5,12.5,12.5,2.916813,3.089015,6.572962,6.081586,5.8859,4.289832,-0.09938879,-0.479779,1.313303,0.04464234,0.01436908,1.276538,0.1303359,0.2776086,1.447599,-0.06825294,-0.4698567,1.288391,0.03936256,-0.03405588,1.303266,0.1002604,-0.1653704,1.437642,0.0928802,-0.4691374,1.411025,-0.06022383,0.01631397,1.407945,0.02257477,-0.4574646,1.37787,-0.09764349,-0.2416212,1.402325,0.2782196,-0.1759219,1.276119,NA,NA,NotTracked,Unknown,
0.9291992,-0.3452148,0.1010742,-0.5043945,0.4677734,0.6601563,1,-4,1,-1,-2,-1,-1,-1,0,4,-5,-4,27,2,2,11,-0.1875,-0.1875,-0.1875,-20.25,-20.25,-20.25,2.918091,3.095619,6.56763,6.134226,5.908594,4.448757,-0.09842604,-0.4798331,1.311849,0.1099756,-0.01169763,1.254747,0.1322528,0.2778467,1.448627,-0.06651946,-0.4718382,1.286758,0.1172291,-0.0568249,1.298813,0.1009584,-0.1653885,1.438177,0.09366941,-0.4696411,1.411167,-0.05735502,0.01663128,1.405155,0.02327389,-0.4581942,1.378112,-0.09712373,-0.241648,1.401497,0.2718522,-0.1726153,1.270278,NA,NA,NotTracked,Unknown,
0.9282227,-0.3364258,0.09619141,-0.4448242,0.5810547,0.652832,0,4,-2,-1,0,-1,-6,-2,-30,-14,-7,-20,-41,-24,-18,-12,2.125,2.125,2.125,-17.875,-17.875,-17.875,2.922643,3.102071,6.569976,6.152228,5.904696,4.53035,-0.09786463,-0.4787108,1.310472,0.1098468,-0.01592712,1.260602,0.1336525,0.2777903,1.44941,-0.0622726,-0.4631815,1.316414,0.1589902,-0.009933919,1.295012,0.1019376,-0.1655831,1.438506,0.0940825,-0.4699399,1.411144,-0.05598247,0.01669319,1.403819,0.02363527,-0.458629,1.378274,-0.09684258,-0.241273,1.400919,0.2662804,-0.170181,1.26586,NA,NA,NotTracked,Unknown,
0.9296875,-0.3369141,0.08789063,-0.5463867,0.6860352,0.5791016,1,3,-1,1,0,-1,-1,-1,-22,-14,2,-17,60,52,8,2,-2.5625,-2.5625,-2.5625,-23.375,-23.375,-23.375,2.917376,3.101454,6.573169,6.12821,5.88984,4.612186,-0.09764815,-0.4788007,1.309973,0.06972979,0.01320934,1.278552,0.1345098,0.2776242,1.450018,-0.06559859,-0.4697838,1.286515,0.09895393,0.03025361,1.285875,0.102369,-0.16572,1.438757,0.09461266,-0.4702518,1.411022,-0.05536808,0.01661646,1.403333,0.02411774,-0.4590116,1.378279,-0.09565733,-0.241301,1.399986,0.2621186,-0.1703673,1.265243,NA,NA,NotTracked,Unknown,
0.9233398,-0.3540039,0.09326172,-0.4741211,0.5585938,0.7490234,2,-4,-2,-1,-1,0,2,0,-35,-89,-21,-13,-21,-12,18,22,3.5625,3.5625,3.5625,-2.1875,-2.1875,-2.1875,2.911615,3.101832,6.579882,6.113803,5.870882,4.615707,-0.09834892,-0.4791462,1.310674,0.065811,0.009198604,1.283871,0.1351881,0.2773987,1.450243,-0.06658074,-0.4705055,1.286337,0.1144975,0.02048786,1.308,0.1025825,-0.1657889,1.438886,0.0948699,-0.4703633,1.410943,-0.05513422,0.01656833,1.403149,0.02435439,-0.4592088,1.378352,-0.09442805,-0.2413539,1.399213,0.258633,-0.1712211,1.265215,NA,NA,NotTracked,Unknown,
0.9213867,-0.3564453,0.1030273,-0.527832,0.5600586,0.6547852,1,3,-1,-1,1,-1,-2,-2,-26,9,0,-2,18,-12,-62,-2,-1.375,-1.375,-1.375,-11.6875,-11.6875,-11.6875,2.900757,3.097438,6.59642,6.114323,5.841253,4.648495,-0.09879995,-0.4801209,1.312647,0.06307553,0.008578001,1.288733,0.1356015,0.2771552,1.450393,-0.06772071,-0.4692497,1.289333,0.09899547,0.02803151,1.300671,0.10285,-0.1658669,1.439115,0.09506871,-0.4704685,1.410943,-0.05505809,0.01655957,1.403133,0.02455588,-0.4593679,1.378512,-0.09426648,-0.241352,1.399165,0.2547581,-0.1722907,1.265122,NA,NA,NotTracked,Unknown,
0.9272461,-0.3554688,0.1103516,-0.5473633,0.5375977,0.6821289,-3,-4,-2,-3,-2,-2,0,-1,-9,1,-2,-8,-8,-18,-38,-6,-0.5,-0.5,-0.5,-1.0625,-1.0625,-1.0625,2.880741,3.089782,6.616934,6.113198,5.830225,4.648347,-0.1000795,-0.4805589,1.314109,0.06311527,0.006040802,1.290646,0.1358634,0.27682,1.450526,-0.06733729,-0.4710446,1.292861,0.1149629,0.01699847,1.3134,0.1031706,-0.166004,1.439317,0.09514465,-0.4705243,1.410958,-0.0550536,0.01651654,1.403154,0.02467347,-0.4595351,1.378811,-0.09438299,-0.2413203,1.399233,0.2547496,-0.1733787,1.265532,NA,NA,NotTracked,Unknown,
0.9550781,-0.3378906,0.1010742,-0.5498047,0.5649414,0.690918,-4,-7,-1,-1,-2,-3,0,-3,12,-25,-3,-16,-12,16,0,-25,0,0,0,0.8125,0.8125,0.8125,2.87388,3.082947,6.627547,6.111708,5.830578,4.647727,-0.1006896,-0.4804002,1.315195,0.06287222,0.004272742,1.290899,0.1360201,0.2764682,1.450568,-0.06444751,-0.4684374,1.315467,0.1060874,0.02100099,1.3036,0.1033273,-0.1661087,1.439514,0.09524217,-0.4705836,1.410964,-0.05504316,0.01644967,1.403191,0.02475576,-0.4595939,1.378962,-0.09439497,-0.2413383,1.399421,0.2549662,-0.1741925,1.265991,NA,NA,NotTracked,Unknown,
0.9213867,-0.3422852,0.1020508,-0.5478516,0.5766602,0.668457,0,3,0,-3,0,-1,0,-2,43,39,8,6,12,5,-12,5,-3.75,-3.75,-3.75,1.8125,1.8125,1.8125,2.868617,3.07806,6.628153,6.112543,5.83553,4.645866,-0.100489,-0.4813264,1.316794,0.06259138,0.004210928,1.290585,0.1361726,0.2762891,1.450418,-0.06949323,-0.4701095,1.294067,0.09153678,0.03004865,1.306769,0.1034439,-0.166146,1.43958,0.0953103,-0.4705986,1.410961,-0.05501829,0.01641855,1.403188,0.02482322,-0.4596194,1.379062,-0.09456365,-0.2414713,1.399656,0.2550187,-0.1747266,1.266362,NA,NA,NotTracked,Unknown,
0.9291992,-0.3535156,0.09716797,-0.5253906,0.5727539,0.637207,3,9,0,-1,-1,-2,0,0,29,39,-15,-2,3,0,-9,-8,5.8125,5.8125,5.8125,3.1875,3.1875,3.1875,2.873514,3.078901,6.629292,6.103564,5.853036,4.615203,-0.1002256,-0.4814289,1.317303,0.06377523,0.004948762,1.28908,0.1362905,0.2759973,1.450315,-0.06839871,-0.4746852,1.295536,0.09592827,0.02745124,1.296131,0.1035856,-0.1662522,1.439736,0.09535575,-0.470664,1.411005,-0.05497476,0.01640396,1.403174,0.02486962,-0.4597131,1.379257,-0.09449714,-0.241608,1.399695,0.2547277,-0.1749841,1.266401,NA,NA,NotTracked,Unknown,
0.9521484,-0.3427734,0.1083984,-0.5556641,0.5634766,0.6977539,-2,0,-1,-2,-2,-1,-1,0,-2,-2,9,1,-5,-3,2,6,1.4375,1.4375,1.4375,0.75,0.75,0.75,2.885225,3.081075,6.625729,6.090529,5.879094,4.578014,-0.1005522,-0.4813161,1.317268,0.06304837,0.005937275,1.284359,0.1364295,0.2758466,1.450264,-0.06416072,-0.4681727,1.31829,0.09717111,0.02907241,1.30248,0.1036925,-0.1662959,1.439839,0.09545908,-0.4706806,1.411056,-0.05484053,0.0163834,1.403113,0.02495392,-0.4597305,1.379348,-0.09454368,-0.2416263,1.400002,0.2541743,-0.1749779,1.267175,NA,NA,NotTracked,Unknown,
0.918457,-0.3491211,0.1000977,-0.6367188,0.581543,0.6762695,1,-9,-2,-2,-2,-2,-2,-1,2,41,3,12,33,76,14,23,-4.125,-4.125,-4.125,-6.3125,-6.3125,-6.3125,2.886511,3.08358,6.619132,6.080412,5.893078,4.558987,-0.09910189,-0.4811994,1.316608,0.06193269,0.007933955,1.277794,0.1365471,0.2757196,1.450258,-0.06262746,-0.4682003,1.320129,0.04268296,0.0006646054,1.25302,0.1037877,-0.1663925,1.439943,0.09561862,-0.4708089,1.41114,-0.05441286,0.01627816,1.402768,0.02505924,-0.4598363,1.379396,-0.09474802,-0.2413156,1.400351,0.2528376,-0.1751821,1.268072,NA,NA,NotTracked,Unknown,
0.9375,-0.3662109,0.1088867,-0.5546875,0.5454102,0.690918,-3,-3,-2,-1,0,-1,-4,-4,27,20,12,8,2,7,-1,1,-4.4375,-4.4375,-4.4375,2.4375,2.4375,2.4375,2.881279,3.086386,6.616926,6.075668,5.907739,4.540845,-0.09919338,-0.480936,1.316612,0.06077312,0.01100842,1.271352,0.1368874,0.2754762,1.450223,-0.06491891,-0.4713484,1.301791,0.07374318,0.02170569,1.237187,0.103927,-0.1664557,1.440113,0.09587681,-0.4708602,1.411238,-0.05423115,0.01630747,1.402554,0.02529432,-0.4599202,1.379414,-0.09458968,-0.2413871,1.400323,0.2504464,-0.175256,1.269075,NA,NA,NotTracked,Unknown,
0.9316406,-0.3393555,0.09765625,-0.5302734,0.515625,0.6967773,-4,10,0,-1,-2,-2,-1,-2,3,4,-12,-8,-20,-41,4,24,-4.5625,-4.5625,-4.5625,4.5625,4.5625,4.5625,2.883149,3.091098,6.610811,6.079871,5.907328,4.551677,-0.09914933,-0.4806348,1.31535,0.05811831,0.01469826,1.271595,0.137249,0.2754021,1.450238,-0.06171045,-0.4679854,1.321913,0.07304531,0.02520713,1.238453,0.1040855,-0.1664773,1.440285,0.09603554,-0.4709355,1.411351,-0.05400453,0.01640217,1.402265,0.02540478,-0.4599679,1.379439,-0.09428718,-0.2412073,1.400265,0.2458416,-0.1736738,1.267712,NA,NA,NotTracked,Unknown,
0.9223633,-0.3461914,0.1025391,-0.527832,0.5117188,0.6879883,3,9,-1,-2,-3,-2,-3,-1,20,13,-2,-9,-22,57,-40,-23,0.25,0.25,0.25,-8.25,-8.25,-8.25,2.884074,3.093987,6.60726,6.087793,5.905695,4.588745,-0.09957391,-0.4795524,1.314613,0.05508928,0.01805075,1.275649,0.1373166,0.274933,1.450357,-0.06229775,-0.4654981,1.319009,0.09904359,0.03162028,1.311,0.1039285,-0.1665943,1.440278,0.09615128,-0.4709637,1.411439,-0.05379624,0.01638032,1.402032,0.02550728,-0.4599896,1.379543,-0.09382493,-0.2411448,1.399956,0.2418797,-0.1708978,1.264309,NA,NA,NotTracked,Unknown,
0.9345703,-0.3325195,0.08789063,-0.5649414,0.6303711,0.6958008,2,1,-1,-1,-2,0,-2,0,3,29,6,3,17,54,24,23,-2.3125,-2.3125,-2.3125,-8.0625,-8.0625,-8.0625,2.883099,3.092557,6.60697,6.104391,5.884968,4.633931,-0.09952521,-0.4799707,1.313458,0.04728033,0.00824311,1.288827,0.1377166,0.2747642,1.450197,-0.0624394,-0.4664733,1.318281,0.07431289,0.03842817,1.2888,0.1041045,-0.1666428,1.440326,0.09623703,-0.4709896,1.411462,-0.05360258,0.01633633,1.401851,0.02559878,-0.4600296,1.379629,-0.09356239,-0.241006,1.399675,0.2418637,-0.1700105,1.262995,NA,NA,NotTracked,Unknown,
0.9243164,-0.3510742,0.09521484,-0.5117188,0.5600586,0.6347656,-2,-2,-1,0,-1,0,-2,-1,6,33,2,1,-2,-55,24,12,-2.4375,-2.4375,-2.4375,1.5,1.5,1.5,2.873772,3.090532,6.610559,6.117456,5.863695,4.664268,-0.09956129,-0.4799072,1.313471,0.04766236,0.007541133,1.291365,0.1380433,0.2746951,1.449982,-0.06270537,-0.4660591,1.318611,0.08179966,0.03415967,1.290417,0.1044597,-0.166657,1.440374,0.09634975,-0.4710027,1.411422,-0.04512655,0.01604114,1.39936,0.0256892,-0.4600305,1.379661,-0.09339236,-0.2408988,1.399326,0.2417133,-0.1697156,1.262703,NA,NA,NotTracked,Unknown,
0.9379883,-0.3300781,0.09277344,-0.4995117,0.515625,0.652832,-6,-6,0,0,-1,-2,-1,-2,-17,28,3,1,-30,-6,6,30,-3.1875,-3.1875,-3.1875,-1.625,-1.625,-1.625,2.864388,3.086249,6.61867,6.134099,5.853847,4.6843,-0.09994299,-0.4805709,1.31372,0.04701412,0.006867618,1.292457,0.1381688,0.2745635,1.449833,-0.06339189,-0.4678333,1.31775,0.06015871,0.02205226,1.249395,0.1045735,-0.1666962,1.440393,0.09641889,-0.4710166,1.411433,-0.04738697,0.01606318,1.400005,0.02577117,-0.4600613,1.379753,-0.09345811,-0.2408682,1.399378,0.2403127,-0.1689501,1.261667,NA,NA,NotTracked,Unknown,
0.9345703,-0.3359375,0.08789063,-0.5195313,0.5415039,0.6577148,1,7,1,0,-1,-3,-13,-3,28,17,0,6,5,19,29,13,4.3125,4.3125,4.3125,-2.5625,-2.5625,-2.5625,2.858276,3.083779,6.627424,6.125556,5.85199,4.683091,-0.1004934,-0.4803844,1.314375,0.04731918,0.006562508,1.292576,0.138344,0.2745042,1.449686,-0.06309084,-0.4689556,1.314715,0.07864623,0.03527918,1.286375,0.1046416,-0.1666819,1.44038,0.09646511,-0.4709848,1.411414,-0.04858894,0.01606541,1.400265,0.02582749,-0.4600352,1.37982,-0.09366915,-0.2408294,1.399397,0.2405526,-0.16841,1.260876,NA,NA,NotTracked,Unknown,
0.9370117,-0.347168,0.08935547,-0.5063477,0.5703125,0.6796875,-3,-3,0,-1,1,-2,-2,-1,-52,-18,1,20,17,-25,-13,7,-0.5,-0.5,-0.5,-3.5625,-3.5625,-3.5625,2.854868,3.081019,6.630743,6.116465,5.850285,4.676231,-0.1009538,-0.4806944,1.31612,0.04682466,0.006116271,1.292759,0.138494,0.2743912,1.4495,-0.0667729,-0.4705013,1.29894,0.05880477,0.02208672,1.25084,0.1047186,-0.1667055,1.440351,0.09651569,-0.4709831,1.411383,-0.04932698,0.01601818,1.400411,0.02588666,-0.46004,1.379908,-0.0937388,-0.2407797,1.399373,0.2396728,-0.1684903,1.260947,NA,NA,NotTracked,Unknown,
0.9282227,-0.3510742,0.09814453,-0.5664063,0.5795898,0.6523438,0,-8,-1,0,-2,-1,-2,-2,1,-25,3,5,3,-20,76,21,1.4375,1.4375,1.4375,-2.3125,-2.3125,-2.3125,2.857193,3.08161,6.629567,6.112619,5.85461,4.670255,-0.1009851,-0.4807808,1.315221,0.04625387,0.006013021,1.291735,0.1386116,0.2741907,1.449199,-0.06683867,-0.4695099,1.29984,0.06248663,0.02108665,1.248189,0.1049152,-0.1667622,1.440287,0.09653197,-0.4709838,1.411328,-0.05013886,0.01599281,1.400552,0.02589532,-0.4600388,1.379921,-0.09385511,-0.2408656,1.399426,0.238539,-0.1677139,1.25995,NA,NA,NotTracked,Unknown,
0.9321289,-0.34375,0.09521484,-0.5253906,0.5273438,0.706543,-2,-10,-1,-1,-1,-1,0,-3,-57,11,-5,-9,-23,-11,-16,-10,-2.8125,-2.8125,-2.8125,1.5,1.5,1.5,2.857987,3.081004,6.628778,6.111994,5.854767,4.669518,-0.1000924,-0.4806169,1.315333,0.04657423,0.006423695,1.291428,0.1387008,0.2740536,1.448894,-0.06330559,-0.4694482,1.314993,0.07834564,0.03311646,1.286335,0.1049745,-0.166816,1.440189,0.09660624,-0.4710579,1.411211,-0.04498199,0.01572201,1.398648,0.02592733,-0.4600829,1.379889,-0.09320438,-0.2412145,1.39881,0.2386564,-0.1676451,1.259532,NA,NA,NotTracked,Unknown,
0.9321289,-0.3374023,0.09619141,-0.5336914,0.5561523,0.668457,0,1,-2,-1,-2,-2,-6,-3,-20,44,8,8,-27,15,-10,12,-4.5,-4.5,-4.5,-3.6875,-3.6875,-3.6875,2.855412,3.080708,6.626997,6.106562,5.85893,4.665876,-0.1004031,-0.4805548,1.314386,0.04638866,0.006193953,1.29072,0.1388865,0.2739753,1.44856,-0.0629797,-0.4681927,1.316207,0.07989983,0.03331453,1.288351,0.1051379,-0.166854,1.440033,0.09664842,-0.4710744,1.411103,-0.04307832,0.01544959,1.397526,0.02593815,-0.4600768,1.37987,-0.09343155,-0.241159,1.398786,0.2387106,-0.1675928,1.259419,NA,NA,NotTracked,Unknown,
0.9384766,-0.3349609,0.09228516,-0.5366211,0.578125,0.671875,-3,1,-2,-1,-2,-1,4,0,11,0,0,-1,-9,24,17,-4,0.875,0.875,0.875,0.6875,0.6875,0.6875,2.858584,3.082375,6.622757,6.100564,5.856015,4.660863,-0.09976273,-0.4800147,1.313394,0.04597756,0.005669374,1.289538,0.1389502,0.2739581,1.448091,-0.06724522,-0.470686,1.291782,0.07789017,0.035723,1.292828,0.105293,-0.1668204,1.439827,0.09671998,-0.4710346,1.410907,-0.04279345,0.01537196,1.396869,0.02597733,-0.4600382,1.379794,-0.09353919,-0.2410452,1.398733,0.2384032,-0.1674236,1.259262,NA,NA,NotTracked,Unknown,
0.9316406,-0.3383789,0.08935547,-0.5385742,0.5581055,0.6787109,1,1,-1,-1,0,-3,9,2,6,11,10,11,-6,-6,-10,6,-2.4375,-2.4375,-2.4375,0.125,0.125,0.125,2.858771,3.081401,6.620464,6.098481,5.859251,4.656882,-0.09952658,-0.4802297,1.313118,0.04584085,0.005368401,1.289153,0.1390584,0.273783,1.447412,-0.06317935,-0.4641916,1.320889,0.07710427,0.03416954,1.288847,0.1053421,-0.1668279,1.439623,0.09680697,-0.4710577,1.410704,-0.04241455,0.01520851,1.396055,0.02603362,-0.4600486,1.379703,-0.09311815,-0.241484,1.397846,0.2383049,-0.1677624,1.259685,NA,NA,NotTracked,Unknown,
0.9282227,-0.3393555,0.09179688,-0.5214844,0.519043,0.6938477,0,0,-3,-1,-3,0,4,-2,-11,-34,-10,-8,-9,-3,18,-11,1.875,1.875,1.875,-1.0625,-1.0625,-1.0625,2.860869,3.080746,6.617682,6.089075,5.866945,4.645129,-0.09971986,-0.4804236,1.312506,0.04566251,0.005312234,1.287609,0.1389958,0.2736731,1.446865,-0.06730077,-0.4695431,1.290228,0.07560018,0.03801923,1.3,0.1053695,-0.1668646,1.439392,0.09684056,-0.4711081,1.410497,-0.04237465,0.0151974,1.395608,0.02606161,-0.4600821,1.37954,-0.09340251,-0.2415314,1.397713,0.2382908,-0.1677744,1.259692,NA,NA,NotTracked,Unknown,
0.9331055,-0.3461914,0.09912109,-0.512207,0.5512695,0.6513672,1,2,-2,-1,-2,1,-3,0,-18,3,2,-2,1,-8,-21,-1,-1.9375,-1.9375,-1.9375,-0.9375,-0.9375,-0.9375,2.863639,3.080242,6.615211,6.073103,5.870508,4.626336,-0.09962028,-0.4801133,1.3127,0.04478512,0.004747494,1.287787,0.1389257,0.2735518,1.446475,-0.06203268,-0.4672445,1.318958,0.06054454,0.02093898,1.244174,0.1054287,-0.1670196,1.439086,0.09692713,-0.4712472,1.410287,-0.03984814,0.01513008,1.394194,0.02610519,-0.4601629,1.379463,-0.09351758,-0.2414838,1.39763,0.2365362,-0.1671764,1.259254,NA,NA,NotTracked,Unknown,
0.9375,-0.3359375,0.09472656,-0.4750977,0.5629883,0.6469727,-5,-4,-2,-2,-1,-1,-1,-2,-10,35,-13,-6,1,2,1,7,0.5625,0.5625,0.5625,-10.625,-10.625,-10.625,2.869413,3.079359,6.613719,6.041841,5.86662,4.592546,-0.09921161,-0.480045,1.312526,0.0436308,0.004564789,1.284362,0.138855,0.2734852,1.4458,-0.06289626,-0.4655187,1.318329,0.06848167,0.02397767,1.242534,0.1054028,-0.1669884,1.438894,0.0969428,-0.471231,1.410199,-0.04683923,0.01571435,1.396626,0.0261299,-0.4601681,1.379379,-0.09346858,-0.241602,1.397438,0.2350986,-0.1669134,1.259231,NA,NA,NotTracked,Unknown,
0.9335938,-0.3398438,0.09863281,-0.5141602,0.4882813,0.7060547,0,-5,0,-2,0,-1,9,0,8,10,11,8,9,5,4,8,8.5625,8.5625,8.5625,-19.0625,-19.0625,-19.0625,2.883097,3.082865,6.607966,5.979483,5.83819,4.520368,-0.09989281,-0.4801055,1.313082,0.04244195,0.002534981,1.280875,0.1383594,0.2730434,1.445282,-0.0674768,-0.4690357,1.292102,0.06700941,0.01680514,1.234366,0.1047601,-0.166999,1.438479,0.0969822,-0.4711618,1.410042,-0.04838695,0.01562161,1.396892,0.02619545,-0.4601208,1.379203,-0.09377362,-0.2415518,1.397396,0.2343836,-0.1678703,1.26084,NA,NA,NotTracked,Unknown,
0.9326172,-0.347168,0.1083984,-0.3789063,0.4897461,0.7231445,0,2,-2,-2,-2,-3,-11,-3,6,-5,-5,-1,0,11,-2,1,-3.5625,-3.5625,-3.5625,3.3125,3.3125,3.3125,2.890442,3.08459,6.603546,5.93091,5.772091,4.438518,-0.09990682,-0.4795633,1.311608,0.03536423,-0.001312624,1.270943,0.1380876,0.2730591,1.444826,-0.06892069,-0.4696555,1.288507,0.06099156,0.03208916,1.290118,0.1046527,-0.1670929,1.438007,0.09689769,-0.471234,1.409695,-0.04995159,0.01535962,1.397039,0.0261292,-0.4602033,1.378811,-0.09376899,-0.241565,1.397,0.2337144,-0.1695242,1.263285,NA,NA,NotTracked,Unknown,
0.9365234,-0.3417969,0.08935547,-0.328125,0.4321289,0.6977539,-1,5,-2,-1,-4,0,-1,-1,3,3,-1,-3,-3,1,-1,-10,4.5625,4.5625,4.5625,-4.5625,-4.5625,-4.5625,2.895245,3.087006,6.602648,5.889303,5.659664,4.354782,-0.1000538,-0.4796832,1.311321,0.02726174,-0.01736258,1.259854,0.1377608,0.2729303,1.444524,-0.06241535,-0.4676511,1.317583,0.0424576,0.02121229,1.293444,0.1045519,-0.167225,1.437746,0.09685065,-0.4712887,1.409524,-0.05231757,0.01481411,1.397538,0.026112,-0.460289,1.378668,-0.09400599,-0.2417916,1.396694,0.235578,-0.1726522,1.267265,NA,NA,NotTracked,Unknown,
0.9291992,-0.3520508,0.1030273,-0.2880859,0.434082,0.8056641,-1,-3,-1,-1,-1,0,-1,-1,13,15,-4,1,-2,-10,1,12,3.1875,3.1875,3.1875,4.5,4.5,4.5,2.899405,3.09011,6.601377,5.864357,5.495779,4.259087,-0.1004439,-0.4795104,1.310364,0.02630771,-0.04993788,1.245252,0.137215,0.2729221,1.444392,-0.06928953,-0.4685992,1.286187,0.0508881,-0.01536172,1.2783,0.1043836,-0.1672379,1.437505,0.09658023,-0.4711283,1.409272,-0.05678136,0.0154016,1.400163,0.02597682,-0.4601892,1.378582,-0.09385429,-0.2420136,1.396341,0.2443943,-0.1788379,1.274673,NA,NA,NotTracked,Unknown,
0.9375,-0.3432617,0.09765625,-0.2104492,0.3735352,0.9116211,0,0,-3,-1,-1,-3,1,-1,8,7,2,1,9,-2,0,0,3.625,3.625,3.625,-12,-12,-12,2.906021,3.091221,6.602214,5.820168,5.212627,4.152285,-0.1010536,-0.4790311,1.309548,0.01842241,-0.0903037,1.233598,0.136301,0.2729717,1.443954,-0.06872796,-0.4701343,1.288776,0.02403086,-0.1116365,1.198949,0.1041013,-0.1671433,1.437089,0.09622151,-0.4707916,1.408927,-0.05984244,0.01547382,1.402586,0.02579273,-0.4598567,1.378326,-0.09439495,-0.2427625,1.396016,0.2535654,-0.18377,1.281307,NA,NA,NotTracked,Unknown,
0.9306641,-0.3422852,0.1098633,0.008300781,0.4633789,0.8989258,0,-4,-1,-1,-2,-1,-3,-2,13,-7,1,8,-1,3,0,0,0.875,0.875,0.875,-7.25,-7.25,-7.25,2.908453,3.09134,6.603903,5.808279,4.975474,4.077554,-0.1016832,-0.4789172,1.309686,0.0202855,-0.1501205,1.222632,0.1353763,0.2731642,1.443656,-0.06525087,-0.46719,1.3174,0.0256984,-0.1741871,1.191372,0.1036759,-0.166767,1.43663,0.09562962,-0.4699452,1.408334,-0.06069677,0.01576944,1.404594,0.02535637,-0.4587405,1.377433,-0.09517148,-0.2436942,1.39551,0.2555442,-0.1886488,1.289309,NA,NA,NotTracked,Unknown,
0.9262695,-0.3325195,0.1015625,0.1821289,0.4116211,0.7695313,-3,-3,0,1,-1,-1,-2,1,17,24,0,-5,1,-1,-3,-1,6.8125,6.8125,6.8125,-8.6875,-8.6875,-8.6875,2.91501,3.092423,6.607077,5.801795,4.689578,3.994467,-0.102754,-0.4792533,1.308936,0.02953798,-0.2252556,1.218977,0.1340202,0.2733942,1.443255,-0.06518634,-0.4703055,1.316879,0.040128,-0.2491671,1.184224,0.1032281,-0.1664129,1.436124,0.09499109,-0.4691662,1.407793,-0.06118866,0.01578494,1.40578,0.02487481,-0.4578482,1.376868,-0.09518883,-0.2438566,1.395031,0.262299,-0.195954,1.304819,NA,NA,NotTracked,Unknown,
0.9443359,-0.3515625,0.1137695,0.3027344,0.4663086,0.7446289,0,4,0,-2,0,-1,-1,-2,11,-1,4,4,0,-2,-2,-2,7.75,7.75,7.75,0.3125,0.3125,0.3125,2.923488,3.093504,6.610985,5.837502,4.259587,3.881583,-0.1034969,-0.4821412,1.308538,0.01842755,-0.3346747,1.233759,0.1325243,0.2737037,1.443017,-0.06238727,-0.4908773,1.308,0.02990695,-0.3402902,1.184702,0.1026324,-0.1665659,1.435596,0.09429914,-0.469594,1.407281,-0.06115452,0.01558393,1.40678,0.02444161,-0.4582659,1.376131,-0.09580051,-0.2434431,1.395309,0.207622,-0.2279084,1.290813,NA,NA,NotTracked,Unknown,
0.9189453,-0.3383789,0.1108398,0.4921875,0.5234375,0.7089844,-2,-5,-2,-1,-1,-2,1,0,22,7,2,-3,1,1,1,-3,-0.1875,-0.1875,-0.1875,-29.875,-29.875,-29.875,2.932187,3.093074,6.608818,5.842738,3.91155,3.801225,-0.103278,-0.4826923,1.30943,0.0936695,-0.3897588,1.224279,0.1311178,0.2740052,1.442625,-0.06320678,-0.488375,1.307462,0.1164033,-0.4191818,1.200359,0.1019867,-0.1669116,1.435214,0.09352753,-0.4705077,1.40712,-0.06130617,0.01547503,1.407473,0.02393025,-0.4588484,1.375651,-0.09588481,-0.2433894,1.39531,0.223762,-0.2456804,1.302183,NA,NA,NotTracked,NotTracked,
0.940918,-0.3505859,0.1049805,0.9614258,0.5952148,0.4438477,-2,-2,-1,-1,0,0,-1,0,8,-27,-3,-2,5,0,2,-2,2.375,2.375,2.375,-41.375,-41.375,-41.375,2.933245,3.091754,6.610901,5.910074,3.469343,3.611487,-0.1033234,-0.4820514,1.308743,0.1439725,-0.4328788,1.238907,0.1294374,0.2745425,1.441702,-0.07226025,-0.4729407,1.287414,0.1940767,-0.4679819,1.256964,0.1009365,-0.1669374,1.434193,0.0918372,-0.4708428,1.406247,-0.06162826,0.0154455,1.408005,0.02150057,-0.4587564,1.374186,-0.09562885,-0.2434246,1.394896,0.276855,-0.2152066,1.359516,NA,NA,NotTracked,Unknown,
