ALX,ALY,ALZ,ARX,ARY,ARZ,EMG0L,EMG1L,EMG2L,EMG3L,EMG4L,EMG5L,EMG6L,EMG7L,EMG0R,EMG1R,EMG2R,EMG3R,EMG4R,EMG5R,EMG6R,EMG7R,GLX,GLY,GLZ,GRX,GRY,GRZ,ORL,OPL,OYL,ORR,OPR,OYR,LHNX,LHNY,LHNZ,RHNX,RHNY,RHNZ,HX,HY,HZ,LTX,LTY,LTZ,RTX,RTY,RTZ,SpineMidX,SpineMidY,SpineMidZ,SpineBaseX,SpineBaseY,SpineBaseZ,ShoulderLeftX,ShoulderLeftY,ShoulderLeftZ,ShoulderRightX,ShoulderRightY,ShoulderRightZ,ElbowLeftX,ElbowLeftY,ElbowLeftZ,ElbowRightX,ElbowRightY,ElbowRightZ,Myo_Pose_left,Myo_Pose_Right,Kinect_pose_left,Kinect_pose_right
0.9404297,-0.3486328,0.1044922,0.9321289,0.203125,0.2260742,-2,-5,-3,-2,-2,-4,-23,-2,6,17,4,1,0,4,1,-3,-0.0625,-0.0625,-0.0625,8.625,8.625,8.625,2.914774,3.081153,6.208352,6.237771,2.9815,2.20703,-0.1249249,-0.4817253,1.329379,0.2629055,-0.4982696,1.313818,0.0936897,0.2730968,1.444656,-0.1615015,-0.4727644,1.327804,0.2932708,-0.4900045,1.301431,0.07725567,-0.1677852,1.444079,0.07400996,-0.4720915,1.419882,-0.08917154,0.01352677,1.4233,0.003411103,-0.4607018,1.385426,-0.1232945,-0.2402249,1.412485,0.2690692,-0.2486898,1.41148,NA,NA,NotTracked,NotTracked,
0.9287109,-0.3359375,0.09863281,0.9560547,0.1557617,0.2011719,3,-3,-1,0,0,1,12,1,-18,-21,-3,0,9,5,-9,-5,-3.4375,-3.4375,-3.4375,-0.4375,-0.4375,-0.4375,2.911974,3.081334,6.209294,6.260298,2.989777,2.198825,-0.1240425,-0.4818318,1.330842,0.2621217,-0.4985155,1.315619,0.09398439,0.2729843,1.444675,-0.1597507,-0.4641567,1.329127,0.3003039,-0.4810219,1.323889,0.07755454,-0.1678836,1.443964,0.07413762,-0.4721038,1.41978,-0.08902021,0.01350601,1.423319,0.003544552,-0.4607111,1.385296,-0.1230039,-0.2403173,1.412568,0.2693127,-0.2488955,1.411212,NA,NA,NotTracked,NotTracked,
0.9282227,-0.3232422,0.1235352,0.9384766,0.1860352,0.1826172,0,-2,-2,-2,0,-2,6,0,-2,-27,-2,0,-3,-1,6,2,-0.6875,-0.6875,-0.6875,15.875,15.875,15.875,2.903027,3.08731,6.204632,6.272123,2.986573,2.200347,-0.1224715,-0.4811689,1.332498,0.2590306,-0.5132827,1.316535,0.09432871,0.2730214,1.444877,-0.1598473,-0.4711073,1.331221,0.2913735,-0.5030761,1.31328,0.07759365,-0.167907,1.443903,0.07420662,-0.4721143,1.419659,-0.08880042,0.01346339,1.423392,0.003613339,-0.4607001,1.385152,-0.1227744,-0.2404296,1.412567,0.26958,-0.2490888,1.410705,NA,NA,NotTracked,NotTracked,
0.9521484,-0.3598633,0.09228516,0.9492188,0.246582,0.2114258,2,10,0,-1,-2,-1,0,0,-3,-3,-5,-1,-2,1,15,-2,3.1875,3.1875,3.1875,-7.875,-7.875,-7.875,2.908953,3.08594,6.204272,6.274031,2.989226,2.199455,-0.1227552,-0.4819934,1.335236,0.2580515,-0.5116875,1.318893,0.09462439,0.2730594,1.445203,-0.1592532,-0.4641345,1.335975,0.2936073,-0.4914368,1.318514,0.07765661,-0.1679519,1.443898,0.07423715,-0.4721428,1.419609,-0.08869161,0.0134438,1.423607,0.003639665,-0.4607263,1.385132,-0.1225646,-0.240949,1.412778,0.2695793,-0.2491956,1.4106,NA,NA,NotTracked,NotTracked,
0.9194336,-0.3549805,0.09912109,1.01416,0.1870117,0.2749023,1,3,-1,-2,0,-2,3,-1,0,-3,-4,0,-10,-1,-3,0,7.375,7.375,7.375,18.9375,18.9375,18.9375,2.926448,3.085313,6.196941,6.168812,3.020108,2.319027,-0.1220866,-0.4828662,1.335595,0.257201,-0.5009743,1.31757,0.09469812,0.2730936,1.445572,-0.1593408,-0.4693152,1.339111,0.2900897,-0.4982355,1.314597,0.07764677,-0.1679585,1.443889,0.07422776,-0.4721087,1.419418,-0.08861896,0.01344228,1.423852,0.00363241,-0.4607091,1.384947,-0.122356,-0.2416772,1.413035,0.2696642,-0.2492522,1.41044,NA,NA,NotTracked,NotTracked,
0.9208984,-0.3344727,0.09179688,1.018066,0.3178711,0.4121094,-2,-5,-3,-2,-1,0,1,0,-1,0,-2,-8,0,-4,-2,-2,9.0625,9.0625,9.0625,52.25,52.25,52.25,2.929829,3.082046,6.203507,6.05736,3.119301,2.516955,-0.1228776,-0.4832438,1.334411,0.2522416,-0.4910984,1.307548,0.09480826,0.2734526,1.446691,-0.1598933,-0.4772741,1.337917,0.2866092,-0.4911939,1.310472,0.07765619,-0.1679611,1.443881,0.07410912,-0.4720393,1.419191,-0.08856173,0.01343083,1.424236,0.003491881,-0.4606094,1.384638,-0.1224082,-0.241763,1.413545,0.2697369,-0.2490269,1.41056,NA,NA,NotTracked,NotTracked,
0.9228516,-0.3852539,0.1166992,1.028809,0.2421875,0.5712891,0,3,-1,-1,-2,-2,0,-1,1,0,-1,13,-22,-4,-5,-17,1.75,1.75,1.75,78.1875,78.1875,78.1875,2.919699,3.084515,6.219646,5.933836,3.304613,2.776368,-0.1257885,-0.483529,1.334288,0.2359795,-0.4732778,1.283462,0.09495367,0.2740011,1.44789,-0.1620938,-0.4697113,1.336473,0.2691956,-0.4889701,1.290875,0.07758544,-0.167878,1.443873,0.07304297,-0.4716676,1.418736,-0.08856955,0.01340005,1.424543,0.002317965,-0.4601146,1.38423,-0.1225654,-0.2416504,1.413983,0.2697339,-0.2470951,1.410606,NA,NA,NotTracked,Unknown,
0.9145508,-0.3349609,0.1176758,0.8120117,0.4614258,0.7392578,-2,8,0,-1,3,-1,0,1,-8,0,12,-18,16,-16,24,-13,-3.5,-3.5,-3.5,67.1875,67.1875,67.1875,2.910348,3.085011,6.23166,5.856842,3.719258,3.098115,-0.1274257,-0.483314,1.333801,0.1940838,-0.438464,1.250336,0.09539935,0.2747133,1.449617,-0.1598097,-0.4743103,1.326761,0.2238131,-0.4511004,1.255571,0.07677903,-0.1675909,1.443806,0.06951328,-0.4710798,1.417664,-0.08861746,0.01341782,1.424822,-0.001364407,-0.4589983,1.383373,-0.1228356,-0.2412391,1.414256,0.2702058,-0.2365431,1.40949,NA,NA,NotTracked,Unknown,
0.9511719,-0.3369141,0.128418,0.5395508,0.4462891,0.8271484,2,4,-1,-1,-1,-2,-2,-1,-1,-1,-16,31,2,4,-6,-4,-9.125,-9.125,-9.125,26.75,26.75,26.75,2.891639,3.083585,6.22766,5.788233,4.117244,3.304043,-0.1293597,-0.4838183,1.333448,0.1295979,-0.3691446,1.237726,0.09612212,0.2756022,1.451695,-0.1625536,-0.4717178,1.326379,0.1432973,-0.3942707,1.207586,0.0765928,-0.1674983,1.443899,0.06890823,-0.4711087,1.41757,-0.08860418,0.01342941,1.425011,-0.001822795,-0.4589064,1.383413,-0.1232923,-0.240786,1.414526,0.2711535,-0.212796,1.402077,NA,NA,NotTracked,Unknown,
0.9379883,-0.3388672,0.1225586,0.2197266,0.4179688,0.8950195,-2,7,-1,0,-2,-1,-2,-1,1,5,-18,82,-8,1,0,0,-9.625,-9.625,-9.625,30,30,30,2.899208,3.086084,6.204797,5.744679,4.554613,3.50954,-0.1281626,-0.483688,1.331527,0.08855209,-0.2597915,1.229865,0.09753931,0.276549,1.454473,-0.1630431,-0.4759681,1.329363,0.1385781,-0.2537206,1.201702,0.07674419,-0.1672452,1.444413,0.06936613,-0.470919,1.418003,-0.08850966,0.0135261,1.425151,-0.0007545029,-0.4587587,1.384114,-0.1235867,-0.2393326,1.414353,0.2716778,-0.2064973,1.376726,NA,NA,NotTracked,Unknown,
0.9379883,-0.3496094,0.1147461,-0.001464844,0.4145508,0.8974609,0,-1,-1,-2,-1,-1,-1,-2,8,-5,10,-28,20,6,9,10,-7.625,-7.625,-7.625,29,29,29,2.913576,3.093502,6.174928,5.770447,4.984026,3.705242,-0.1264424,-0.4823825,1.327414,0.04280354,-0.1646391,1.236757,0.09940623,0.2771498,1.456375,-0.1556638,-0.5060455,1.3015,0.03698124,-0.1187364,1.266952,0.07700303,-0.1663732,1.44519,0.06994779,-0.469569,1.418609,-0.08816019,0.01368376,1.425194,0.0001341773,-0.4575445,1.384877,-0.1227847,-0.2396975,1.413009,0.2672157,-0.2002886,1.346774,NA,NA,NotTracked,Unknown,
0.9287109,-0.3525391,0.09667969,-0.2275391,0.4257813,0.8398438,0,-2,-2,0,-3,-1,-4,-1,-1,-2,4,-6,-11,1,4,7,-6.0625,-6.0625,-6.0625,44,44,44,2.929636,3.105843,6.14101,5.896119,5.462573,3.96813,-0.1233543,-0.4805738,1.324198,0.01612182,-0.0792129,1.257322,0.1020533,0.2775141,1.458586,-0.1610956,-0.4654474,1.332269,0.03909282,-0.05798011,1.219777,0.07740944,-0.1660938,1.445578,0.07060704,-0.4691382,1.418773,-0.083492,0.01410108,1.420752,0.0009539202,-0.4572454,1.385384,-0.1227343,-0.2397408,1.412209,0.2593845,-0.1917075,1.320578,NA,NA,NotTracked,Unknown,
0.9277344,-0.3481445,0.08740234,-0.2939453,0.4306641,0.7148438,-3,6,0,0,0,-2,-1,-1,4,30,-2,8,45,0,3,36,-8.75,-8.75,-8.75,28.4375,28.4375,28.4375,2.927294,3.114655,6.129694,6.01616,5.700536,4.151894,-0.1221935,-0.4798555,1.321986,0.05490171,-0.04008666,1.261948,0.1049541,0.2776786,1.460809,-0.1557366,-0.4620802,1.320682,0.07271565,-0.001977831,1.276182,0.07807471,-0.1660103,1.446318,0.07116127,-0.4691485,1.41903,-0.07956433,0.014861,1.416802,0.001543408,-0.4575107,1.386089,-0.1223944,-0.2394514,1.411196,0.2519767,-0.1823199,1.300826,NA,NA,NotTracked,Closed,
0.9291992,-0.371582,0.09228516,-0.3886719,0.4208984,0.6743164,-1,5,-1,-1,-3,0,0,1,15,46,2,0,-22,-22,-9,-11,-2.75,-2.75,-2.75,25.9375,25.9375,25.9375,2.915281,3.125247,6.131621,6.157696,5.845225,4.350818,-0.1212884,-0.4814223,1.318615,0.06625615,-0.02197349,1.263807,0.1082558,0.2780952,1.462846,-0.1573812,-0.4826527,1.325087,0.06860401,-0.005675931,1.227508,0.0788385,-0.1659323,1.447193,0.07171961,-0.4694852,1.419185,-0.07559768,0.01533825,1.412943,0.002031122,-0.4580511,1.38646,-0.1221457,-0.2389946,1.410386,0.239706,-0.1711011,1.282469,NA,NA,NotTracked,Unknown,
0.9121094,-0.3447266,0.08496094,-0.4365234,0.4794922,0.6401367,1,5,0,-1,-1,-3,-2,-2,2,-3,-6,-4,-1,0,-15,-55,-0.5,-0.5,-0.5,4.9375,4.9375,4.9375,2.905894,3.131663,6.141767,6.218679,5.8732,4.449631,-0.1214134,-0.4803656,1.316834,0.03700586,-0.002209957,1.28581,0.1107334,0.2792989,1.46419,-0.1580908,-0.4597042,1.313369,0.06275381,0.01074195,1.235929,0.07940166,-0.165784,1.447675,0.07234737,-0.4698628,1.419462,-0.07252749,0.01606384,1.410492,0.002474975,-0.458544,1.386776,-0.121671,-0.238162,1.409667,0.2307668,-0.1632908,1.271514,NA,NA,NotTracked,Unknown,
0.9165039,-0.3662109,0.09863281,-0.4858398,0.5498047,0.6171875,-3,-3,-3,-1,0,-1,-1,-2,6,-36,-13,-19,-14,-2,17,29,-2.0625,-2.0625,-2.0625,0,0,0,2.884325,3.134218,6.162151,6.253402,5.884296,4.517484,-0.1224758,-0.4804342,1.316366,0.02434844,0.02057241,1.280604,0.1121868,0.2786731,1.464989,-0.1594155,-0.4697639,1.322078,0.01494853,0.01371671,1.248741,0.08021266,-0.1659878,1.448469,0.07280818,-0.4702152,1.419548,-0.07080069,0.01651282,1.409234,0.002824591,-0.4589503,1.386966,-0.1212306,-0.2373943,1.408906,0.2212183,-0.1554378,1.261845,NA,NA,NotTracked,Unknown,
0.9223633,-0.3579102,0.1010742,-0.4575195,0.6743164,0.6396484,-3,-8,-3,-4,0,-1,-1,-1,16,24,2,4,-35,-78,33,27,2.5625,2.5625,2.5625,-24.25,-24.25,-24.25,2.867798,3.132104,6.182225,6.271509,5.866885,4.597641,-0.124404,-0.4812697,1.318533,0.01659806,0.02446176,1.290213,0.1133335,0.2782483,1.465518,-0.1538798,-0.4724214,1.310078,0.01234561,0.0157994,1.252409,0.08069709,-0.166102,1.449084,0.07301778,-0.470436,1.419603,-0.07004254,0.01660117,1.408756,0.002990632,-0.4592331,1.387224,-0.1211792,-0.2371682,1.408822,0.2126272,-0.1501978,1.256667,NA,NA,NotTracked,Unknown,
0.9282227,-0.3710938,0.09521484,-0.5024414,0.6894531,0.6992188,2,5,0,0,-1,0,1,0,-8,32,-42,-48,104,46,-73,9,5.5625,5.5625,5.5625,4.25,4.25,4.25,2.847541,3.12432,6.208376,6.289258,5.82611,4.654183,-0.1249305,-0.4819995,1.320265,0.02773691,-5.798802E-05,1.299597,0.1141562,0.2784064,1.46556,-0.1581513,-0.4691438,1.316896,0.04412862,0.02424934,1.259432,0.08101808,-0.1660789,1.449298,0.07324961,-0.4705417,1.419654,-0.06937015,0.01658355,1.408483,0.003195825,-0.4594674,1.387448,-0.1211853,-0.2369552,1.408761,0.2071072,-0.1492256,1.256477,NA,NA,NotTracked,Unknown,
0.8867188,-0.3613281,0.08789063,-0.3574219,0.6176758,0.5864258,-5,-4,-1,-2,0,-2,-3,-1,-3,-44,-18,-38,-112,-41,-20,3,1.375,1.375,1.375,1.4375,1.4375,1.4375,2.843207,3.120334,6.220094,6.305711,5.74821,4.692478,-0.1254824,-0.4819994,1.322606,0.02993424,-0.002569676,1.302516,0.11472,0.2788419,1.465246,-0.161742,-0.4679429,1.319913,0.009174205,0.01074437,1.2656,0.08136062,-0.1660715,1.449298,0.07351269,-0.4706752,1.41966,-0.06874476,0.01638664,1.408294,0.003390988,-0.4596449,1.387652,-0.1211746,-0.2368124,1.408767,0.2054387,-0.1490657,1.256362,NA,NA,NotTracked,Unknown,
0.9511719,-0.3745117,0.1230469,-0.5092773,0.5131836,0.597168,-1,-16,-5,0,-1,0,0,0,18,-17,0,16,72,67,8,31,5.375,5.375,5.375,-11.0625,-11.0625,-11.0625,2.830697,3.113578,6.243236,6.292218,5.744448,4.689118,-0.1254755,-0.4829173,1.324958,0.03076675,-0.003714706,1.303588,0.1147784,0.2775396,1.465383,-0.1578709,-0.4715263,1.317875,0.0370602,0.02401655,1.265757,0.08190169,-0.1661686,1.449981,0.07366075,-0.4706449,1.419705,-0.068456,0.01632679,1.408428,0.00355621,-0.4595936,1.388015,-0.12118,-0.2367012,1.408993,0.2049322,-0.1496066,1.256588,NA,NA,NotTracked,Unknown,
0.9609375,-0.3740234,0.09667969,-0.4599609,0.6547852,0.6723633,2,-2,-3,-1,-2,0,-2,-1,19,24,5,-7,-30,-41,-11,-19,6.375,6.375,6.375,-18.75,-18.75,-18.75,2.835939,3.106344,6.248255,6.240399,5.756149,4.665383,-0.1255622,-0.4816822,1.328202,0.03016059,-0.003974144,1.303686,0.1147185,0.2768227,1.465468,-0.1594247,-0.4682877,1.323628,0.0140968,0.005988257,1.26487,0.08217173,-0.166203,1.450553,0.07373666,-0.4706016,1.41979,-0.06829305,0.01623258,1.40861,0.003607207,-0.4595294,1.388501,-0.121088,-0.2371519,1.409334,0.204374,-0.15049,1.257302,NA,NA,NotTracked,Unknown,
0.9101563,-0.3681641,0.1000977,-0.5073242,0.6572266,0.6674805,1,-5,-2,-2,-2,-2,0,0,-13,7,-10,-4,-18,-20,-6,-20,2,2,2,-13.9375,-13.9375,-13.9375,2.853832,3.103944,6.236597,6.201467,5.772603,4.633515,-0.1241218,-0.4809562,1.328113,0.02737212,-0.004242578,1.304105,0.1146868,0.2763236,1.465376,-0.1594847,-0.4714938,1.323061,0.0424751,0.01836183,1.26663,0.08239456,-0.1662936,1.450809,0.07383783,-0.4705844,1.419834,-0.06821872,0.01612819,1.408724,0.003699509,-0.4595059,1.388732,-0.1207237,-0.2376187,1.410068,0.2030042,-0.1555782,1.26323,NA,NA,NotTracked,Unknown,
0.9365234,-0.3676758,0.09033203,-0.5981445,0.6738281,0.6420898,-2,0,-1,-2,-2,0,6,-2,-6,29,3,-4,-4,0,-12,-17,7.5,7.5,7.5,0.5,0.5,0.5,2.874125,3.106164,6.231767,6.187706,5.809233,4.604503,-0.1230691,-0.4824623,1.329422,0.02613395,-0.004017382,1.303821,0.1148592,0.2770292,1.464961,-0.157718,-0.4696039,1.324338,0.04269995,0.02082787,1.264368,0.08247449,-0.1662726,1.450836,0.07397022,-0.4706741,1.419978,-0.06805455,0.01603507,1.408812,0.003810525,-0.4596222,1.389135,-0.1203422,-0.2381673,1.410759,0.202626,-0.1587673,1.266145,NA,NA,NotTracked,Unknown,
0.9150391,-0.3647461,0.09472656,-0.5175781,0.5917969,0.6821289,6,4,-2,-2,0,0,-2,0,0,2,-2,4,-14,-23,1,-16,-3.25,-3.25,-3.25,7.3125,7.3125,7.3125,2.874902,3.105862,6.229254,6.184577,5.845669,4.565608,-0.1222029,-0.4820514,1.330247,0.02356028,-0.00183447,1.302335,0.1152241,0.2787012,1.464145,-0.1582252,-0.489697,1.334154,0.00709695,0.008316712,1.263241,0.08240789,-0.165968,1.450394,0.07414819,-0.4707492,1.420056,-0.06786527,0.01593564,1.408784,0.003941759,-0.4597093,1.38923,-0.1199177,-0.2385936,1.411305,0.2014934,-0.1589575,1.266738,NA,NA,NotTracked,Unknown,
0.9248047,-0.3852539,0.09716797,-0.5039063,0.5097656,0.6518555,-1,-7,-1,-1,-1,-2,-4,-1,3,-11,-16,-5,1,0,-1,14,-1.5,-1.5,-1.5,0.1875,0.1875,0.1875,2.874555,3.110937,6.226995,6.167995,5.876082,4.555305,-0.1219001,-0.4817651,1.328986,0.02332491,0.0006783223,1.300915,0.115339,0.2786673,1.464024,-0.1558993,-0.470682,1.326935,0.006238859,0.01249703,1.260323,0.0823562,-0.1657562,1.450127,0.07431931,-0.4708342,1.420129,-0.06767371,0.01592204,1.408689,0.004061989,-0.4598061,1.389327,-0.1197944,-0.238548,1.411493,0.200322,-0.1583525,1.26643,NA,NA,NotTracked,Unknown,
0.9331055,-0.3457031,0.09375,-0.487793,0.5063477,0.706543,-5,-6,-4,-2,-1,0,-1,-2,18,23,-2,-1,-3,-4,14,-20,1.625,1.625,1.625,-4.75,-4.75,-4.75,2.878552,3.114694,6.225791,6.163383,5.889082,4.553408,-0.121803,-0.4815858,1.327868,0.02202307,0.002162216,1.299834,0.1154283,0.2786082,1.464066,-0.1555023,-0.4655021,1.326108,0.07342356,0.02071371,1.327046,0.08248105,-0.1657342,1.450525,0.07443066,-0.4708473,1.420269,-0.06744528,0.0159372,1.408541,0.004134618,-0.4598199,1.38948,-0.1194983,-0.2385488,1.411562,0.1980515,-0.1570408,1.265441,NA,NA,NotTracked,Unknown,
0.9116211,-0.3725586,0.09667969,-0.5957031,0.6186523,0.6591797,0,1,-1,0,-3,-1,-4,-3,-6,23,-4,-20,-60,-72,-13,-37,-1.125,-1.125,-1.125,0.3125,0.3125,0.3125,2.872951,3.120312,6.22485,6.185553,5.890121,4.587931,-0.122383,-0.4812436,1.326525,0.02508018,0.002242865,1.298254,0.1154985,0.2785865,1.464062,-0.1593077,-0.4756648,1.331048,0.01042919,-0.03727227,1.321069,0.08240393,-0.1655233,1.450289,0.07455648,-0.4708942,1.420411,-0.06727673,0.01595447,1.408456,0.004217292,-0.4598641,1.389629,-0.1194423,-0.2382778,1.411643,0.1949282,-0.1555661,1.264469,NA,NA,NotTracked,Unknown,
0.9272461,-0.3427734,0.08496094,-0.5327148,0.6103516,0.6508789,-2,1,-3,-3,-2,-1,-1,1,-12,-44,20,-25,9,-94,-58,-4,-2.8125,-2.8125,-2.8125,7.125,7.125,7.125,2.872556,3.11983,6.22766,6.206151,5.854122,4.636821,-0.1219802,-0.4811994,1.325194,0.02721475,-0.0007749067,1.300049,0.1156698,0.2784811,1.464117,-0.1563998,-0.4680173,1.323166,0.0103291,-0.03743172,1.32115,0.08256085,-0.165679,1.450484,0.0746162,-0.4710058,1.420487,-0.06721362,0.01595283,1.408447,0.00426162,-0.4600686,1.389865,-0.1192995,-0.2383281,1.411601,0.1929353,-0.1552492,1.263921,NA,NA,NotTracked,Unknown,
0.9287109,-0.3408203,0.1054688,-0.3325195,0.5791016,0.6513672,0,3,-1,-1,0,-1,5,0,-12,22,-2,52,-31,-63,-34,-1,-2.125,-2.125,-2.125,10.9375,10.9375,10.9375,2.860687,3.11535,6.235802,6.243126,5.783245,4.688155,-0.1227704,-0.4819789,1.326941,0.0301364,-0.003355589,1.302177,0.1157455,0.2783607,1.464105,-0.1565712,-0.4703076,1.323921,0.06587385,0.01689429,1.318517,0.08247018,-0.1654981,1.450312,0.07468921,-0.4710042,1.420655,-0.06714453,0.01590128,1.408518,0.004327296,-0.4600657,1.390151,-0.1192408,-0.2385605,1.411714,0.1926906,-0.155297,1.263671,NA,NA,NotTracked,Unknown,
0.9204102,-0.3378906,0.1025391,-0.4931641,0.5268555,0.6391602,-2,-6,4,0,-1,0,4,0,1,15,109,67,74,75,39,5,3.9375,3.9375,3.9375,-8.8125,-8.8125,-8.8125,2.855192,3.108519,6.244558,6.229296,5.739667,4.700304,-0.1234681,-0.4818303,1.327528,0.03176943,-0.004338631,1.302582,0.1157739,0.2782683,1.464015,-0.1577616,-0.4698506,1.324152,0.06788561,0.01442704,1.321015,0.08260504,-0.1654697,1.450448,0.07475659,-0.4709029,1.420684,-0.0671112,0.01587959,1.408637,0.004384214,-0.4599168,1.390281,-0.1192161,-0.2385318,1.411747,0.1924471,-0.1550954,1.263519,NA,NA,NotTracked,Unknown,
0.934082,-0.3657227,0.1181641,-0.5410156,0.7348633,0.6313477,1,-3,3,-3,-2,-2,-3,-1,-48,-40,-15,-28,-35,-31,10,-3,-1,-1,-1,-3.8125,-3.8125,-3.8125,2.854958,3.099854,6.243284,6.218126,5.748436,4.679601,-0.1227397,-0.4819745,1.328913,0.03193682,-0.005587466,1.30188,0.115706,0.2773442,1.464077,-0.1593652,-0.4676802,1.329028,0.06647077,0.01520426,1.321804,0.08275232,-0.165603,1.450718,0.07477875,-0.4708532,1.420656,-0.06713227,0.01586002,1.408714,0.004380492,-0.4598402,1.39039,-0.1192123,-0.2384388,1.411814,0.1925895,-0.1553819,1.263416,NA,NA,NotTracked,Unknown,
0.9555664,-0.3613281,0.1030273,-0.4941406,0.6557617,0.65625,-2,1,-1,-2,0,-1,2,0,-5,-12,-10,3,-12,19,11,-17,-2.0625,-2.0625,-2.0625,-1.5625,-1.5625,-1.5625,2.866049,3.09273,6.234644,6.218554,5.769866,4.674769,-0.1214716,-0.4818584,1.330694,0.02133736,-0.00615199,1.310561,0.1158902,0.2778487,1.463589,-0.1586349,-0.4681944,1.321179,0.0534283,0.02584762,1.326857,0.08271433,-0.1654976,1.450563,0.07478523,-0.4708418,1.420651,-0.06715341,0.01585269,1.408816,0.004374274,-0.4598233,1.390426,-0.1190791,-0.2386692,1.411846,0.1932099,-0.1571076,1.264954,NA,NA,NotTracked,NotTracked,
0.9086914,-0.3662109,0.08740234,-0.4731445,0.6176758,0.6337891,1,3,16,-2,-1,-2,-3,-1,10,1,3,-2,-15,-16,-16,5,-0.25,-0.25,-0.25,-1.4375,-1.4375,-1.4375,2.874055,3.095382,6.223077,6.211189,5.768341,4.669812,-0.1212278,-0.4817875,1.329673,0.0186477,-0.0065234,1.309505,0.1159584,0.2777952,1.463387,-0.1585173,-0.4581686,1.334167,-0.0007935158,-0.041752,1.323936,0.08246721,-0.1651716,1.450029,0.07479028,-0.4708033,1.420601,-0.06715401,0.01582566,1.408843,0.004363812,-0.4597929,1.390425,-0.1187494,-0.2389458,1.411889,0.1933581,-0.1573728,1.265064,NA,NA,NotTracked,NotTracked,
0.9404297,-0.3720703,0.1005859,-0.4824219,0.6132813,0.6450195,1,6,0,-2,0,-1,-1,-2,12,19,4,3,24,9,14,29,3.8125,3.8125,3.8125,-13.0625,-13.0625,-13.0625,2.876034,3.101782,6.223392,6.184617,5.775744,4.647355,-0.1209728,-0.4818083,1.328806,0.01820196,-0.005416547,1.30972,0.116025,0.2776491,1.46321,-0.1584451,-0.4659923,1.334006,0.05541091,0.02332054,1.330238,0.08255157,-0.1652494,1.450099,0.07479669,-0.4707928,1.420603,-0.06714963,0.01579265,1.408871,0.00435222,-0.4597686,1.390508,-0.1185737,-0.2391578,1.41176,0.1939013,-0.1579784,1.265544,NA,NA,NotTracked,NotTracked,
0.9331055,-0.3461914,0.09521484,-0.546875,0.5561523,0.7431641,-6,0,-3,0,-2,-2,0,-1,-1,4,6,-1,-20,-121,-5,-2,2.9375,2.9375,2.9375,-5.75,-5.75,-5.75,2.882669,3.107092,6.22679,6.134898,5.802401,4.587643,-0.1205133,-0.4808165,1.326354,0.01611984,-0.005590896,1.308589,0.1160626,0.2775545,1.463008,-0.1569182,-0.4656452,1.327526,0.06290792,0.0183398,1.3328,0.08248963,-0.1652202,1.449876,0.07481592,-0.4707743,1.420525,-0.06714687,0.01577727,1.408869,0.004362535,-0.4597757,1.390478,-0.1184909,-0.2392184,1.411642,0.1943127,-0.1589435,1.266382,NA,NA,NotTracked,Unknown,
0.9267578,-0.3657227,0.1054688,-0.4921875,0.5854492,0.6723633,1,-1,-1,-1,0,-1,0,-4,1,0,0,0,0,-7,0,-7,-0.1875,-0.1875,-0.1875,-7.8125,-7.8125,-7.8125,2.88102,3.113822,6.229959,6.1062,5.82326,4.545417,-0.1219284,-0.4807231,1.325,0.01240428,-0.002753212,1.306974,0.1160719,0.2775497,1.462916,-0.1555199,-0.4678696,1.323259,0.05349803,0.02736359,1.3284,0.0825415,-0.1652503,1.449822,0.07485725,-0.4707588,1.420503,-0.06714335,0.01576408,1.408858,0.004386414,-0.4597821,1.390469,-0.1184043,-0.2392696,1.411409,0.1936173,-0.1592395,1.267066,NA,NA,NotTracked,Unknown,
0.9262695,-0.3569336,0.1015625,-0.4526367,0.5263672,0.6738281,1,-1,-2,-1,3,0,-1,1,-6,-1,0,2,0,-8,-1,10,3.75,3.75,3.75,-3.9375,-3.9375,-3.9375,2.877753,3.122051,6.236654,6.071414,5.820649,4.50171,-0.1218847,-0.4792632,1.321357,0.01588179,-0.00211521,1.297591,0.1160611,0.2775443,1.462903,-0.1507298,-0.4735311,1.311132,0.002080893,-0.04250392,1.321139,0.08247501,-0.1651019,1.449477,0.07495174,-0.4707953,1.420487,-0.06699203,0.01565167,1.408527,0.004458718,-0.4598326,1.390465,-0.1184048,-0.2391186,1.411011,0.1927856,-0.1590625,1.26728,NA,NA,NotTracked,Unknown,
0.9296875,-0.3774414,0.105957,-0.3881836,0.4863281,0.6860352,-2,0,-2,-2,-2,0,-1,-2,20,9,0,1,3,3,4,8,2.375,2.375,2.375,-3.875,-3.875,-3.875,2.882753,3.131168,6.236719,6.04253,5.768032,4.455767,-0.1232606,-0.4823206,1.319032,0.01587405,-0.003774157,1.288018,0.116039,0.2775451,1.462913,-0.1582316,-0.469357,1.322463,0.008796955,-0.04440941,1.318349,0.08232978,-0.1649573,1.449187,0.07496089,-0.4708018,1.420482,-0.06707226,0.01557556,1.408389,0.004467454,-0.4598477,1.390465,-0.1183897,-0.2390178,1.410811,0.1923521,-0.1594627,1.268,NA,NA,NotTracked,Unknown,
0.9189453,-0.34375,0.1044922,-0.3847656,0.515625,0.6918945,-1,-2,-1,-2,1,0,-5,-2,2,-3,1,1,0,-3,-6,-1,3.125,3.125,3.125,7,7,7,2.902949,3.142956,6.230103,6.020473,5.679245,4.400511,-0.124328,-0.4812092,1.316733,-0.01652046,0.001278138,1.291865,0.1159278,0.2776134,1.463016,-0.1497202,-0.4709862,1.301231,0.02122744,0.02996963,1.328833,0.0824201,-0.165277,1.449545,0.07496221,-0.4707733,1.420492,-0.06788004,0.01551927,1.408504,0.004481067,-0.459801,1.390522,-0.1184035,-0.2387384,1.410229,0.1935168,-0.1602339,1.268534,NA,NA,NotTracked,Closed,
0.9194336,-0.3662109,0.105957,-0.3168945,0.4477539,0.7695313,-6,-10,-1,0,-3,-2,-2,-1,1,-5,2,-1,-1,3,-1,-2,10.75,10.75,10.75,-12.3125,-12.3125,-12.3125,2.914535,3.152694,6.231668,5.959462,5.480984,4.300933,-0.1249682,-0.4799791,1.313899,-0.02358724,-0.0200709,1.279591,0.1155298,0.2777306,1.463174,-0.1550018,-0.4738236,1.300072,0.008419245,0.008677736,1.322,0.08222866,-0.1651506,1.449413,0.07484734,-0.4707026,1.420474,-0.06964421,0.01584763,1.409406,0.004388076,-0.4597268,1.39065,-0.1186021,-0.2388413,1.409623,0.1993917,-0.1650003,1.272913,NA,NA,NotTracked,Unknown,
0.9165039,-0.3725586,0.1230469,-0.1035156,0.5048828,0.7558594,-2,-1,0,-1,-1,-2,-1,0,15,8,0,1,0,-4,-1,-17,4.75,4.75,4.75,-14.375,-14.375,-14.375,2.925599,3.158595,6.235836,5.917731,5.281678,4.192308,-0.1254876,-0.4796646,1.312286,-0.02903051,-0.05768469,1.26542,0.1145947,0.2777355,1.463567,-0.1492652,-0.4773863,1.293067,-0.003552444,-0.02978443,1.312585,0.08221219,-0.1652342,1.449549,0.07463483,-0.47043,1.420433,-0.07250576,0.01658733,1.412184,0.004315691,-0.459516,1.390671,-0.1187121,-0.2406027,1.407933,0.2086439,-0.1716151,1.279854,NA,NA,NotTracked,Unknown,
0.921875,-0.3623047,0.1098633,-0.08251953,0.4707031,0.8237305,-2,-2,-1,0,-2,-1,0,-2,-1,-10,-4,-9,-3,-5,-3,5,5.5,5.5,5.5,-3.8125,-3.8125,-3.8125,2.929205,3.157283,6.239679,5.8804,4.964345,4.039466,-0.1262291,-0.4801222,1.313966,-0.03289926,-0.1138162,1.244151,0.1133602,0.2773514,1.464333,-0.1588573,-0.4685034,1.299054,-0.009906057,-0.08564165,1.296611,0.08218706,-0.165251,1.449805,0.0744991,-0.4700473,1.420428,-0.07725329,0.01714738,1.42221,0.004355467,-0.45907,1.390686,-0.120272,-0.2472168,1.404537,0.2130845,-0.1775272,1.28645,NA,NA,NotTracked,Unknown,
0.9150391,-0.3745117,0.1176758,0.1201172,0.5722656,0.8754883,-3,-4,0,-2,-2,-2,-3,-2,-8,-30,-1,22,4,0,-1,-3,2.5625,2.5625,2.5625,-22.125,-22.125,-22.125,2.929323,3.149455,6.246119,5.892459,4.692859,3.906482,-0.1272872,-0.481575,1.317355,0.0008791563,-0.1983419,1.217618,0.1120012,0.2774137,1.465099,-0.1534064,-0.4751808,1.300619,-0.004478818,-0.1564275,1.254682,0.08210605,-0.1651579,1.449965,0.07396799,-0.4691217,1.420337,-0.0782379,0.01690218,1.425752,0.00410336,-0.4580783,1.390786,-0.1215462,-0.2465833,1.403831,0.2252968,-0.1863118,1.300377,NA,NA,Unknown,Unknown,
0.9116211,-0.3613281,0.1162109,0.3886719,0.5415039,0.7788086,3,-7,-1,-1,-3,-3,-1,-1,1,-2,-1,2,-1,2,-3,-1,-1.5,-1.5,-1.5,-8.625,-8.625,-8.625,2.929114,3.140307,6.250153,5.889553,4.404133,3.775509,-0.1276138,-0.4816199,1.318509,0.02129033,-0.2668858,1.200465,0.1102906,0.2775861,1.46531,-0.1609743,-0.5059239,1.321,0.008932851,-0.2420818,1.170279,0.08206599,-0.1651471,1.449999,0.07374582,-0.4689602,1.420182,-0.07931969,0.01686044,1.42736,0.004061796,-0.4578513,1.39051,-0.1220074,-0.2439626,1.405118,0.2288626,-0.1939332,1.310692,NA,NA,NotTracked,Unknown,
0.9174805,-0.3837891,0.1118164,0.6557617,0.3994141,0.7563477,0,-2,-2,-2,-2,-3,-1,-1,-2,3,-2,-4,-2,-2,-1,0,5,5,5,-35.0625,-35.0625,-35.0625,2.925187,3.133602,6.257962,5.899397,4.040095,3.5911,-0.1282504,-0.4831527,1.321663,0.05187897,-0.3293541,1.197381,0.10893,0.2777301,1.465405,-0.1627404,-0.4793035,1.321875,0.00976412,-0.3338618,1.2415,0.08181135,-0.1653577,1.450158,0.07338975,-0.4694005,1.420368,-0.07998977,0.01666953,1.428284,0.004000999,-0.4581201,1.39045,-0.1219831,-0.2418002,1.40761,0.2444053,-0.2021842,1.309941,NA,NA,NotTracked,Unknown,
