ALX,ALY,ALZ,ARX,ARY,ARZ,EMG0L,EMG1L,EMG2L,EMG3L,EMG4L,EMG5L,EMG6L,EMG7L,EMG0R,EMG1R,EMG2R,EMG3R,EMG4R,EMG5R,EMG6R,EMG7R,GLX,GLY,GLZ,GRX,GRY,GRZ,ORL,OPL,OYL,ORR,OPR,OYR,LHNX,LHNY,LHNZ,RHNX,RHNY,RHNZ,HX,HY,HZ,LTX,LTY,LTZ,RTX,RTY,RTZ,SpineMidX,SpineMidY,SpineMidZ,SpineBaseX,SpineBaseY,SpineBaseZ,ShoulderLeftX,ShoulderLeftY,ShoulderLeftZ,ShoulderRightX,ShoulderRightY,ShoulderRightZ,ElbowLeftX,ElbowLeftY,ElbowLeftZ,ElbowRightX,ElbowRightY,ElbowRightZ,Myo_Pose_left,Myo_Pose_Right,Kinect_pose_left,Kinect_pose_right
0.9321289,-0.3374023,0.1000977,0.9433594,0.2060547,0.190918,3,1,-2,-2,-2,-1,-2,3,0,0,-2,2,-2,0,3,3,-9.1875,-9.1875,-9.1875,1.375,1.375,1.375,2.923378,3.062803,0.6561387,6.27615,2.97135,9.056108,-0.1130011,-0.4827198,1.286268,0.2705041,-0.497573,1.268299,0.1093518,0.2740219,1.397168,-0.07789423,-0.4761678,1.263793,0.3092763,-0.483716,1.272535,0.0904234,-0.1678654,1.396523,0.08783823,-0.4737331,1.369642,-0.07552776,0.01477304,1.375971,0.01679369,-0.463124,1.334829,-0.1139301,-0.2390388,1.370288,0.2805704,-0.2517798,1.359643,NA,NA,NotTracked,NotTracked,
0.9516602,-0.3364258,0.09423828,0.9360352,0.1962891,0.1899414,0,-2,-2,-2,-2,-1,-1,0,-2,-1,1,-3,0,-2,-1,-1,-2.375,-2.375,-2.375,3.25,3.25,3.25,2.922572,3.063738,0.6505297,6.274744,2.967308,9.059959,-0.1128392,-0.4825356,1.285918,0.2703661,-0.4972562,1.2704,0.109492,0.2740046,1.39729,-0.07652768,-0.4755154,1.263091,0.3102941,-0.483135,1.277717,0.0905479,-0.1678922,1.396549,0.08794574,-0.4737608,1.369638,-0.07547174,0.01474617,1.376284,0.01689062,-0.4631392,1.33484,-0.1137462,-0.2390672,1.37031,0.2806664,-0.2518744,1.359733,NA,NA,NotTracked,NotTracked,
0.9262695,-0.331543,0.09375,0.9360352,0.1914063,0.1982422,0,3,-2,0,-1,0,-2,0,-2,0,-2,0,-2,-1,0,-4,-3.625,-3.625,-3.625,-0.25,-0.25,-0.25,2.926699,3.065571,0.6407047,6.277168,2.966916,9.059827,-0.1114851,-0.4822634,1.285062,0.2698967,-0.496896,1.270249,0.1096195,0.2739306,1.397373,-0.07594946,-0.4772821,1.259549,0.3092733,-0.4965175,1.271929,0.09064556,-0.16793,1.396557,0.08796798,-0.4737687,1.369635,-0.07520562,0.01470309,1.376247,0.01691449,-0.4631521,1.334839,-0.1133933,-0.2392473,1.370235,0.2807609,-0.2519061,1.359856,NA,NA,NotTracked,NotTracked,
0.9492188,-0.3261719,0.09082031,0.9365234,0.1962891,0.1733398,0,3,1,-1,-1,-3,-2,-1,0,1,-1,-1,-3,0,2,-1,-1.625,-1.625,-1.625,-1.625,-1.625,-1.625,2.929931,3.0679,0.6315983,6.279329,2.96568,9.057528,-0.1107498,-0.4826559,1.285591,0.2705768,-0.4977097,1.271693,0.1097681,0.2739661,1.397528,-0.07589415,-0.4758167,1.26255,0.3096463,-0.4817038,1.277873,0.09065722,-0.1679309,1.396572,0.08808498,-0.4737912,1.369643,-0.07509378,0.01461382,1.376261,0.01703717,-0.4631872,1.334865,-0.1130732,-0.2394033,1.370273,0.2808816,-0.2519348,1.360106,NA,NA,NotTracked,NotTracked,
0.9370117,-0.3232422,0.08056641,0.9477539,0.1962891,0.1899414,-1,3,1,-1,-2,0,0,-1,2,-1,-4,-1,0,1,-4,1,-4.625,-4.625,-4.625,0.5625,0.5625,0.5625,2.930165,3.06779,0.6269289,6.277994,2.964763,9.058999,-0.1099912,-0.4826733,1.284507,0.2701323,-0.4975011,1.271694,0.1099683,0.2740737,1.397932,-0.07503632,-0.4762102,1.26256,0.3101625,-0.4868761,1.278164,0.09079525,-0.1679455,1.396694,0.0882735,-0.473819,1.369751,-0.07491193,0.01459249,1.376359,0.01723793,-0.463243,1.335005,-0.1128867,-0.2394456,1.370219,0.281067,-0.2518757,1.360413,NA,NA,NotTracked,NotTracked,
0.9355469,-0.3339844,0.09277344,0.9599609,0.1958008,0.1889648,0,1,-2,0,-1,0,-1,-1,1,0,2,0,-1,0,2,-3,-10.75,-10.75,-10.75,-1.6875,-1.6875,-1.6875,2.925794,3.067451,0.617113,6.273262,2.964473,9.061751,-0.1094549,-0.4828857,1.285757,0.269972,-0.5003967,1.271719,0.1102707,0.274202,1.39865,-0.07440063,-0.4751108,1.261069,0.3092809,-0.4897923,1.273636,0.09095214,-0.1679707,1.39692,0.0884531,-0.4738621,1.36987,-0.07473263,0.0145438,1.3765,0.01740837,-0.4632971,1.335102,-0.1124426,-0.2395471,1.370405,0.2813071,-0.2519625,1.360996,NA,NA,NotTracked,NotTracked,
0.9873047,-0.4038086,0.1015625,0.9677734,0.2094727,0.1738281,-1,-2,-1,3,1,-3,1,1,0,0,-1,0,0,-2,2,7,-23.375,-23.375,-23.375,4.5625,4.5625,4.5625,2.921766,3.070169,0.587126,6.269669,2.969009,9.070504,-0.1055448,-0.4760469,1.282095,0.270077,-0.4973737,1.272837,0.1105746,0.2743281,1.39951,-0.07093066,-0.4693786,1.255276,0.31021,-0.4905359,1.277582,0.09114306,-0.1678858,1.397236,0.08867539,-0.4737498,1.36998,-0.07460864,0.01454617,1.376735,0.0176395,-0.4631657,1.335209,-0.1122897,-0.2394243,1.370385,0.2814684,-0.2518935,1.361424,NA,NA,NotTracked,NotTracked,
0.9516602,-0.3774414,0.1875,1,0.2021484,0.175293,-1,-1,-2,4,-1,-2,-2,-1,-2,0,2,7,1,0,-9,-4,-26.6875,-26.6875,-26.6875,8.5625,8.5625,8.5625,3.074492,3.140255,0.4010224,6.221154,3.001053,9.136577,-0.09600729,-0.4658979,1.264117,0.2696111,-0.4968247,1.270657,0.1108642,0.2747706,1.40121,-0.06950072,-0.4416708,1.290889,0.3098105,-0.4889088,1.276334,0.09160961,-0.1676902,1.39755,0.08947506,-0.4733894,1.369814,-0.07455032,0.01452006,1.376772,0.0183608,-0.462915,1.334971,-0.1114367,-0.2382556,1.369677,0.2817943,-0.2517677,1.362299,NA,NA,NotTracked,NotTracked,
0.8955078,-0.5732422,0.300293,1.135254,0.2353516,0.2041016,2,2,13,-3,8,0,3,2,2,2,-11,33,-4,0,8,14,-40.5625,-40.5625,-40.5625,52.1875,52.1875,52.1875,3.18907,3.270278,0.1931772,6.120364,3.084758,9.300336,-0.07534659,-0.4421559,1.234028,0.2665113,-0.4879746,1.263985,0.1108424,0.2756192,1.40342,-0.04462663,-0.4142741,1.225912,0.3063624,-0.4832409,1.271402,0.09229683,-0.1672222,1.397823,0.09135756,-0.4724296,1.369067,-0.07454464,0.01453468,1.376756,0.01991792,-0.4622734,1.334003,-0.109477,-0.2319429,1.36716,0.2832417,-0.2501997,1.36488,NA,NA,NotTracked,NotTracked,
0.8613281,-0.6152344,0.3544922,1.130371,0.3769531,0.4111328,-1,-1,-3,0,-1,-2,-1,1,0,-1,14,10,4,-11,4,-9,-26.125,-26.125,-26.125,55.5625,55.5625,55.5625,3.312803,3.461915,0.002793947,5.992415,3.290313,9.555469,-0.03702116,-0.4184557,1.18514,0.2515125,-0.4763732,1.243454,0.1106159,0.2763545,1.405797,-0.03004682,-0.4203686,1.145667,0.2305714,-0.5195425,1.248571,0.09262962,-0.1669554,1.397961,0.09281494,-0.4717816,1.368248,-0.07451618,0.01462774,1.376722,0.02095658,-0.4620312,1.333088,-0.1065263,-0.2196032,1.359061,0.2870713,-0.2450282,1.371339,NA,NA,Unknown,NotTracked,
0.7260742,-0.8203125,0.4907227,0.7651367,0.5297852,0.7744141,-1,-4,1,5,-2,3,0,9,2,-2,16,1,-13,15,2,5,-27.375,-27.375,-27.375,14.25,14.25,14.25,3.389619,3.807341,9.806376,5.874994,3.731341,9.78919,0.01153832,-0.3646632,1.145714,0.2227413,-0.4067628,1.239317,0.1100224,0.277194,1.408542,0.009579204,-0.3510392,1.106787,0.2464124,-0.4718617,1.2612,0.09221177,-0.1666378,1.398549,0.09125421,-0.4712792,1.368558,-0.07394659,0.01577488,1.376393,0.01955276,-0.4613794,1.333374,-0.107437,-0.1966932,1.339222,0.2935365,-0.2346068,1.378392,NA,NA,Unknown,Unknown,
0.5576172,-0.8662109,0.5922852,0.3398438,0.5585938,0.9082031,-5,5,7,0,-1,-1,-2,-12,2,3,9,9,-3,-4,-7,-6,-15.25,-15.25,-15.25,-9,-9,-9,3.419163,4.209232,9.664903,5.80936,4.170173,9.875417,0.03799183,-0.2931533,1.104386,0.1992264,-0.3234598,1.220435,0.1093514,0.2776873,1.410705,0.04245378,-0.252133,1.07884,0.2113723,-0.3846304,1.243048,0.0905662,-0.1659769,1.399723,0.08769371,-0.470342,1.369108,-0.07387856,0.01598033,1.376104,0.01728447,-0.4600896,1.33367,-0.1103827,-0.1929608,1.319052,0.3028943,-0.2075693,1.383363,NA,NA,Unknown,Unknown,
0.4511719,-0.7119141,0.5166016,-0.1591797,0.5039063,0.9428711,4,-4,1,0,-2,-4,-3,-6,-1,1,-22,-20,-4,-24,-2,-30,-31.3125,-31.3125,-31.3125,22.3125,22.3125,22.3125,3.416662,4.477301,9.585004,5.789872,4.683445,9.938463,0.07167418,-0.229661,1.070774,0.163555,-0.2240571,1.163473,0.1083193,0.2778362,1.412858,0.05660888,-0.1854368,1.052784,0.1318744,-0.2114073,1.161556,0.08981892,-0.1648593,1.401485,0.08662843,-0.4684538,1.370233,-0.07253348,0.01669423,1.374697,0.01673684,-0.457845,1.334189,-0.1105637,-0.1802129,1.278836,0.3149345,-0.1983139,1.362379,NA,NA,NotTracked,NotTracked,
0.3554688,-0.6806641,0.4785156,-0.3891602,0.5712891,0.9780273,0,-5,7,-4,3,3,-12,3,-15,3,3,10,1,4,1,-7,-49.1875,-49.1875,-49.1875,67.3125,67.3125,67.3125,3.363386,4.672044,9.511988,5.911915,5.395248,9.96232,0.09602321,-0.1754622,1.050933,0.08847219,-0.1756098,1.054318,0.1074083,0.2769416,1.415329,0.07103083,-0.1296839,1.033694,0.04387697,-0.1395301,1.0524,0.08885143,-0.1629499,1.403785,0.08569875,-0.4631871,1.37211,-0.07146619,0.01762114,1.372831,0.01638079,-0.4522923,1.334723,-0.1255552,-0.1734562,1.272436,0.3094667,-0.1880369,1.306174,NA,NA,NotTracked,NotTracked,
0.2866211,-0.6904297,0.4609375,-0.4033203,0.5249023,0.8276367,-12,-2,-12,-4,-2,1,-3,-9,5,1,1,0,-3,-26,6,1,-35.3125,-35.3125,-35.3125,50.6875,50.6875,50.6875,3.309807,4.772786,9.446251,6.001828,5.839744,9.953753,0.1165473,-0.1426317,1.041842,0.1108281,-0.1458639,1.042569,0.1074381,0.2763119,1.417423,0.08033531,-0.1027684,1.022132,0.0723103,-0.1714991,1.046056,0.08863676,-0.1625359,1.405082,0.08536983,-0.4618834,1.373369,-0.06873622,0.01939766,1.369468,0.01628122,-0.4511817,1.334764,-0.1007874,-0.1480691,1.222545,0.2838317,-0.1496083,1.235335,NA,NA,NotTracked,NotTracked,
0.1787109,-0.793457,0.4697266,-0.2802734,0.362793,0.8076172,-9,-2,-17,-8,-2,-2,-5,-8,55,15,13,11,2,-2,-8,1,-28.5625,-28.5625,-28.5625,9.6875,9.6875,9.6875,3.250458,4.844504,9.384216,6.04643,6.139276,9.943675,0.1152709,-0.1191623,1.039791,0.1077648,-0.1215677,1.040867,0.1055832,0.2774907,1.41943,0.08459532,-0.08501679,1.018729,0.08389577,-0.1516909,1.043513,0.08868776,-0.1639382,1.404604,0.08432208,-0.4659782,1.373509,-0.06831095,0.0197692,1.36895,0.01408372,-0.4562965,1.339338,-0.09579867,-0.1371346,1.209117,0.2828319,-0.1072834,1.182744,NA,NA,NotTracked,NotTracked,
0.1503906,-0.8276367,0.4394531,-0.3461914,0.3325195,0.5908203,3,-7,6,2,2,4,10,-2,-16,-20,-8,-6,-21,36,-2,1,-16.6875,-16.6875,-16.6875,7.1875,7.1875,7.1875,3.219011,4.892518,9.360513,6.061228,6.369648,9.934039,0.1253012,-0.08984309,1.034329,0.022098,-0.1174277,1.081682,0.103008,0.2787111,1.420553,0.1138319,-0.04183652,1.012012,0.01478195,-0.150402,1.100764,0.08923727,-0.1637781,1.404558,0.08393135,-0.4656563,1.373711,-0.0675019,0.02028564,1.368385,0.01331644,-0.4552631,1.33957,-0.1004604,-0.1326068,1.205602,0.273802,-0.07777888,1.163493,NA,NA,NotTracked,NotTracked,
0.08056641,-0.8476563,0.4038086,-0.5229492,0.3828125,0.4023438,-18,-18,16,4,0,1,4,-3,31,13,5,5,4,3,16,-8,-0.625,-0.625,-0.625,22.75,22.75,22.75,3.21442,4.928083,9.353417,6.093572,6.469738,9.947325,0.1191418,-0.08090176,1.03177,0.1593601,0.1851363,1.107569,0.09937664,0.2776528,1.421178,0.1110867,-0.03409228,1.00877,0.1301887,0.16629,1.121846,0.08961137,-0.1634213,1.405026,0.08330831,-0.4638966,1.373837,-0.06183997,0.02528323,1.363367,0.01237069,-0.4523901,1.339376,-0.09984402,-0.1303514,1.204495,0.2604228,-0.02117693,1.144779,NA,NA,Unknown,Lasso,
0.109375,-0.8598633,0.3696289,-0.7402344,0.3085938,0.3520508,3,8,46,-4,0,2,5,0,26,5,-9,19,9,20,15,9,2.0625,2.0625,2.0625,-2.5,-2.5,-2.5,3.218374,4.945825,9.360547,6.105035,6.527731,9.963797,0.1215522,-0.07965238,1.030344,0.1580261,0.2081383,1.109098,0.09606746,0.2760097,1.420821,0.108876,-0.03408295,1.008783,0.1423254,0.2464959,1.1362,0.08975967,-0.1632937,1.404984,0.08293334,-0.4625599,1.373601,-0.06109573,0.02673721,1.362641,0.01193766,-0.4508099,1.338788,-0.09176329,-0.1266105,1.199754,0.2666548,-0.01128202,1.144737,NA,NA,Unknown,Unknown,
0.04199219,-0.8964844,0.4291992,-0.78125,0.3266602,0.4335938,-7,-2,-4,1,7,2,4,-1,62,34,17,17,17,-34,2,36,-2.6875,-2.6875,-2.6875,-5.4375,-5.4375,-5.4375,3.209898,4.94744,9.367877,6.084923,6.558702,9.944631,0.1230877,-0.07925528,1.027397,0.155332,0.2208585,1.108288,0.09426644,0.2739999,1.421057,0.1077114,-0.03552483,1.006994,0.1441355,0.2524812,1.146429,0.09004161,-0.1630993,1.4047,0.08283712,-0.4614398,1.372827,-0.06138732,0.02613527,1.362854,0.01176728,-0.4496754,1.337878,-0.08856901,-0.125213,1.197359,0.2539601,-0.006350921,1.141961,NA,NA,Unknown,Lasso,
-0.0009765625,-0.9140625,0.4150391,-0.8359375,0.3432617,0.4326172,-11,1,4,2,-1,0,3,14,5,6,-5,-11,-13,-14,-25,-17,2.0625,2.0625,2.0625,1.9375,1.9375,1.9375,3.207831,4.939248,9.371125,6.053196,6.560629,9.919816,0.1237591,-0.07952759,1.026836,0.1569285,0.218756,1.108602,0.09287474,0.272979,1.421273,0.1106271,-0.03431706,1.006494,0.1447139,0.248521,1.141105,0.09017154,-0.1630139,1.404497,0.08267511,-0.4609765,1.372402,-0.06169079,0.02571671,1.36294,0.01155788,-0.4491514,1.337332,-0.08684605,-0.1246671,1.196185,0.2492292,-0.002438639,1.140924,NA,NA,Unknown,Lasso,
0.04296875,-0.9140625,0.4492188,-0.7871094,0.2875977,0.440918,-2,-8,15,6,-8,-5,4,-15,-38,-24,1,-2,-8,12,5,-33,3.1875,3.1875,3.1875,-5.875,-5.875,-5.875,3.21068,4.933163,9.37826,6.02945,6.539709,9.906882,0.1239677,-0.08495215,1.026836,0.1558816,0.2141064,1.105453,0.09224872,0.2722777,1.420609,0.1117695,-0.03406652,1.004138,0.1455406,0.2470335,1.153,0.09040563,-0.1628851,1.404079,0.08246741,-0.4604372,1.371578,-0.06178901,0.02534445,1.362825,0.01128714,-0.4485239,1.336272,-0.08614698,-0.1242908,1.195239,0.2490602,-0.002538426,1.140585,NA,NA,Unknown,Lasso,
0.04394531,-0.9213867,0.4423828,-0.456543,0.2470703,0.4790039,-1,2,7,6,-3,1,7,12,14,-20,-3,-8,-1,-35,-22,30,0.125,0.125,0.125,-11.375,-11.375,-11.375,3.215155,4.9279,9.385067,5.998368,6.444211,9.881899,0.1231858,-0.0859155,1.024494,0.1544317,0.1994998,1.10203,0.09201321,0.2724795,1.419308,0.1116554,-0.03466082,1.002489,0.1649633,0.2199319,1.115214,0.09069057,-0.1629368,1.403423,0.08237699,-0.460312,1.370867,-0.06186197,0.0248458,1.362566,0.01115723,-0.4483529,1.335492,-0.08676668,-0.1235306,1.193896,0.2490349,-0.002545994,1.14017,NA,NA,Unknown,Unknown,
0.00390625,-0.9174805,0.4311523,-0.2895508,0.2436523,0.5214844,-3,9,45,2,18,-5,-12,-4,16,5,-11,-74,-14,10,16,53,3.375,3.375,3.375,-14.25,-14.25,-14.25,3.22107,4.929338,9.394994,5.941777,6.272987,9.855346,0.1220628,-0.08618232,1.022275,0.1447946,0.1861982,1.099758,0.09302871,0.274789,1.417588,0.1103265,-0.03539997,0.9991004,0.1591336,0.2109912,1.112429,0.0908605,-0.1629904,1.402972,0.08217132,-0.4603945,1.37051,-0.06190515,0.02466212,1.362499,0.01094734,-0.4484411,1.335156,-0.08859996,-0.1222448,1.192774,0.2433278,0.0027,1.13924,NA,NA,Unknown,Unknown,
0.04638672,-0.9238281,0.4414063,-0.02392578,0.3662109,0.6816406,-2,-14,-1,5,7,2,-1,5,20,10,40,12,-41,-14,-36,-30,3.3125,3.3125,3.3125,-25.6875,-25.6875,-25.6875,3.225842,4.931994,9.408078,5.933242,5.982347,9.882053,0.1193859,-0.08599964,1.017899,0.1383996,0.1037726,1.100793,0.09521784,0.276165,1.417131,0.1061546,-0.03679372,0.99404,0.1661141,0.124111,1.110708,0.09051167,-0.1641465,1.401552,0.08115341,-0.4644963,1.369246,-0.06220994,0.02439386,1.362264,0.009580515,-0.4529669,1.335999,-0.08945719,-0.121797,1.191985,0.2607971,-0.07392626,1.156304,NA,NA,Unknown,NotTracked,
0.04052734,-0.9433594,0.4428711,-0.2578125,0.5986328,0.8183594,-2,6,52,-6,11,6,6,15,-20,-11,-54,-95,-46,-50,-57,7,10.3125,10.3125,10.3125,-11.875,-11.875,-11.875,3.233416,4.947229,9.434626,5.913724,5.263177,9.912371,0.1204428,-0.0818594,1.01423,0.127759,0.003021979,1.115433,0.0986395,0.2766345,1.416362,0.1233282,-0.04954833,1.0595,0.0928258,0.005479585,1.1538,0.09006362,-0.1657075,1.400681,0.08137283,-0.469581,1.368097,-0.06256049,0.02564139,1.357436,0.01000185,-0.4594773,1.335349,-0.08185645,-0.1204474,1.185888,0.2827314,-0.1631438,1.236483,NA,NA,NotTracked,NotTracked,
0.05810547,-0.8994141,0.4428711,0.3291016,0.7734375,1.459473,0,-6,2,3,-2,-4,-17,3,-33,10,-44,7,-15,107,23,79,6.625,6.625,6.625,-26.5,-26.5,-26.5,3.24083,4.955971,9.452485,5.881988,4.674984,9.881656,0.120488,-0.07802886,1.009855,-0.04085634,-0.1016302,1.117241,0.1002908,0.2749502,1.415833,0.0960855,-0.0309066,0.9880185,-0.06768686,-0.07827966,1.158889,0.08951098,-0.1649357,1.400909,0.08223996,-0.4637374,1.368251,-0.0622908,0.02688353,1.35342,0.01320811,-0.4501257,1.326929,-0.08150297,-0.1198717,1.182437,0.2792917,-0.1744868,1.25163,NA,NA,NotTracked,NotTracked,
0.08300781,-0.8852539,0.453125,0.2543945,0.8457031,1.334473,-7,-19,-22,-9,-29,-16,-2,-23,18,-10,-9,-59,-30,45,92,41,-2.625,-2.625,-2.625,-63.25,-63.25,-63.25,3.243882,4.960612,9.476348,5.824216,4.324157,9.880616,0.1198325,-0.07535238,1.00879,-0.01272775,-0.1153675,1.099516,0.1013296,0.2741752,1.414441,0.09314261,-0.02991844,0.9869936,-0.02595298,-0.07654571,1.12,0.08960718,-0.1650799,1.400716,0.08231253,-0.4639454,1.368024,-0.06355385,0.02520959,1.355182,0.01327335,-0.4507619,1.326683,-0.08150446,-0.1183267,1.181235,0.2883368,-0.2004014,1.329171,NA,NA,NotTracked,NotTracked,
-0.04150391,-0.8276367,0.4858398,0.3466797,0.6469727,0.9199219,-3,1,22,14,-2,0,-9,-6,14,107,15,-14,72,-29,-73,-30,-10.4375,-10.4375,-10.4375,-31.4375,-31.4375,-31.4375,3.238878,4.953671,9.485938,5.772133,4.25162,9.836317,0.1194403,-0.07893993,1.007998,-0.003786062,-0.109092,1.189401,0.1030094,0.2727834,1.412828,0.09548514,-0.03033861,0.9871373,0.03341445,-0.08616517,1.239417,0.08926573,-0.1652072,1.400775,0.08236482,-0.4640109,1.36796,-0.06244968,0.02658803,1.351784,0.01345942,-0.4511641,1.326344,-0.0816965,-0.1193886,1.180105,0.2840185,-0.2046182,1.344392,NA,NA,NotTracked,NotTracked,
0.06152344,-0.902832,0.4697266,0.3891602,0.4550781,0.8295898,4,-8,-9,-2,-10,-3,0,0,45,-2,43,51,54,6,21,19,2.375,2.375,2.375,1.25,1.25,1.25,3.237353,4.928735,9.489377,5.779842,4.264856,9.820239,0.1216754,-0.08231048,1.008566,0.1491078,-0.310605,1.166145,0.1049015,0.2714033,1.411284,0.09862676,-0.03047805,0.9869167,0.1563049,-0.2939237,1.132362,0.08903527,-0.1653429,1.400847,0.08256523,-0.4641643,1.367918,-0.06236463,0.02588194,1.35199,0.01375428,-0.4514365,1.326179,-0.08188722,-0.1197722,1.180062,0.2826459,-0.2084718,1.348977,NA,NA,Unknown,Unknown,
0.05615234,-0.9257813,0.4853516,0.4731445,0.4038086,0.8481445,-3,4,5,0,-11,-6,-50,-14,-6,-24,0,56,7,-56,-30,19,3.1875,3.1875,3.1875,10.25,10.25,10.25,3.243072,4.912813,9.487724,5.793812,4.268525,9.808443,0.1218063,-0.08542953,1.009704,0.1542449,-0.3087295,1.164631,0.1063927,0.2708547,1.410735,0.09956487,-0.03199873,0.9887193,0.1620364,-0.2924006,1.13273,0.08918853,-0.165626,1.40099,0.08274018,-0.4645979,1.368056,-0.06183666,0.02517169,1.351975,0.01393576,-0.4519708,1.326144,-0.08203187,-0.1201806,1.179865,0.2828656,-0.210074,1.351977,NA,NA,Unknown,Unknown,
0.02246094,-0.9228516,0.4848633,0.4306641,0.4257813,0.8149414,4,12,-15,-28,0,0,-12,-16,41,49,53,-24,-17,-33,-4,10,0.3125,0.3125,0.3125,3.5,3.5,3.5,3.24345,4.907429,9.485246,5.799336,4.265651,9.811677,0.1225684,-0.08689418,1.009663,0.1539214,-0.3093913,1.164194,0.1073573,0.2702978,1.410332,0.0991863,-0.03349928,0.9876484,0.1642544,-0.2935122,1.132609,0.08920962,-0.1658946,1.401092,0.08292887,-0.4649446,1.36816,-0.06247754,0.02401414,1.353705,0.01409807,-0.4523426,1.326018,-0.08192304,-0.1198711,1.180232,0.282656,-0.211037,1.352105,NA,NA,Unknown,Unknown,
0.05957031,-0.9140625,0.472168,0.425293,0.4448242,0.7998047,1,-12,-7,6,3,4,-1,-21,-18,-31,13,-55,18,-17,45,70,6.875,6.875,6.875,-2.3125,-2.3125,-2.3125,3.251539,4.910352,9.488022,5.796326,4.265912,9.807164,0.1224993,-0.08761533,1.010961,0.1551656,-0.3094957,1.16344,0.1078545,0.2703275,1.41028,0.09904418,-0.03455104,0.9887085,0.1634211,-0.289721,1.132577,0.08947655,-0.1660009,1.401092,0.08301282,-0.4650947,1.368308,-0.06178505,0.02436752,1.35254,0.01417707,-0.4524767,1.326013,-0.08207674,-0.1213102,1.180737,0.2827119,-0.2115465,1.352389,NA,NA,Unknown,Unknown,
0.03710938,-0.9194336,0.4711914,0.4370117,0.4267578,0.7822266,10,45,-4,16,-4,3,20,8,-3,8,17,7,-9,-9,1,-7,-1.375,-1.375,-1.375,2.1875,2.1875,2.1875,3.25141,4.913816,9.489545,5.799917,4.261626,9.813739,0.1223305,-0.08761106,1.011664,0.1547247,-0.3097478,1.163867,0.1080495,0.2703133,1.410339,0.1000165,-0.03500393,0.990086,0.1619254,-0.2907691,1.133221,0.08970775,-0.1660737,1.401129,0.08314893,-0.4651673,1.368469,-0.06118634,0.02505444,1.351435,0.01430224,-0.4525377,1.325996,-0.08202638,-0.1225224,1.181401,0.282758,-0.2117553,1.352634,NA,NA,Unknown,Unknown,
0.05224609,-0.9125977,0.4682617,0.4804688,0.4404297,0.7866211,-5,3,-1,2,-5,-14,11,7,-22,31,19,8,39,11,-18,20,0.75,0.75,0.75,-3.875,-3.875,-3.875,3.252317,4.917284,9.493052,5.797178,4.252172,9.816,0.1221369,-0.08720832,1.012474,0.1547104,-0.3101946,1.165413,0.108176,0.2695454,1.411199,0.09922314,-0.03505413,0.9898547,0.1604135,-0.2943312,1.131855,0.0893163,-0.1661476,1.401984,0.08329374,-0.4652377,1.36872,-0.06075148,0.02534334,1.350874,0.0144213,-0.4525904,1.326046,-0.08194995,-0.1230831,1.181661,0.2830965,-0.2118925,1.353661,NA,NA,Unknown,Unknown,
0.03369141,-0.9042969,0.4506836,0.4365234,0.4277344,0.8041992,10,1,-16,-6,-1,-2,2,11,-11,23,-12,-24,-2,20,5,29,3.0625,3.0625,3.0625,-3.1875,-3.1875,-3.1875,3.256085,4.922414,9.495113,5.788749,4.252017,9.821001,0.1296473,-0.08440314,1.012212,0.1544178,-0.3111424,1.166361,0.1082578,0.2694379,1.411399,0.09798899,-0.03466527,0.9885172,0.132304,-0.2750601,1.140789,0.08942612,-0.1662395,1.402232,0.08354435,-0.4653757,1.36901,-0.06191223,0.0237092,1.354057,0.01466647,-0.4528485,1.326334,-0.07479982,-0.1202945,1.180035,0.2833373,-0.2121794,1.354408,NA,NA,Unknown,Unknown,
0.03662109,-0.9111328,0.4755859,0.4492188,0.4194336,0.7983398,-10,-1,-5,-1,-19,-3,-20,3,17,37,-19,-13,-18,-16,3,25,-2.375,-2.375,-2.375,-7.8125,-7.8125,-7.8125,3.25449,4.924772,9.496777,5.778879,4.256495,9.818895,0.1267364,-0.08467871,1.012503,0.1539706,-0.3115214,1.167575,0.1084499,0.2690537,1.411975,0.09849624,-0.03532619,0.9897954,0.1344594,-0.2742462,1.138242,0.08948134,-0.1663636,1.402841,0.08383927,-0.4654681,1.369325,-0.06083678,0.02462067,1.352628,0.01497005,-0.452938,1.326559,-0.07674988,-0.1223449,1.18148,0.2835378,-0.2124699,1.354787,NA,NA,Unknown,Unknown,
0.04345703,-0.9106445,0.472168,0.4599609,0.4375,0.8007813,8,2,5,13,13,7,6,16,-82,-70,8,-26,-42,-27,-53,-59,0.0625,0.0625,0.0625,-3.3125,-3.3125,-3.3125,3.25401,4.925169,9.497175,5.771737,4.25964,9.817981,0.1255986,-0.08538732,1.011128,0.1544834,-0.3106286,1.167352,0.1087121,0.2690364,1.412208,0.09873971,-0.03467591,0.9888531,0.1616369,-0.2996813,1.133984,0.089497,-0.1663675,1.403116,0.08404791,-0.4655399,1.36954,-0.0615359,0.02369082,1.354537,0.01514197,-0.453023,1.326696,-0.07686903,-0.1217488,1.181985,0.2841767,-0.212853,1.355153,NA,NA,Unknown,Unknown,
0.05419922,-0.9165039,0.472168,0.4448242,0.4135742,0.796875,-9,-10,2,2,9,1,-8,6,23,47,1,-3,15,-49,-10,16,-1.6875,-1.6875,-1.6875,1.125,1.125,1.125,3.250448,4.923711,9.496183,5.768878,4.259173,9.818181,0.1299856,-0.08490519,1.011503,0.1541228,-0.3119918,1.169329,0.1092237,0.2690488,1.412575,0.09899995,-0.03567137,0.9888098,0.155208,-0.3051461,1.13116,0.08957674,-0.1664054,1.403399,0.08440422,-0.4656399,1.369838,-0.06092139,0.02405713,1.354523,0.01546138,-0.4531438,1.326854,-0.07315812,-0.1191485,1.179763,0.2844256,-0.2130188,1.355797,NA,NA,Unknown,Unknown,
0.04541016,-0.9091797,0.4541016,0.4643555,0.4125977,0.8046875,2,-2,3,6,10,-9,20,-11,36,38,-18,-5,-50,-99,-12,8,-0.4375,-0.4375,-0.4375,-2.75,-2.75,-2.75,3.250448,4.923711,9.496183,5.768595,4.254128,9.81675,0.1296797,-0.08497574,1.01196,0.1548423,-0.3127294,1.170189,0.1096487,0.2690085,1.412795,0.1006899,-0.03500019,0.9887893,0.1611925,-0.2960326,1.137259,0.08961485,-0.1663579,1.403518,0.08469198,-0.4655915,1.369847,-0.05929419,0.02540627,1.352911,0.01582106,-0.4530898,1.326818,-0.07505275,-0.1202959,1.180615,0.28456,-0.2133184,1.356109,NA,NA,Unknown,Unknown,
0.05224609,-0.9003906,0.440918,0.4506836,0.4296875,0.8056641,19,-4,2,-7,0,-1,-8,-3,23,0,5,4,8,26,-4,-13,-1.875,-1.875,-1.875,-3.8125,-3.8125,-3.8125,3.247409,4.921125,9.497355,5.766988,4.252219,9.810862,0.1212637,-0.085605,1.010701,0.1554741,-0.3134522,1.170772,0.1104713,0.2689789,1.413441,0.109148,-0.03262627,0.9882726,0.1597615,-0.3012337,1.13598,0.089698,-0.1664763,1.403786,0.08494611,-0.4657504,1.370013,-0.05870156,0.02533136,1.352989,0.01606444,-0.4532279,1.326885,-0.07110167,-0.1183022,1.178596,0.2846291,-0.2137165,1.356288,NA,NA,Unknown,Unknown,
0.04199219,-0.8901367,0.4482422,0.4355469,0.4130859,0.8046875,-9,-2,0,-11,-19,-1,-7,-4,48,14,8,-2,5,30,26,20,0.3125,0.3125,0.3125,1.3125,1.3125,1.3125,3.243631,4.916254,9.499091,5.763509,4.255089,9.807211,0.1163526,-0.07906366,1.008936,0.1564492,-0.3149028,1.170295,0.1111893,0.269403,1.413678,0.105797,-0.03418811,0.9937043,0.1267001,-0.3376544,1.1945,0.09007718,-0.1665473,1.403643,0.08507279,-0.465841,1.370009,-0.05777278,0.02563779,1.351721,0.01621128,-0.4532989,1.326802,-0.07106419,-0.119091,1.178342,0.2849224,-0.2142456,1.356305,NA,NA,Unknown,Unknown,
0.05761719,-0.8989258,0.4414063,0.4550781,0.4042969,0.8022461,16,0,-7,-3,-3,-1,2,5,32,-2,-1,0,4,62,20,15,-1.625,-1.625,-1.625,0.875,0.875,0.875,3.242165,4.909674,9.501163,5.763245,4.254634,9.807517,0.116461,-0.0809579,1.008204,0.1558154,-0.3149903,1.167372,0.1117857,0.2696485,1.413767,0.105585,-0.03390631,0.9903959,0.1385327,-0.3350722,1.175467,0.09056097,-0.1666831,1.403353,0.08527706,-0.465978,1.36993,-0.05770438,0.02511617,1.351997,0.01642784,-0.4534429,1.326621,-0.0675571,-0.1176513,1.176686,0.2844665,-0.2169753,1.35354,NA,NA,Unknown,Unknown,
0.078125,-0.9306641,0.453125,0.487793,0.4125977,0.8154297,-17,-4,1,-5,2,-1,4,-2,26,-5,-2,-4,-16,-53,-19,61,1.3125,1.3125,1.3125,0.1875,0.1875,0.1875,3.239698,4.899183,9.504635,5.764215,4.244427,9.80691,0.1164908,-0.08272049,1.009236,0.1571317,-0.3161129,1.168276,0.1124373,0.2695404,1.414139,0.1083205,-0.03505537,0.9907064,0.1298822,-0.3310864,1.177059,0.09080802,-0.1668427,1.40357,0.08604194,-0.4663839,1.370029,-0.05824488,0.02438508,1.353332,0.01737612,-0.4540149,1.32673,-0.08422115,-0.1252548,1.185973,0.2851627,-0.2168357,1.354472,NA,NA,Unknown,Unknown,
0.0546875,-0.9350586,0.472168,0.4521484,0.4067383,0.8022461,9,-4,9,-9,7,-2,19,23,-23,-19,0,-2,-20,2,-82,-49,1.5,1.5,1.5,2,2,2,3.241266,4.895894,9.508214,5.763399,4.241233,9.811676,0.1163407,-0.08320921,1.008354,0.1551325,-0.32008,1.167846,0.1128645,0.2694892,1.414299,0.1091242,-0.03492017,0.991013,0.1298996,-0.3386726,1.180231,0.09097832,-0.1669142,1.403677,0.08680169,-0.4666863,1.3701,-0.05911054,0.02339446,1.355195,0.01816905,-0.4543412,1.326776,-0.08712121,-0.1263192,1.188271,0.2844654,-0.2191071,1.35182,NA,NA,Unknown,Unknown,
