ALX,ALY,ALZ,ARX,ARY,ARZ,EMG0L,EMG1L,EMG2L,EMG3L,EMG4L,EMG5L,EMG6L,EMG7L,EMG0R,EMG1R,EMG2R,EMG3R,EMG4R,EMG5R,EMG6R,EMG7R,GLX,GLY,GLZ,GRX,GRY,GRZ,ORL,OPL,OYL,ORR,OPR,OYR,LHNX,LHNY,LHNZ,RHNX,RHNY,RHNZ,HX,HY,HZ,LTX,LTY,LTZ,RTX,RTY,RTZ,SpineMidX,SpineMidY,SpineMidZ,SpineBaseX,SpineBaseY,SpineBaseZ,ShoulderLeftX,ShoulderLeftY,ShoulderLeftZ,ShoulderRightX,ShoulderRightY,ShoulderRightZ,ElbowLeftX,ElbowLeftY,ElbowLeftZ,ElbowRightX,ElbowRightY,ElbowRightZ,Myo_Pose_left,Myo_Pose_Right,Kinect_pose_left,Kinect_pose_right
0.9418945,-0.3232422,0.08496094,0.9482422,0.1850586,0.2294922,-2,1,0,-1,-1,0,0,-2,0,-1,-2,-1,0,-2,-4,0,-0.125,-0.125,-0.125,-1.875,-1.875,-1.875,2.913199,3.048277,4.84982,6.19563,2.966342,1.973603,-0.1479128,-0.4863724,1.387417,0.2231137,-0.4964783,1.36338,0.06518503,0.2675695,1.490186,-0.1871123,-0.4778422,1.388092,0.1889014,-0.5097193,1.3614,0.04675288,-0.1680278,1.494651,0.04657663,-0.4697477,1.471508,-0.1189022,0.01589549,1.476023,-0.02299836,-0.4592163,1.435819,-0.1531783,-0.2371443,1.468919,0.2365004,-0.2473284,1.461978,NA,NA,NotTracked,NotTracked,
0.940918,-0.3364258,0.08056641,0.9584961,0.2368164,0.1953125,-3,2,0,-1,-2,-2,-1,-2,-2,2,-1,-1,1,4,0,0,0.8125,0.8125,0.8125,-1.4375,-1.4375,-1.4375,2.914809,3.047328,4.849335,6.155432,2.990847,2.016681,-0.1481941,-0.4861176,1.387443,0.2215428,-0.4947753,1.359362,0.06528617,0.2676087,1.490188,-0.1874874,-0.4781389,1.389386,0.1872269,-0.494395,1.361742,0.04674952,-0.1679996,1.494611,0.04644027,-0.4697091,1.47142,-0.1188919,0.01587518,1.475969,-0.02317899,-0.459149,1.435619,-0.1532196,-0.2370354,1.468855,0.2364815,-0.2472513,1.462134,NA,NA,NotTracked,NotTracked,
0.9438477,-0.3266602,0.09228516,1.040039,0.21875,0.1816406,-1,1,-1,0,0,0,-1,-2,0,3,23,20,-2,-2,1,7,1.5625,1.5625,1.5625,5.8125,5.8125,5.8125,2.916678,3.049574,4.849691,6.067266,3.033778,2.114088,-0.148532,-0.4859429,1.387517,0.2171054,-0.4877205,1.352756,0.06534833,0.2676537,1.490245,-0.1872158,-0.4788979,1.388405,0.1885621,-0.4718648,1.344884,0.0466031,-0.1679609,1.494465,0.04595375,-0.4696193,1.471109,-0.1189659,0.01587865,1.475938,-0.02360344,-0.4590479,1.435356,-0.1535121,-0.2369402,1.468745,0.2364287,-0.2469606,1.462774,NA,NA,NotTracked,NotTracked,
0.9418945,-0.3364258,0.08886719,1.062988,0.2001953,0.4082031,1,3,0,0,1,-2,-1,0,6,13,-1,-29,4,1,0,1,1.0625,1.0625,1.0625,17,17,17,2.914021,3.053234,4.854068,5.847758,3.205946,2.377598,-0.1490263,-0.4866673,1.386831,0.2066394,-0.4713183,1.335449,0.06530349,0.2677257,1.490317,-0.1875797,-0.4775197,1.388106,0.2013294,-0.5043495,1.356808,0.04621516,-0.1678593,1.49422,0.04470731,-0.4693883,1.470541,-0.1189876,0.01613658,1.475893,-0.0249248,-0.458702,1.434769,-0.153729,-0.2368035,1.468665,0.2368825,-0.2442984,1.466312,NA,NA,NotTracked,NotTracked,
0.9331055,-0.3203125,0.08740234,0.9936523,0.2197266,0.6469727,0,-2,-1,-1,-1,0,-2,1,-3,5,-37,42,4,5,-1,-2,1.5,1.5,1.5,0.9375,0.9375,0.9375,2.9163,3.055232,4.856126,5.684703,3.45217,2.585433,-0.1502995,-0.4865617,1.386936,0.1834263,-0.4450656,1.306892,0.06523357,0.2679137,1.490589,-0.1909798,-0.4744999,1.385517,0.1795948,-0.4734992,1.319944,0.04507831,-0.1676478,1.493765,0.0413929,-0.4689322,1.469439,-0.1191336,0.01616796,1.475991,-0.02833548,-0.4578051,1.433755,-0.1543515,-0.2364555,1.468537,0.2383962,-0.2361981,1.474317,NA,NA,NotTracked,Unknown,
0.9394531,-0.3286133,0.09423828,0.5639648,0.394043,0.8364258,0,5,-1,-2,0,-1,-1,0,0,0,-16,1,-5,-4,-2,5,-1.3125,-1.3125,-1.3125,-20.375,-20.375,-20.375,2.912333,3.055397,4.859154,5.547879,3.911627,2.753139,-0.1510526,-0.4852442,1.387197,0.1468381,-0.3775172,1.290933,0.0650389,0.2682291,1.491036,-0.1893466,-0.481349,1.386557,0.1517162,-0.4317527,1.3082,0.04392383,-0.1673505,1.493342,0.03881059,-0.4684996,1.468504,-0.1192321,0.01617339,1.475983,-0.030641,-0.4572285,1.43308,-0.1546564,-0.2363657,1.468527,0.2401461,-0.2277525,1.478247,NA,NA,NotTracked,Unknown,
0.9384766,-0.3237305,0.1005859,0.2788086,0.2661133,0.9267578,0,-2,-1,0,-1,-1,0,0,-8,-22,-53,-57,-1,10,-2,0,-3.625,-3.625,-3.625,-3.0625,-3.0625,-3.0625,2.903924,3.052103,4.860756,5.466954,4.323151,2.838253,-0.1517081,-0.4856657,1.386849,0.1143749,-0.2921447,1.262627,0.06494173,0.2683742,1.491201,-0.1899409,-0.4828588,1.385751,0.07787076,-0.2983775,1.291833,0.0437009,-0.1672268,1.493273,0.03862401,-0.4683846,1.468413,-0.1192951,0.01616657,1.475977,-0.0307329,-0.4571718,1.433064,-0.1550192,-0.2359823,1.468458,0.2383396,-0.2067078,1.473804,NA,NA,NotTracked,Unknown,
0.9375,-0.3344727,0.1000977,0.02685547,0.3481445,0.8994141,2,-3,-1,-1,0,0,-1,-2,3,12,40,73,-11,-6,1,4,-0.625,-0.625,-0.625,-15.625,-15.625,-15.625,2.903051,3.054017,4.858582,5.439835,4.760801,2.92124,-0.1522778,-0.4857067,1.38618,0.08806311,-0.1901213,1.25836,0.06482921,0.2685327,1.491529,-0.1904695,-0.4797837,1.385723,0.0472237,-0.1797554,1.29125,0.04364074,-0.1671391,1.493319,0.03868508,-0.4681991,1.468494,-0.1193296,0.01615902,1.475995,-0.03061244,-0.457085,1.433219,-0.1553368,-0.2359047,1.468282,0.2404091,-0.2061477,1.462816,NA,NA,NotTracked,Unknown,
0.9433594,-0.3369141,0.09814453,-0.1132813,0.315918,0.9077148,-2,1,1,-1,-2,0,-1,0,-2,-3,-29,-13,6,-6,0,-4,1.0625,1.0625,1.0625,33.9375,33.9375,33.9375,2.913481,3.062101,4.850121,5.465483,5.199862,3.037261,-0.151798,-0.4855783,1.384826,0.08365718,-0.09238074,1.272896,0.06487991,0.2686977,1.492029,-0.1882315,-0.4954275,1.379177,0.05587665,-0.1247779,1.303667,0.04360481,-0.1670915,1.49332,0.03869344,-0.468031,1.468484,-0.112154,0.01668599,1.475049,-0.03057895,-0.4569946,1.433243,-0.1556191,-0.2360176,1.46812,0.2509234,-0.2033951,1.439758,NA,NA,NotTracked,Unknown,
0.9453125,-0.331543,0.08642578,-0.4492188,0.3945313,0.8452148,-3,-4,-2,0,-2,-1,-2,-1,10,4,-7,-1,-4,0,1,3,-1.9375,-1.9375,-1.9375,57.5625,57.5625,57.5625,2.92319,3.068104,4.84028,5.663088,5.753421,3.218076,-0.1511029,-0.4849397,1.382361,0.131012,-0.08357439,1.324752,0.0651394,0.2689804,1.492776,-0.1898118,-0.4769446,1.379697,0.1373727,-0.0927408,1.311833,0.04351443,-0.1671698,1.493401,0.03863407,-0.4684661,1.468504,-0.1102593,0.01739431,1.475226,-0.03070828,-0.4577682,1.433985,-0.1556759,-0.2361382,1.467998,0.2532794,-0.2033103,1.428676,NA,NA,NotTracked,Unknown,
0.9257813,-0.3525391,0.08105469,-0.5200195,0.3149414,0.7675781,-2,-4,0,-1,0,-2,0,0,2,-22,-36,7,-17,-7,-1,3,-5.75,-5.75,-5.75,74.0625,74.0625,74.0625,2.916596,3.072361,4.835303,5.882856,6.071776,3.429024,-0.1517566,-0.4851328,1.381994,0.106513,-0.07516261,1.254529,0.06508388,0.2709346,1.493073,-0.1898806,-0.4775092,1.38496,0.1113636,-0.08565448,1.241954,0.04269817,-0.1670693,1.492958,0.03803435,-0.469017,1.468559,-0.118256,0.01918153,1.478986,-0.03181693,-0.4589257,1.435948,-0.1557693,-0.2361267,1.467809,0.2403653,-0.2010495,1.399351,NA,NA,NotTracked,Unknown,
0.9462891,-0.3417969,0.08007813,-0.5644531,0.3081055,0.5742188,-2,-1,0,0,-2,-1,-2,-1,0,-24,-1,94,22,11,1,3,5.375,5.375,5.375,40.875,40.875,40.875,2.906527,3.079836,4.85175,6.141338,6.295868,3.680043,-0.1526351,-0.4830652,1.381088,0.0659757,-0.104999,1.158269,0.06452736,0.2721633,1.493598,-0.1909842,-0.4764548,1.382746,0.02902765,-0.07543676,1.112492,0.0413847,-0.1678106,1.491365,0.03752733,-0.4696685,1.468656,-0.1196927,0.01949519,1.479755,-0.03251224,-0.4603462,1.438267,-0.1559892,-0.2364779,1.467459,0.2389125,-0.1934163,1.375062,NA,NA,NotTracked,Unknown,
0.9111328,-0.3334961,0.07958984,-0.6552734,0.3598633,0.4711914,-3,-5,0,-1,-1,0,-2,-1,-7,1,5,-33,11,17,2,0,4.6875,4.6875,4.6875,17,17,17,2.897171,3.083498,4.8698,6.361509,6.41006,3.916215,-0.1540651,-0.482863,1.380296,0.06367988,-0.09593511,1.149245,0.06432964,0.2720398,1.49386,-0.1937347,-0.4658331,1.383086,0.02676519,-0.06652997,1.103452,0.04038035,-0.1682754,1.49036,0.03715157,-0.4698674,1.468676,-0.1200744,0.01959215,1.4801,-0.03293278,-0.460745,1.439597,-0.1560952,-0.2364287,1.467335,0.238369,-0.18761,1.363274,NA,NA,NotTracked,Unknown,
0.9458008,-0.3413086,0.08544922,-0.7797852,0.440918,0.4194336,-1,-4,-4,-1,-1,-1,-1,-1,10,11,37,81,2,-5,3,0,2.5,2.5,2.5,-10.125,-10.125,-10.125,2.875163,3.080162,4.899066,6.414803,6.442314,3.999067,-0.1555574,-0.4833485,1.382645,0.06241106,-0.090285,1.144238,0.06435522,0.2723455,1.493827,-0.192317,-0.4753117,1.383312,0.025515,-0.06098012,1.098436,0.03969428,-0.168583,1.489323,0.03685279,-0.4700645,1.468706,-0.1201862,0.01964076,1.480235,-0.03324749,-0.4611408,1.440671,-0.1563498,-0.2361934,1.467238,0.2383823,-0.1841499,1.356263,NA,NA,NotTracked,Unknown,
0.9389648,-0.3339844,0.08886719,-0.7456055,0.487793,0.4082031,-3,-3,0,1,0,-1,-1,-1,38,32,8,41,49,15,-11,-10,0.75,0.75,0.75,-4.3125,-4.3125,-4.3125,2.862328,3.073376,4.917814,6.4372,6.458549,4.043345,-0.1559902,-0.4833427,1.38433,0.06035715,-0.08729402,1.141432,0.06438266,0.2727395,1.49381,-0.192294,-0.477431,1.382472,0.02349757,-0.05804228,1.095624,0.0388728,-0.1686968,1.488399,0.03652936,-0.4702408,1.468646,-0.1202206,0.01972216,1.480344,-0.0334849,-0.46131,1.441106,-0.1565481,-0.2360116,1.46726,0.2368458,-0.182826,1.352282,NA,NA,Unknown,Unknown,
0.9233398,-0.3500977,0.08789063,-0.7460938,0.534668,0.4179688,0,2,0,0,0,0,-2,-1,-9,-7,-31,-19,1,0,-5,-9,1.0625,1.0625,1.0625,5.4375,5.4375,5.4375,2.853985,3.068852,4.927777,6.453179,6.465257,4.067865,-0.1575373,-0.4835975,1.386228,0.05846488,-0.08542735,1.139891,0.06445934,0.2730299,1.493716,-0.1943502,-0.4710091,1.383797,0.02185464,-0.05661508,1.094442,0.03861498,-0.1687998,1.487639,0.03631766,-0.470372,1.468518,-0.1202139,0.0197922,1.480437,-0.03361685,-0.4614431,1.441339,-0.1569204,-0.2355158,1.467604,0.2352337,-0.1823647,1.349863,NA,NA,Unknown,Unknown,
0.9282227,-0.3520508,0.09423828,-0.809082,0.546875,0.3813477,-3,-3,0,-1,-3,-1,0,0,-1,-6,-16,-7,-1,2,-6,-15,1.625,1.625,1.625,17.375,17.375,17.375,2.85607,3.066095,4.929219,6.472227,6.464762,4.062527,-0.1572689,-0.4832105,1.387506,0.05804495,-0.08478539,1.139541,0.06447738,0.2731476,1.493641,-0.193234,-0.4774833,1.383047,0.02191394,-0.0568384,1.094812,0.03821355,-0.1689938,1.486972,0.03588006,-0.4706725,1.468322,-0.1202471,0.01979084,1.48055,-0.03390095,-0.4617049,1.441559,-0.1571646,-0.2352295,1.46792,0.2349938,-0.1822097,1.349135,NA,NA,Unknown,Unknown,
0.9326172,-0.3530273,0.09130859,-0.8266602,0.5751953,0.3886719,-4,-13,-2,-1,0,0,-1,-1,-3,-1,-20,-9,-58,-12,4,-15,-1.75,-1.75,-1.75,54,54,54,2.858952,3.06503,4.925093,6.523156,6.489709,4.012358,-0.1574751,-0.4859643,1.387353,0.05797819,-0.08438516,1.139452,0.06443428,0.2726963,1.49366,-0.1937656,-0.4739286,1.384057,0.02197106,-0.05675945,1.094915,0.0378756,-0.1693495,1.486604,0.03549142,-0.4709232,1.468199,-0.1202342,0.01976679,1.48061,-0.03420252,-0.4619136,1.441888,-0.1573341,-0.2349882,1.468164,0.2349782,-0.1821784,1.348831,NA,NA,NotTracked,Unknown,
0.9423828,-0.3500977,0.08105469,-0.965332,0.5024414,0.300293,-1,-7,-2,-1,-2,0,0,-2,7,4,3,6,4,-16,-20,-4,-3.375,-3.375,-3.375,97.3125,97.3125,97.3125,2.869572,3.065036,4.907444,6.705416,6.604201,4.002711,-0.155779,-0.4853725,1.387285,0.0588269,-0.08134027,1.138357,0.06434581,0.2728366,1.493254,-0.1931712,-0.4775971,1.384058,0.02218419,-0.05321141,1.093173,0.03818854,-0.1693871,1.4864,0.03538354,-0.4710169,1.468064,-0.1201852,0.0197686,1.480585,-0.03427773,-0.4620201,1.442104,-0.1574384,-0.2353768,1.468514,0.236613,-0.1805889,1.34638,NA,NA,NotTracked,Unknown,
0.9321289,-0.3564453,0.06591797,-0.9692383,0.4238281,0.1782227,-4,-1,-1,0,-3,-1,-2,0,4,23,6,-33,32,17,9,0,-6.4375,-6.4375,-6.4375,92.375,92.375,92.375,2.874173,3.068939,4.887498,6.981245,6.697495,4.135638,-0.1553423,-0.4850462,1.385337,0.06518497,-0.07178073,1.137475,0.06335701,0.274594,1.492123,-0.1934734,-0.4757489,1.384781,0.02822664,-0.04282357,1.091652,0.0395447,-0.1688652,1.486275,0.03536011,-0.4709929,1.468019,-0.1201563,0.01983974,1.480569,-0.03427784,-0.4619721,1.442265,-0.1574221,-0.2350203,1.468619,0.2462695,-0.1733528,1.341482,NA,NA,Unknown,Unknown,
0.9248047,-0.3374023,0.07128906,-0.8984375,0.3286133,0.06787109,0,-1,1,-1,-1,-3,-1,-2,-3,-12,-3,-7,-3,2,13,-18,-5.8125,-5.8125,-5.8125,64.875,64.875,64.875,2.871533,3.072402,4.882648,7.259944,6.763751,4.306319,-0.1548751,-0.4847789,1.383359,0.07368333,-0.05639022,1.135788,0.061594,0.2747602,1.490105,-0.1941908,-0.4701945,1.386114,0.03655721,-0.02773035,1.089958,0.04181131,-0.1684082,1.486472,0.03528734,-0.4709187,1.467982,-0.1196427,0.02026553,1.480188,-0.03438612,-0.4617782,1.442214,-0.1577909,-0.2338786,1.468484,0.2621186,-0.1618873,1.330923,NA,NA,NotTracked,Unknown,
0.9238281,-0.3417969,0.07617188,-0.8564453,0.3261719,0.04150391,1,7,0,0,-1,0,-1,0,0,39,6,-15,12,13,4,-17,-0.75,-0.75,-0.75,31.375,31.375,31.375,2.858221,3.080547,4.883143,7.439244,6.787537,4.39888,-0.1564277,-0.4827673,1.381098,0.07848328,-0.04428713,1.134749,0.06030811,0.2743442,1.488253,-0.1955509,-0.4749932,1.383632,0.04126199,-0.01586205,1.088915,0.04375266,-0.1678022,1.486884,0.03516782,-0.4706871,1.467907,-0.1190607,0.02061636,1.479456,-0.03460542,-0.4612612,1.441883,-0.1579283,-0.2329171,1.468218,0.2734251,-0.1512397,1.322525,NA,NA,Unknown,Unknown,
0.9423828,-0.3344727,0.08740234,-0.8662109,0.3681641,0.01171875,-3,-1,-2,-1,0,0,0,0,-1,17,-3,11,6,-6,3,-5,-1.25,-1.25,-1.25,9.875,9.875,9.875,2.856169,3.084286,4.883036,7.474941,6.783023,4.411093,-0.1575662,-0.4818258,1.378736,0.1242393,0.1516504,1.394085,0.05973056,0.2741322,1.487379,-0.1975825,-0.4673809,1.382401,0.1140912,0.1055437,1.431692,0.04475333,-0.1674593,1.487055,0.03504781,-0.4705038,1.467793,-0.1183788,0.02109559,1.47862,-0.03485047,-0.4608634,1.441405,-0.15836,-0.2321466,1.4675,0.2798608,-0.1440258,1.316998,NA,NA,Unknown,NotTracked,
0.9360352,-0.3232422,0.08203125,-0.9003906,0.4038086,0.0009765625,2,0,0,0,-2,-2,-3,-2,-3,-1,-7,-21,-14,10,19,-8,0.0625,0.0625,0.0625,-0.25,-0.25,-0.25,2.866614,3.084096,4.873862,7.47764,6.782232,4.412098,-0.1577699,-0.4820424,1.377167,0.1244917,0.1500214,1.39422,0.05946295,0.2736595,1.486651,-0.1980712,-0.4739728,1.380119,0.1118455,0.1070999,1.429353,0.04538362,-0.1672263,1.487209,0.03499141,-0.470364,1.467708,-0.1181766,0.02129339,1.478154,-0.03495704,-0.4605775,1.441033,-0.1584482,-0.2315994,1.467103,0.2826102,-0.1405238,1.315436,NA,NA,Unknown,NotTracked,
0.9355469,-0.3339844,0.08544922,-0.8979492,0.4321289,0.006347656,-1,2,-2,-2,-1,0,-2,0,0,-7,-7,7,-7,16,9,-5,-1.5625,-1.5625,-1.5625,0.1875,0.1875,0.1875,2.87164,3.081924,4.866478,7.471325,6.790077,4.406687,-0.1576738,-0.4812148,1.378678,0.1260696,0.1494447,1.394989,0.0592901,0.2732524,1.486361,-0.19561,-0.4805596,1.378632,0.1105924,0.1089832,1.436779,0.0458861,-0.1669902,1.487408,0.03497285,-0.47025,1.467632,-0.1181049,0.02126514,1.477786,-0.03500553,-0.4603911,1.440817,-0.1585734,-0.2311618,1.466787,0.284536,-0.1380065,1.314689,NA,NA,Unknown,NotTracked,
0.9331055,-0.3432617,0.08007813,-0.9238281,0.440918,0.006347656,-3,-3,0,0,-1,0,-1,0,-6,-5,-5,-16,13,1,-10,3,-0.3125,-0.3125,-0.3125,-0.8125,-0.8125,-0.8125,2.878456,3.077216,4.856814,7.463595,6.796806,4.404077,-0.1568004,-0.4823842,1.379028,0.1256635,0.1476326,1.395036,0.05920494,0.2730243,1.486276,-0.1951121,-0.4758925,1.380035,0.115364,0.1042612,1.438949,0.04619994,-0.1668762,1.487478,0.03493739,-0.4701009,1.467515,-0.1181607,0.02131832,1.477474,-0.03506536,-0.46025,1.44055,-0.1587171,-0.2308674,1.466569,0.2850092,-0.1365436,1.314234,NA,NA,Unknown,NotTracked,
0.9311523,-0.3447266,0.08251953,-0.9130859,0.4423828,0.004394531,-1,1,-1,-1,0,-1,-1,-2,2,14,-6,-23,-17,-6,-3,-1,-2.1875,-2.1875,-2.1875,-0.5,-0.5,-0.5,2.881835,3.073358,4.852108,7.455223,6.798905,4.397194,-0.1570234,-0.4822409,1.380135,0.1259777,0.1469563,1.394271,0.05916661,0.2726854,1.486092,-0.1956659,-0.4773194,1.380033,0.1188532,0.1007164,1.439014,0.04631033,-0.1668756,1.487481,0.03480998,-0.470054,1.46735,-0.11813,0.02141254,1.477101,-0.03525488,-0.4601437,1.440252,-0.1588803,-0.2308628,1.466278,0.2858674,-0.1363946,1.313721,NA,NA,Unknown,NotTracked,
0.9345703,-0.3417969,0.08789063,-0.9160156,0.418457,0.004394531,-1,-2,0,-1,-1,-3,-2,-1,3,8,6,10,13,4,-3,-5,-0.0625,-0.0625,-0.0625,-0.125,-0.125,-0.125,2.879284,3.071422,4.852619,7.452938,6.800242,4.396509,-0.1567935,-0.4820043,1.38023,0.1266547,0.144384,1.392686,0.05909438,0.2724389,1.485857,-0.1957376,-0.4768645,1.380178,0.1198433,0.09956793,1.441304,0.04649759,-0.166836,1.487505,0.03477484,-0.4700267,1.467255,-0.1181807,0.02143629,1.476665,-0.03531735,-0.4600691,1.439996,-0.1589998,-0.2307057,1.466027,0.2861053,-0.1359146,1.313293,NA,NA,Unknown,NotTracked,
0.934082,-0.347168,0.08349609,-0.8725586,0.3959961,0.008789063,-2,-1,-2,0,-1,-1,0,1,3,4,-11,-4,-1,-3,-4,4,0.1875,0.1875,0.1875,3,3,3,2.877999,3.071526,4.853681,7.452147,6.803951,4.393577,-0.1569263,-0.4822332,1.380487,0.1269345,0.1439438,1.393707,0.05906681,0.2722619,1.485771,-0.1956709,-0.4759692,1.380827,0.121867,0.09798051,1.441236,0.04664141,-0.1667777,1.487487,0.0347131,-0.4700004,1.467126,-0.1181664,0.02123944,1.476313,-0.03543439,-0.4600177,1.439689,-0.1590117,-0.2305442,1.465891,0.2863594,-0.1356876,1.313338,NA,NA,Unknown,NotTracked,
0.9311523,-0.3422852,0.08349609,-0.8725586,0.402832,0.05078125,3,-2,0,-1,-1,-1,-1,-2,-4,-10,-1,-8,-17,-9,0,-3,0.1875,0.1875,0.1875,-6.75,-6.75,-6.75,2.878336,3.07164,4.853223,7.391865,6.799601,4.339604,-0.1568126,-0.4824581,1.379945,0.1269884,0.1447524,1.392353,0.05895204,0.2720507,1.485632,-0.1964418,-0.4705197,1.381268,0.1229475,0.09568568,1.440336,0.04668556,-0.1667861,1.487484,0.03462021,-0.4699878,1.467045,-0.1182505,0.02115651,1.476087,-0.03555865,-0.4599801,1.439503,-0.1590422,-0.2304412,1.465837,0.2865342,-0.135908,1.313263,NA,NA,Unknown,NotTracked,
0.9379883,-0.34375,0.09033203,-0.871582,0.4077148,0.06103516,-2,-4,-2,-3,-1,-2,0,-1,-3,3,0,-3,13,-1,2,-1,0.3125,0.3125,0.3125,-10.3125,-10.3125,-10.3125,2.878957,3.07218,4.852329,7.250691,6.786324,4.206001,-0.1578942,-0.4826431,1.379852,0.1252655,0.1451862,1.392617,0.05884634,0.272008,1.485672,-0.1956471,-0.4769337,1.379009,0.1200516,0.09742214,1.440926,0.04671051,-0.1667747,1.487513,0.03456334,-0.4699523,1.46702,-0.1182549,0.02123131,1.476011,-0.03561771,-0.4599426,1.439416,-0.1591229,-0.2303665,1.465819,0.286139,-0.136518,1.314056,NA,NA,Unknown,NotTracked,
0.9301758,-0.3330078,0.08056641,-0.9243164,0.4008789,0.1274414,2,1,-2,-1,-2,-2,-1,-1,3,2,-2,9,2,0,-1,-1,0.1875,0.1875,0.1875,-24.25,-24.25,-24.25,2.887425,3.071162,4.845316,7.039069,6.752471,4.001909,-0.1567324,-0.48233,1.3796,0.1228957,0.1441311,1.387847,0.0586785,0.2719193,1.485615,-0.1957158,-0.4757061,1.380936,0.1167548,0.09889561,1.438262,0.04676193,-0.1667642,1.48744,0.03453159,-0.4699545,1.466874,-0.1183914,0.02111007,1.475648,-0.03563831,-0.4599529,1.439316,-0.1591383,-0.2303176,1.465776,0.2845998,-0.139946,1.317904,NA,NA,Unknown,NotTracked,
0.9277344,-0.3422852,0.08642578,-0.8427734,0.4624023,0.1826172,-1,-3,-3,-1,1,-2,0,-4,0,4,-1,-3,5,3,-1,-2,-1.6875,-1.6875,-1.6875,-20.5,-20.5,-20.5,2.892309,3.070293,4.836985,6.809693,6.691702,3.784257,-0.1566296,-0.4823484,1.380135,0.1199605,0.1394811,1.379712,0.05828022,0.2718814,1.485689,-0.1956114,-0.475743,1.380152,0.1165062,0.09215643,1.424308,0.04673524,-0.1668131,1.487394,0.03453594,-0.4699791,1.466817,-0.118868,0.02064954,1.475463,-0.03563441,-0.4600167,1.439296,-0.1591795,-0.2304256,1.465527,0.2823625,-0.1436013,1.322043,NA,NA,Unknown,NotTracked,
0.9311523,-0.3422852,0.09033203,-0.7954102,0.4506836,0.3149414,-1,-3,0,-3,-2,-1,-1,-2,0,3,3,-2,-3,-1,-1,1,-2.75,-2.75,-2.75,-39.625,-39.625,-39.625,2.89847,3.067265,4.82463,6.59412,6.574297,3.595222,-0.1564869,-0.4825151,1.378844,0.1086804,0.1472481,1.37072,0.05756994,0.2723776,1.485592,-0.1952342,-0.4772802,1.379666,0.09076389,0.0999465,1.3917,0.04652501,-0.1668747,1.486924,0.03460501,-0.4701041,1.466623,-0.1195159,0.02010218,1.475091,-0.03557115,-0.4602236,1.43926,-0.1592497,-0.2304685,1.465187,0.2773321,-0.1512038,1.332223,NA,NA,Unknown,NotTracked,
0.9306641,-0.3325195,0.08398438,-0.6484375,0.4731445,0.4399414,-2,-1,-1,0,0,-2,-1,-1,0,-16,-2,6,16,4,-1,-1,1.3125,1.3125,1.3125,-53,-53,-53,2.908179,3.067688,4.815118,6.328227,6.30716,3.380522,-0.1556537,-0.4822919,1.379238,0.106517,0.1060965,1.339359,0.05644836,0.2740365,1.485954,-0.1953813,-0.4754961,1.379605,0.05807164,0.08446454,1.349385,0.04536445,-0.1671841,1.486494,0.03457429,-0.470323,1.466516,-0.1201627,0.02012029,1.475058,-0.03560754,-0.4605516,1.439334,-0.1593526,-0.2311931,1.464914,0.2730355,-0.1611829,1.346626,NA,NA,NotTracked,Unknown,
0.9335938,-0.3398438,0.09667969,-0.5371094,0.4345703,0.6015625,-3,-9,-1,-2,-1,-1,-1,-2,-2,2,-5,3,3,0,-2,-2,5.1875,5.1875,5.1875,-58.625,-58.625,-58.625,2.917948,3.070669,4.807718,6.144265,6.017507,3.255996,-0.1557201,-0.482615,1.378178,0.08931047,0.07014353,1.318103,0.05559441,0.2737697,1.486916,-0.1954128,-0.4760168,1.37963,0.0454176,0.04709931,1.33,0.04216679,-0.1680301,1.486028,0.03442789,-0.4708955,1.466211,-0.1223659,0.01982353,1.475543,-0.0357885,-0.4613473,1.439275,-0.1594543,-0.2319271,1.464401,0.267661,-0.1759292,1.36061,NA,NA,NotTracked,Unknown,
0.9208984,-0.328125,0.09960938,-0.4824219,0.5263672,0.6870117,0,2,-1,-1,-1,-1,-2,0,4,7,0,27,40,6,-1,-2,-1.25,-1.25,-1.25,-71.875,-71.875,-71.875,2.929278,3.069284,4.800247,5.928771,5.541838,3.087516,-0.1553251,-0.4835887,1.379097,0.07608887,0.007425434,1.297517,0.055547,0.2721138,1.488219,-0.1952043,-0.477334,1.381271,0.08688797,0.03879642,1.356539,0.04072169,-0.1683233,1.486877,0.03434239,-0.4711024,1.466007,-0.1234282,0.01977463,1.475702,-0.0357737,-0.461582,1.438464,-0.1593425,-0.2325505,1.463984,0.2669574,-0.1840868,1.383884,NA,NA,NotTracked,Unknown,
0.9389648,-0.328125,0.1000977,-0.3891602,0.5039063,0.7919922,-2,-2,-3,-2,0,0,-2,-1,-1,-10,-14,-13,-4,-1,-1,-1,6.75,6.75,6.75,-18.5,-18.5,-18.5,2.938521,3.069402,4.79581,5.817606,5.130206,2.977956,-0.1544417,-0.4825691,1.378268,0.06007806,-0.0760687,1.276069,0.05565,0.2713707,1.489278,-0.1945349,-0.4760493,1.380515,0.01612091,-0.1051613,1.296727,0.04043256,-0.1682185,1.48735,0.03457123,-0.470564,1.465728,-0.1225048,0.01810583,1.474205,-0.03484288,-0.4604189,1.435125,-0.159455,-0.2332929,1.463588,0.2613751,-0.188634,1.393054,NA,NA,NotTracked,Unknown,
0.9262695,-0.3222656,0.09960938,0.1977539,0.4267578,0.7612305,-3,0,0,-2,-1,0,-1,-2,-9,8,51,39,7,2,2,7,-0.8125,-0.8125,-0.8125,-60.25,-60.25,-60.25,2.971804,3.060826,4.774931,5.780029,4.666595,2.89403,-0.153137,-0.4829994,1.381068,0.07877503,-0.2016481,1.258597,0.05562599,0.2711893,1.489975,-0.1917847,-0.4774414,1.383011,0.05767385,-0.1623376,1.30425,0.03992131,-0.167763,1.48774,0.03454444,-0.4694068,1.465408,-0.1229453,0.01732026,1.473893,-0.03456924,-0.4589684,1.433339,-0.1591407,-0.2341499,1.463221,0.2608531,-0.1943948,1.411442,NA,NA,NotTracked,Unknown,
0.9365234,-0.331543,0.09716797,0.7827148,0.4399414,0.8984375,0,-1,-2,0,0,-1,0,-1,16,-8,-4,-8,-3,-1,1,2,-2.125,-2.125,-2.125,38,38,38,2.982908,3.052892,4.75992,5.844965,4.082674,2.789996,-0.152326,-0.483714,1.381697,0.1005533,-0.3091857,1.256299,0.05543649,0.2711733,1.490419,-0.1897209,-0.4780592,1.380803,0.1081044,-0.3690551,1.275781,0.03973689,-0.1676672,1.487895,0.0347196,-0.4692446,1.465235,-0.123192,0.01684567,1.473678,-0.0339267,-0.458715,1.432148,-0.1589641,-0.2344439,1.463148,0.2675666,-0.1949832,1.425452,NA,NA,NotTracked,Closed,
0.9536133,-0.3388672,0.08691406,0.9023438,0.465332,0.4897461,-3,-1,0,0,-3,-2,0,-3,-22,2,-6,-2,4,-3,-1,-1,-0.625,-0.625,-0.625,-34.75,-34.75,-34.75,2.988522,3.047386,4.747703,5.936903,3.666475,2.677954,-0.1516127,-0.4830692,1.38307,0.1306155,-0.3942997,1.283269,0.05532783,0.2711043,1.490755,-0.189042,-0.479338,1.384245,0.1672309,-0.442102,1.289214,0.03888953,-0.1676361,1.487978,0.03388159,-0.4693155,1.464474,-0.1236816,0.01623989,1.473468,-0.03505757,-0.4583864,1.430339,-0.1588459,-0.2356207,1.463144,0.2391771,-0.2054563,1.451558,NA,NA,NotTracked,Unknown,
0.9370117,-0.3359375,0.1118164,0.9746094,0.4389648,0.394043,0,2,-2,-3,-3,-1,-1,-2,5,16,2,0,2,0,1,3,-3.875,-3.875,-3.875,-42.8125,-42.8125,-42.8125,2.993941,3.047033,4.734886,6.029007,3.315784,2.486551,-0.1504232,-0.4839988,1.38252,0.1711068,-0.4470242,1.309419,0.05525427,0.2710792,1.490835,-0.1880009,-0.4809986,1.382822,0.2071835,-0.4505576,1.311609,0.03785155,-0.1675991,1.487837,0.03199624,-0.4693537,1.463319,-0.1241438,0.01561898,1.473004,-0.0375822,-0.4578746,1.428247,-0.158752,-0.2360606,1.463,0.2327908,-0.2123998,1.455701,NA,NA,NotTracked,Unknown,
0.9443359,-0.3168945,0.09423828,1.174805,0.2524414,0.2006836,-2,-3,0,-2,-2,-1,-2,0,-4,-11,0,0,-1,0,-1,1,4.6875,4.6875,4.6875,-61.875,-61.875,-61.875,2.991867,3.051795,4.742017,6.220893,3.052692,2.174322,-0.1505397,-0.4834948,1.382408,0.1991722,-0.4831322,1.343763,0.05509356,0.2709881,1.491037,-0.1902726,-0.4765503,1.384464,0.2329686,-0.4786094,1.340297,0.03756971,-0.167559,1.487931,0.03202877,-0.4693385,1.463183,-0.1243604,0.01539892,1.472942,-0.03754244,-0.4579043,1.427983,-0.1584406,-0.2366581,1.462929,0.228292,-0.2286911,1.454769,NA,NA,NotTracked,Unknown,
0.9526367,-0.3242188,0.09326172,1.024902,0.2421875,0.1757813,-3,-3,-1,-1,-2,-2,-1,0,2,0,-2,0,0,0,5,0,6.3125,6.3125,6.3125,-30.5,-30.5,-30.5,2.988018,3.056647,4.753221,6.47582,2.914318,1.80499,-0.1501756,-0.4832422,1.380654,0.2171886,-0.4949859,1.36851,0.05506589,0.2710239,1.491135,-0.1901769,-0.4779988,1.382768,0.2534012,-0.4939083,1.366714,0.03764799,-0.1675584,1.487992,0.03336557,-0.4694844,1.463251,-0.1247096,0.01513412,1.472876,-0.03596409,-0.4583985,1.427619,-0.1583977,-0.2369101,1.462923,0.2285978,-0.2375623,1.454649,NA,NA,NotTracked,NotTracked,
0.9169922,-0.3105469,0.09228516,0.9448242,0.1733398,0.3178711,-3,-1,0,-1,-3,0,0,-1,-1,2,1,-3,0,-2,0,-1,4,4,4,-10.4375,-10.4375,-10.4375,2.984114,3.059766,4.767347,6.459523,2.900169,1.790812,-0.1519859,-0.4839835,1.381982,0.2232127,-0.4973867,1.377021,0.05505748,0.2710376,1.491071,-0.1909626,-0.4791467,1.382353,0.261419,-0.4816842,1.377333,0.03781737,-0.1675389,1.488044,0.03500267,-0.4695198,1.463526,-0.1249074,0.01504205,1.472834,-0.03434481,-0.458691,1.427703,-0.158407,-0.23632,1.463226,0.2307901,-0.2419687,1.457875,NA,NA,NotTracked,NotTracked,
