ALX,ALY,ALZ,ARX,ARY,ARZ,EMG0L,EMG1L,EMG2L,EMG3L,EMG4L,EMG5L,EMG6L,EMG7L,EMG0R,EMG1R,EMG2R,EMG3R,EMG4R,EMG5R,EMG6R,EMG7R,GLX,GLY,GLZ,GRX,GRY,GRZ,ORL,OPL,OYL,ORR,OPR,OYR,LHNX,LHNY,LHNZ,RHNX,RHNY,RHNZ,HX,HY,HZ,LTX,LTY,LTZ,RTX,RTY,RTZ,SpineMidX,SpineMidY,SpineMidZ,SpineBaseX,SpineBaseY,SpineBaseZ,ShoulderLeftX,ShoulderLeftY,ShoulderLeftZ,ShoulderRightX,ShoulderRightY,ShoulderRightZ,ElbowLeftX,ElbowLeftY,ElbowLeftZ,ElbowRightX,ElbowRightY,ElbowRightZ,Myo_Pose_left,Myo_Pose_Right,Kinect_pose_left,Kinect_pose_right
0.9335938,-0.3427734,0.08886719,-0.6240234,0.3320313,0.5952148,-1,-4,-3,-1,-1,-1,-1,0,18,8,13,-7,-3,-1,9,13,0.5,0.5,0.5,45.375,45.375,45.375,2.87469,3.084437,4.926015,6.029016,6.221681,3.521043,-0.1555751,-0.4803738,1.37142,0.09120137,0.06312209,1.328398,0.06115486,0.2797706,1.497947,-0.1939121,-0.4746947,1.373438,0.04836313,0.05846202,1.337538,0.04175417,-0.1616887,1.491512,0.03889908,-0.4652109,1.466826,-0.1223695,0.02389324,1.47195,-0.0311278,-0.4563518,1.436483,-0.1612263,-0.2260809,1.457852,0.2497747,-0.1906223,1.381085,NA,NA,NotTracked,Unknown,
0.9365234,-0.3525391,0.07958984,-0.6274414,0.3857422,0.4584961,-2,1,-2,0,-1,-1,-1,0,-6,65,44,38,-43,-10,2,5,2.6875,2.6875,2.6875,9.1875,9.1875,9.1875,2.868012,3.088026,4.93661,6.307068,6.395784,3.834806,-0.1564725,-0.4804692,1.372596,0.09562624,0.07106077,1.347219,0.0612276,0.279875,1.497849,-0.1926123,-0.4785281,1.371531,0.08458363,0.02698809,1.362018,0.0410374,-0.1624408,1.490565,0.03832112,-0.4658393,1.467036,-0.1231288,0.02399299,1.473701,-0.03179398,-0.4573773,1.438616,-0.1612171,-0.2260869,1.45795,0.2489542,-0.1865503,1.374623,NA,NA,NotTracked,Unknown,
0.9199219,-0.3447266,0.09423828,-0.7211914,0.4477539,0.4589844,0,1,1,-1,-1,-2,-1,-1,-5,-10,-5,7,7,-6,4,1,1.0625,1.0625,1.0625,-2.0625,-2.0625,-2.0625,2.866706,3.08924,4.943922,6.380849,6.43646,3.940557,-0.1569364,-0.4805839,1.373404,0.09504139,0.07655501,1.354945,0.06141662,0.2795702,1.497731,-0.1943689,-0.4725544,1.37344,0.05147992,0.08347902,1.332105,0.04014659,-0.1630385,1.489787,0.03794399,-0.4662027,1.467147,-0.1231458,0.02398114,1.474638,-0.03211314,-0.4579021,1.439754,-0.1612413,-0.2262211,1.458102,0.2474348,-0.1821123,1.3649,NA,NA,Unknown,NotTracked,
0.9467773,-0.3515625,0.08642578,-0.7817383,0.4785156,0.4155273,-2,-1,-2,-1,-3,-2,0,0,-2,13,0,-51,-9,-5,2,-16,4.0625,4.0625,4.0625,-10.5,-10.5,-10.5,2.866579,3.089876,4.949621,6.41657,6.464073,4.002251,-0.1571535,-0.4806389,1.3737,0.0925274,0.07875396,1.359084,0.06156041,0.279681,1.497594,-0.194322,-0.4723969,1.373424,0.047701,0.08700607,1.337875,0.03950185,-0.1633559,1.489073,0.03759301,-0.466439,1.467175,-0.1232301,0.0237637,1.475799,-0.03233898,-0.4581783,1.440358,-0.1612133,-0.2264254,1.458598,0.2449185,-0.1801516,1.361396,NA,NA,Unknown,NotTracked,
0.9213867,-0.3540039,0.09082031,-0.7875977,0.5058594,0.3999023,-1,-1,-2,-1,-2,1,0,0,-4,16,-4,17,-9,2,8,19,2.875,2.875,2.875,-3.5625,-3.5625,-3.5625,2.870939,3.090087,4.950321,6.445315,6.471587,4.052065,-0.1565364,-0.4806315,1.375527,0.08949105,0.07946742,1.363416,0.06171057,0.2797572,1.497618,-0.1937599,-0.473489,1.373026,0.08556539,0.04030004,1.360863,0.03914539,-0.1635638,1.488495,0.03729823,-0.4665734,1.467142,-0.1232036,0.02370695,1.476392,-0.03254135,-0.4582892,1.440677,-0.1612245,-0.2263921,1.459212,0.2429295,-0.1789002,1.358655,NA,NA,Unknown,NotTracked,
0.9174805,-0.3520508,0.08837891,-0.7695313,0.5825195,0.4311523,-5,-4,-1,-1,-1,-1,0,-1,1,-8,-9,-5,2,10,8,1,-0.0625,-0.0625,-0.0625,32.5,32.5,32.5,2.876206,3.088345,4.948899,6.472034,6.465198,4.039824,-0.1568465,-0.4811381,1.376439,0.08890818,0.0805376,1.362452,0.06181636,0.279681,1.497589,-0.1946368,-0.4709669,1.375095,0.08506468,0.04264764,1.356471,0.03885538,-0.1638688,1.487982,0.03697819,-0.4668204,1.467107,-0.1230029,0.02346879,1.477012,-0.03275306,-0.4585223,1.440967,-0.1611548,-0.2269643,1.459801,0.2419252,-0.1784027,1.357275,NA,NA,Unknown,NotTracked,
0.9448242,-0.3764648,0.09326172,-0.8706055,0.5664063,0.3789063,0,0,-1,-1,-3,-1,-1,-1,-4,5,-5,-51,-23,-6,5,-13,-2.75,-2.75,-2.75,66.875,66.875,66.875,2.872018,3.083477,4.947607,6.554175,6.522669,4.026698,-0.1565876,-0.4813109,1.377022,0.09415829,0.08372251,1.361442,0.06177748,0.2794312,1.497615,-0.1941016,-0.4713174,1.375979,0.04643765,0.09390129,1.343383,0.03859745,-0.1642096,1.487611,0.03671459,-0.4670622,1.467015,-0.1228044,0.02319868,1.477392,-0.03292486,-0.4586915,1.441213,-0.160878,-0.2273331,1.460583,0.2417284,-0.1781721,1.35638,NA,NA,Unknown,NotTracked,
0.9262695,-0.3496094,0.07421875,-0.9257813,0.4956055,0.2807617,-3,-5,-1,-1,-1,-1,-2,0,14,-29,-47,-40,-2,-14,2,8,-3.4375,-3.4375,-3.4375,84.3125,84.3125,84.3125,2.867614,3.080946,4.948591,6.690821,6.614537,4.03627,-0.1564043,-0.4803799,1.378388,0.1096902,0.09042791,1.3743,0.06149492,0.2796512,1.497362,-0.1940318,-0.4636823,1.37975,0.09678666,0.04150785,1.40808,0.03911317,-0.1644837,1.487494,0.03646076,-0.4674952,1.467053,-0.1226269,0.02318277,1.477688,-0.03316448,-0.4591736,1.441975,-0.1608568,-0.2275281,1.461006,0.2441134,-0.1767109,1.353668,NA,NA,Unknown,NotTracked,
0.9243164,-0.3706055,0.08349609,-0.9135742,0.3603516,0.1479492,-1,1,0,-1,-1,-2,0,-2,3,-2,-22,13,-25,3,-11,-3,-9.1875,-9.1875,-9.1875,67.8125,67.8125,67.8125,2.849666,3.080533,4.953152,6.980439,6.743249,4.161886,-0.1572584,-0.4813578,1.376478,0.1259315,0.09550129,1.375996,0.06017227,0.2797249,1.495529,-0.1941898,-0.4755002,1.374594,0.1218102,0.04318547,1.412339,0.0407139,-0.1647282,1.487226,0.03644718,-0.4676955,1.466958,-0.1222974,0.02311218,1.477702,-0.03315593,-0.4593217,1.442063,-0.1607284,-0.2271444,1.461213,0.2519819,-0.1707375,1.345823,NA,NA,Unknown,NotTracked,
0.9306641,-0.3496094,0.07763672,-0.9404297,0.2958984,0.05908203,0,1,-1,-1,-3,-3,-1,-1,11,-17,-17,0,8,11,7,7,-5.75,-5.75,-5.75,39.875,39.875,39.875,2.823079,3.082976,4.967635,7.176332,6.797423,4.290349,-0.1577682,-0.4810705,1.37701,0.09698635,0.1562872,1.391817,0.05907425,0.2793388,1.494332,-0.1946713,-0.4858107,1.375609,0.1260946,0.1439379,1.354531,0.04338603,-0.1648953,1.487491,0.03643359,-0.4677708,1.467026,-0.1216028,0.02294698,1.47772,-0.03314963,-0.4593599,1.442183,-0.1607553,-0.2267113,1.461646,0.2613801,-0.1636722,1.341089,NA,NA,Unknown,NotTracked,
0.9287109,-0.3588867,0.09472656,-0.8710938,0.3452148,0.04785156,-2,-1,-1,-2,-4,-1,0,0,-18,-27,-11,-5,-57,28,3,0,-3.125,-3.125,-3.125,6.5625,6.5625,6.5625,2.817286,3.088274,4.968841,7.256448,6.791379,4.349185,-0.1581094,-0.4812723,1.374528,0.09704904,0.1552804,1.391789,0.0582775,0.2780146,1.493539,-0.1957884,-0.4722744,1.375712,0.1408222,0.1095735,1.341996,0.04502524,-0.1651778,1.487671,0.03643844,-0.4677854,1.467017,-0.1209469,0.02280468,1.47749,-0.03313553,-0.4593386,1.442185,-0.1606712,-0.2265535,1.461645,0.2676123,-0.1582676,1.336609,NA,NA,Unknown,NotTracked,
0.9389648,-0.3359375,0.08154297,-0.8867188,0.4077148,0.07910156,-1,9,-2,-1,-3,-4,-1,-1,-18,-27,-1,36,34,34,28,8,-0.9375,-0.9375,-0.9375,3.8125,3.8125,3.8125,2.823859,3.089498,4.961016,7.261722,6.793021,4.349481,-0.157946,-0.4798871,1.372841,0.1018933,0.1509502,1.391212,0.05815006,0.2773522,1.493108,-0.1948248,-0.4755309,1.374869,0.140887,0.1048257,1.339667,0.04622724,-0.1653913,1.487729,0.03646426,-0.467851,1.466995,-0.1203533,0.02252968,1.477233,-0.03312995,-0.4593275,1.442129,-0.1605547,-0.2263614,1.461497,0.2713417,-0.1553335,1.333996,NA,NA,Unknown,NotTracked,
0.9389648,-0.3486328,0.08496094,-0.9038086,0.4277344,0.05664063,4,-1,0,-1,-2,-1,0,0,-9,-10,-11,-4,27,17,13,11,-3.6875,-3.6875,-3.6875,-0.125,-0.125,-0.125,2.836631,3.091954,4.941882,7.267629,6.801531,4.355954,-0.1570274,-0.4788946,1.371779,0.1019398,0.1511943,1.391551,0.05825244,0.2770351,1.492772,-0.1956805,-0.4683911,1.371382,0.1454333,0.1025106,1.340262,0.04705708,-0.1655246,1.487904,0.0365035,-0.467943,1.467036,-0.1197133,0.0223048,1.476918,-0.03312866,-0.459336,1.442134,-0.1599923,-0.2253261,1.461219,0.2721735,-0.1550551,1.332676,NA,NA,Unknown,NotTracked,
0.9140625,-0.3442383,0.06591797,-0.9067383,0.4013672,0.05761719,-4,0,-1,-2,-1,-2,-2,-1,11,27,4,2,-2,-3,-3,2,0.0625,0.0625,0.0625,-7.25,-7.25,-7.25,2.849409,3.093966,4.925877,7.255079,6.800573,4.354731,-0.1552645,-0.4771979,1.371172,0.1380715,0.1073595,1.379907,0.05833937,0.2768166,1.492713,-0.1944343,-0.4707552,1.373381,0.1406471,0.108001,1.341384,0.04733861,-0.1656478,1.487977,0.03661353,-0.4680991,1.467109,-0.1191669,0.02229985,1.476768,-0.03307543,-0.4593869,1.442164,-0.1597246,-0.2251313,1.460956,0.2730917,-0.1544321,1.331452,NA,NA,Unknown,NotTracked,
0.9257813,-0.3481445,0.07080078,-0.9106445,0.4238281,0.07226563,-1,0,1,-2,-1,-3,-2,-1,1,19,0,8,-4,-7,-5,-1,-2.625,-2.625,-2.625,-5.5,-5.5,-5.5,2.855218,3.095148,4.916688,7.22526,6.801554,4.335306,-0.1537119,-0.4765182,1.37026,0.1380357,0.1067232,1.380223,0.05841163,0.2765172,1.492717,-0.1943261,-0.4731116,1.37472,0.1439638,0.1013203,1.34196,0.04797269,-0.1658077,1.488194,0.03673879,-0.4682284,1.467171,-0.1183778,0.0224931,1.476551,-0.03300228,-0.4594467,1.442209,-0.1592998,-0.2248557,1.46052,0.2733877,-0.1544958,1.330787,NA,NA,Unknown,NotTracked,
0.934082,-0.3535156,0.07568359,-0.9047852,0.3979492,0.08398438,-4,-3,-1,-1,-2,1,-1,0,-7,1,-6,25,-9,-18,-5,-5,-1.8125,-1.8125,-1.8125,3.3125,3.3125,3.3125,2.85892,3.095561,4.911613,7.190918,6.810309,4.295583,-0.1532366,-0.4767755,1.370871,0.1380133,0.1077522,1.381529,0.05858934,0.276236,1.49276,-0.1936898,-0.4725239,1.374741,0.1355664,0.1089079,1.342742,0.04871288,-0.1659478,1.488315,0.03687388,-0.4683217,1.467197,-0.1180993,0.0223465,1.476591,-0.0328954,-0.459481,1.442237,-0.1589102,-0.2249719,1.460213,0.2734903,-0.154613,1.330642,NA,NA,Unknown,NotTracked,
0.9228516,-0.3540039,0.07470703,-0.9160156,0.3828125,0.09277344,1,1,0,-1,0,0,1,0,4,21,13,1,-12,0,4,-9,-0.625,-0.625,-0.625,-2.0625,-2.0625,-2.0625,2.855075,3.092968,4.914009,7.122505,6.80977,4.228538,-0.1537525,-0.479365,1.370966,0.1379779,0.106845,1.382843,0.05877344,0.2760592,1.492763,-0.1936961,-0.4730372,1.374668,0.1347174,0.109841,1.342528,0.04905127,-0.166047,1.488453,0.03697497,-0.4684344,1.467239,-0.1174536,0.02235272,1.47627,-0.03284204,-0.459535,1.442253,-0.1586416,-0.2247662,1.460157,0.2735923,-0.1550529,1.330964,NA,NA,Unknown,NotTracked,
0.9306641,-0.3569336,0.09277344,-0.8530273,0.394043,0.152832,-2,-1,-2,-1,-1,-3,-2,0,-3,22,-7,-16,-14,-13,-2,-3,0.25,0.25,0.25,-7.4375,-7.4375,-7.4375,2.850698,3.088773,4.91853,6.943659,6.785042,4.051733,-0.1534139,-0.4801553,1.371952,0.1106168,0.1422222,1.386397,0.05901325,0.27588,1.492882,-0.1927612,-0.4692733,1.374625,0.09770711,0.2074023,1.3825,0.04911137,-0.1661467,1.488465,0.03720771,-0.4686899,1.467358,-0.1097628,0.02186293,1.474758,-0.03267357,-0.4596806,1.442354,-0.1585056,-0.2250094,1.460217,0.2734025,-0.1561842,1.332355,NA,NA,Unknown,NotTracked,
0.9272461,-0.3461914,0.0859375,-0.8383789,0.4052734,0.1953125,-1,-1,0,0,-1,-2,-1,-2,0,-10,-4,-9,-5,-1,-1,-4,-0.5625,-0.5625,-0.5625,-14.1875,-14.1875,-14.1875,2.846762,3.082956,4.921505,6.786206,6.736791,3.898089,-0.1539584,-0.4802747,1.373361,0.1080519,0.1421633,1.383808,0.05907398,0.2759358,1.493109,-0.1933757,-0.4711385,1.375071,0.1381215,0.1513635,1.385088,0.04916318,-0.166289,1.488461,0.03745289,-0.4689615,1.467507,-0.1068901,0.02189138,1.474387,-0.03246332,-0.4598818,1.442505,-0.1584791,-0.2248176,1.460286,0.2725943,-0.1593813,1.337319,NA,NA,Unknown,NotTracked,
0.9262695,-0.3647461,0.09423828,-0.8569336,0.3920898,0.2885742,1,0,1,2,-2,-1,-1,-1,-10,-5,-7,-16,5,0,2,1,-0.0625,-0.0625,-0.0625,-23.8125,-23.8125,-23.8125,2.854183,3.079283,4.911331,6.565047,6.638406,3.690562,-0.1535707,-0.481214,1.373313,0.09939335,0.1432866,1.383141,0.05912959,0.2760666,1.493213,-0.1913826,-0.4796035,1.373501,0.1313742,0.1650043,1.351,0.04870313,-0.1665345,1.488307,0.03768433,-0.4693544,1.467534,-0.1058549,0.02197149,1.473959,-0.03228407,-0.4601918,1.442591,-0.1584374,-0.2248745,1.460306,0.2702677,-0.165346,1.347535,NA,NA,Unknown,NotTracked,
0.9331055,-0.3510742,0.08398438,-0.7231445,0.4248047,0.4536133,-2,1,-2,-1,0,-2,-3,-1,0,-5,5,1,25,5,1,-1,-1.5625,-1.5625,-1.5625,-37,-37,-37,2.864614,3.077341,4.902615,6.293596,6.408247,3.454918,-0.1528926,-0.4806122,1.374629,0.117448,0.08776908,1.355137,0.05931577,0.2763918,1.493932,-0.1922368,-0.4727779,1.375499,0.1410106,0.105295,1.3348,0.047759,-0.1668268,1.488268,0.03783299,-0.4696514,1.467654,-0.1082513,0.02251578,1.474399,-0.03215392,-0.4604508,1.44276,-0.1582503,-0.225773,1.460366,0.2658838,-0.1714389,1.359172,NA,NA,Unknown,NotTracked,
0.9262695,-0.3427734,0.07861328,-0.6713867,0.4428711,0.5170898,-4,-1,0,0,0,0,-1,-1,-6,-3,-10,-39,-6,-4,-3,-1,2.625,2.625,2.625,-57.1875,-57.1875,-57.1875,2.876609,3.075702,4.889849,6.107852,6.159174,3.308329,-0.1526406,-0.4805782,1.373391,0.08837304,0.0772964,1.341337,0.05917731,0.2772101,1.495104,-0.1918321,-0.475935,1.374969,0.1152127,0.08850095,1.314267,0.04580395,-0.1670182,1.488106,0.03787269,-0.469924,1.467655,-0.1134472,0.02155803,1.474985,-0.03213014,-0.4608337,1.44273,-0.1578235,-0.2270981,1.460193,0.2629878,-0.1779668,1.373834,NA,NA,Unknown,Unknown,
0.9272461,-0.3442383,0.08740234,-0.5830078,0.4873047,0.6689453,-4,-5,-1,-1,-2,-2,0,-2,1,-5,-3,-6,4,-3,-1,-1,0.25,0.25,0.25,-33.25,-33.25,-33.25,2.889078,3.075803,4.876966,5.98638,5.843681,3.218451,-0.1507333,-0.4806563,1.373662,0.08846104,0.01863287,1.319757,0.05960669,0.2766789,1.496403,-0.189643,-0.4686974,1.376211,0.1120652,0.03217744,1.296035,0.04534525,-0.1670164,1.489001,0.03803827,-0.4700645,1.467686,-0.1067422,0.02129552,1.472718,-0.03184039,-0.4609966,1.442022,-0.1572953,-0.2285392,1.459842,0.2648435,-0.183635,1.395975,NA,NA,NotTracked,Unknown,
0.9375,-0.347168,0.09179688,-0.4672852,0.4213867,0.7929688,-2,-3,-3,0,-1,-2,-1,-1,-3,-10,14,7,6,-2,-1,0,2.875,2.875,2.875,-43.375,-43.375,-43.375,2.904063,3.074543,4.865024,5.858347,5.37167,3.134342,-0.1508867,-0.4805856,1.373996,0.07099148,-0.03598609,1.303718,0.06007561,0.2762251,1.497475,-0.1914696,-0.4735146,1.375814,0.1084474,-0.03144136,1.274016,0.04520603,-0.166511,1.490334,0.03846115,-0.4698275,1.467648,-0.1026637,0.02051748,1.471476,-0.03075964,-0.4601822,1.439091,-0.1571363,-0.2293063,1.459894,0.2641106,-0.1871083,1.401821,NA,NA,NotTracked,Unknown,
0.9165039,-0.3447266,0.09765625,-0.08154297,0.4155273,0.7299805,-1,0,0,-1,-2,-3,1,-1,-4,-27,-12,-31,-5,-2,0,4,-1.1875,-1.1875,-1.1875,-33.0625,-33.0625,-33.0625,2.919866,3.069508,4.851218,5.805688,4.996693,3.075238,-0.1501665,-0.4818228,1.373435,0.06778027,-0.1207677,1.282612,0.06047539,0.2763535,1.498054,-0.1877778,-0.4837179,1.37516,0.07707317,-0.1417928,1.240906,0.04504262,-0.1658665,1.490968,0.03887937,-0.4689513,1.467643,-0.1048708,0.01935026,1.471035,-0.0300585,-0.4588566,1.43723,-0.1567154,-0.2309235,1.459786,0.2677883,-0.1903521,1.419152,NA,NA,NotTracked,Open,
0.9550781,-0.331543,0.09716797,0.1083984,0.4013672,0.7475586,0,-4,-1,0,-2,-1,-1,1,9,35,-5,-1,1,1,-1,1,3.5,3.5,3.5,-11.0625,-11.0625,-11.0625,2.931593,3.065001,4.844823,5.816869,4.593846,3.010514,-0.1508747,-0.4819084,1.374061,0.07536624,-0.2141753,1.269761,0.06079279,0.276696,1.498736,-0.1905165,-0.4753296,1.375916,0.05421042,-0.1722568,1.317806,0.04471846,-0.1649229,1.491775,0.03926344,-0.4677147,1.46782,-0.1103774,0.01873079,1.470812,-0.02945674,-0.4576198,1.436385,-0.1566548,-0.2317091,1.459929,0.2782111,-0.1888673,1.422913,NA,NA,NotTracked,Unknown,
0.9550781,-0.3393555,0.09423828,0.4311523,0.5644531,0.6435547,1,-1,0,-2,-3,-1,-1,0,-5,-13,-23,-49,16,-4,-2,-6,-0.3125,-0.3125,-0.3125,12.4375,12.4375,12.4375,2.942152,3.060665,4.831888,5.865222,4.089659,2.909668,-0.1500713,-0.4821946,1.374913,0.09756876,-0.3072783,1.266863,0.06090749,0.2769371,1.499114,-0.1898366,-0.4746661,1.376045,0.08389106,-0.278309,1.227738,0.04459894,-0.1646584,1.492033,0.03954707,-0.4674741,1.467885,-0.1131016,0.01849118,1.470726,-0.02884128,-0.4572708,1.435569,-0.1564382,-0.2326825,1.459881,0.2750995,-0.1904531,1.426752,NA,NA,NotTracked,Closed,
0.9355469,-0.3369141,0.109375,0.5654297,0.4462891,0.7426758,-1,0,-1,-2,-1,0,-2,0,-1,29,-5,-21,-10,-2,0,-1,-2.9375,-2.9375,-2.9375,-23.0625,-23.0625,-23.0625,2.953395,3.061754,4.818985,5.87284,3.764088,2.804369,-0.1492903,-0.4812448,1.373784,0.1279397,-0.3742413,1.281829,0.06100262,0.2772404,1.499188,-0.1890526,-0.4755095,1.37701,0.1615147,-0.4180431,1.287072,0.04412146,-0.1644441,1.49201,0.03920442,-0.4674728,1.467591,-0.1149758,0.01808161,1.47027,-0.0294707,-0.4568622,1.434138,-0.1561062,-0.2336455,1.459385,0.2455598,-0.2016204,1.454853,NA,NA,NotTracked,Closed,
0.9448242,-0.3125,0.08837891,1.079102,0.2045898,0.4667969,1,7,0,-2,0,0,-3,-1,6,-26,-2,-5,-2,1,-1,0,4.0625,4.0625,4.0625,-40.8125,-40.8125,-40.8125,2.964351,3.066335,4.818098,5.907924,3.422134,2.692654,-0.1499877,-0.4811865,1.372703,0.1600929,-0.4344225,1.299966,0.06115245,0.2775377,1.49943,-0.1894179,-0.4772266,1.375339,0.1927947,-0.4487847,1.296316,0.0429899,-0.1641294,1.491778,0.0374357,-0.4673056,1.466676,-0.1163588,0.01792607,1.470099,-0.03199321,-0.4559489,1.432184,-0.156087,-0.2336816,1.459255,0.2373225,-0.2101074,1.458342,NA,NA,NotTracked,Unknown,
0.9501953,-0.3427734,0.09814453,1.139648,0.3974609,0.2094727,-2,-2,-2,0,-2,-1,0,-2,3,0,1,-2,-2,-1,-1,2,8.1875,8.1875,8.1875,-69.875,-69.875,-69.875,2.962402,3.071982,4.827306,6.138797,3.065778,2.335709,-0.1506066,-0.4810493,1.371787,0.1889921,-0.4724846,1.332398,0.06120156,0.2777584,1.499446,-0.1894491,-0.4728104,1.375128,0.2197652,-0.4731117,1.324605,0.04233933,-0.1638759,1.491562,0.03670731,-0.4671376,1.466148,-0.117639,0.01780624,1.469986,-0.03292473,-0.455676,1.431283,-0.1561523,-0.233612,1.459182,0.2330404,-0.2217468,1.45765,NA,NA,NotTracked,Unknown,
0.9345703,-0.3168945,0.08642578,1.092773,0.2109375,0.1147461,-1,-1,-2,0,-1,-2,-2,1,2,-5,-1,-1,-2,1,2,0,3.125,3.125,3.125,-105.875,-105.875,-105.875,2.959217,3.072741,4.841978,6.303016,2.910855,1.980021,-0.1509001,-0.483432,1.371522,0.2127435,-0.4939788,1.361649,0.06133342,0.2779406,1.499374,-0.1901306,-0.4757274,1.37498,0.2494141,-0.4966968,1.358545,0.04225259,-0.163839,1.49152,0.03710134,-0.4671851,1.466064,-0.1183919,0.01764692,1.469832,-0.03239545,-0.4559076,1.430847,-0.1562432,-0.2336761,1.459083,0.231199,-0.2337267,1.455893,NA,NA,NotTracked,NotTracked,
0.9213867,-0.3344727,0.09326172,1.046387,0.1459961,0.2016602,-1,2,-1,0,-3,-1,-1,-2,0,5,-1,0,0,-1,-5,-3,6.5625,6.5625,6.5625,-9.5625,-9.5625,-9.5625,2.950501,3.073232,4.859869,6.503031,2.847176,1.706059,-0.1529295,-0.4841511,1.371644,0.2237182,-0.5007116,1.377874,0.06160404,0.2781288,1.49931,-0.1904666,-0.4732611,1.374529,0.2582871,-0.4963546,1.368033,0.04232657,-0.1637871,1.491534,0.03847169,-0.4672256,1.466211,-0.1189213,0.01768705,1.469782,-0.03088396,-0.4562345,1.430649,-0.1565486,-0.23333,1.459152,0.2321334,-0.2402417,1.45749,NA,NA,NotTracked,NotTracked,
0.9243164,-0.3217773,0.09521484,0.9091797,0.2524414,0.2456055,-3,-1,-2,0,0,-1,-2,-2,0,5,0,1,-1,-1,6,1,3.625,3.625,3.625,10.625,10.625,10.625,2.936975,3.065183,4.893606,6.631695,2.843056,1.600928,-0.1539655,-0.4849413,1.373969,0.2315842,-0.5000384,1.38572,0.06191103,0.2782945,1.498954,-0.1911924,-0.4873056,1.372111,0.2669447,-0.4900364,1.376697,0.04242478,-0.1637206,1.49149,0.03982911,-0.4672256,1.466283,-0.1198049,0.0176414,1.469646,-0.02941258,-0.4564993,1.430517,-0.1570217,-0.2329996,1.459224,0.2343547,-0.2437761,1.460637,NA,NA,NotTracked,NotTracked,
0.9355469,-0.3349609,0.1220703,0.9350586,0.2016602,0.2080078,0,-1,-1,-3,-1,0,-3,-2,-3,0,-2,-1,-2,0,-4,-4,-4.5,-4.5,-4.5,-19.375,-19.375,-19.375,2.926681,3.056021,4.900518,6.660618,2.851573,1.549943,-0.1561442,-0.4854407,1.375888,0.2372714,-0.503239,1.388483,0.0622084,0.2783953,1.498579,-0.1958123,-0.4706546,1.367333,0.2747911,-0.4843395,1.384862,0.04251391,-0.1636674,1.491423,0.04085456,-0.4671883,1.466366,-0.1202948,0.01769089,1.469562,-0.02833725,-0.4566336,1.430449,-0.1579384,-0.2321777,1.459437,0.235898,-0.2451842,1.462883,NA,NA,NotTracked,NotTracked,
0.9501953,-0.3374023,0.1020508,0.9707031,0.1972656,0.1254883,0,-1,0,0,1,-2,-1,-1,1,2,1,0,-1,0,0,0,-1.875,-1.875,-1.875,-30.3125,-30.3125,-30.3125,2.918221,3.047907,4.904507,6.656819,2.857847,1.502859,-0.1568043,-0.4860896,1.377332,0.2403405,-0.5087087,1.387466,0.0625161,0.2783548,1.49805,-0.1919674,-0.4754385,1.37264,0.2747108,-0.4909082,1.378837,0.04255242,-0.1636538,1.491417,0.04168266,-0.4673199,1.466591,-0.1205406,0.01803235,1.46932,-0.02750146,-0.4568509,1.430554,-0.158898,-0.2317095,1.459791,0.2367076,-0.2460776,1.463753,NA,NA,NotTracked,NotTracked,
0.9350586,-0.3256836,0.1118164,0.9594727,0.1679688,0.1220703,-3,-3,-2,-2,0,-1,1,-1,-1,-4,-1,-1,0,0,-5,-1,-2.375,-2.375,-2.375,-7.75,-7.75,-7.75,2.923455,3.046103,4.896483,6.576546,2.869961,1.540424,-0.1563196,-0.4858524,1.376366,0.2409248,-0.5077381,1.382859,0.0627409,0.2782875,1.497689,-0.1930646,-0.4770062,1.371078,0.2744551,-0.4883597,1.372903,0.04268768,-0.1636572,1.491368,0.04269624,-0.4674829,1.466739,-0.1209102,0.01796021,1.468993,-0.02648455,-0.457102,1.430557,-0.1592647,-0.2314507,1.4599,0.2369459,-0.2463821,1.463883,NA,NA,NotTracked,NotTracked,
0.9511719,-0.3276367,0.1074219,0.9423828,0.1894531,0.1303711,0,-2,-1,-2,-1,0,0,0,1,1,-3,-1,-2,-1,0,-1,1.0625,1.0625,1.0625,-6.25,-6.25,-6.25,2.940407,3.050473,4.878097,6.520084,2.880511,1.590246,-0.1554717,-0.4855087,1.376477,0.2399116,-0.5077596,1.378625,0.06286397,0.2782397,1.497482,-0.1939857,-0.4719718,1.37682,0.2745405,-0.4935592,1.372268,0.04279225,-0.1636534,1.491332,0.04317754,-0.467504,1.466826,-0.1210519,0.0180114,1.468917,-0.02600198,-0.4571186,1.430558,-0.1593705,-0.2314914,1.45997,0.2370745,-0.247141,1.463506,NA,NA,NotTracked,NotTracked,
0.9335938,-0.3125,0.08496094,0.9355469,0.2016602,0.1162109,-2,-1,-1,-1,0,0,0,-1,3,4,1,1,1,1,6,2,0.9375,0.9375,0.9375,1.875,1.875,1.875,2.95442,3.054309,4.865305,6.486954,2.886026,1.624241,-0.1539378,-0.4851475,1.375889,0.2380457,-0.5065735,1.37619,0.06318388,0.2781183,1.49713,-0.1922959,-0.4739652,1.374299,0.2661597,-0.4932722,1.356726,0.04287534,-0.1636566,1.491299,0.04374635,-0.4675913,1.466915,-0.1211175,0.01800271,1.468847,-0.02545164,-0.4572186,1.43053,-0.1592911,-0.2316244,1.460053,0.2369834,-0.2475779,1.463199,NA,NA,NotTracked,NotTracked,
0.9384766,-0.3359375,0.09521484,0.9501953,0.1933594,0.140625,1,-4,-2,-2,-1,-1,-2,-1,0,-1,-2,-1,0,0,3,0,-1.25,-1.25,-1.25,5.5625,5.5625,5.5625,2.959761,3.05891,4.856795,6.462664,2.889503,1.657766,-0.1528401,-0.4842213,1.373911,0.2372559,-0.5059923,1.373089,0.06343688,0.278052,1.496865,-0.1918181,-0.4761072,1.374581,0.2628813,-0.4978637,1.350529,0.04308902,-0.163684,1.491215,0.0441125,-0.4676492,1.46699,-0.1211004,0.01796227,1.468758,-0.02508804,-0.4573042,1.430583,-0.1590879,-0.2316305,1.460112,0.236914,-0.2479712,1.462668,NA,NA,NotTracked,NotTracked,
0.9438477,-0.3212891,0.08984375,0.9438477,0.2075195,0.1386719,0,0,-1,0,-1,-1,-1,-1,2,-1,0,-2,-2,2,-3,1,0.9375,0.9375,0.9375,3.25,3.25,3.25,2.965224,3.061184,4.853124,6.449953,2.892416,1.68006,-0.1521856,-0.4842119,1.373997,0.2365109,-0.5075104,1.370572,0.06380682,0.2780031,1.496712,-0.1920435,-0.47637,1.376539,0.2630843,-0.4939892,1.35197,0.04335265,-0.1636763,1.491157,0.0446093,-0.4676706,1.467052,-0.1210681,0.01799254,1.468747,-0.02458144,-0.4573434,1.430621,-0.1590035,-0.2316592,1.460121,0.236927,-0.2481498,1.462321,NA,NA,NotTracked,NotTracked,
0.9262695,-0.3330078,0.0859375,0.949707,0.1860352,0.1665039,2,-1,-2,-2,0,0,-2,-1,2,-1,-2,-1,-1,-1,-1,-2,-0.5,-0.5,-0.5,0.4375,0.4375,0.4375,2.964243,3.060859,4.853817,6.423259,2.896564,1.707245,-0.1513712,-0.484221,1.373612,0.2360408,-0.5074998,1.370487,0.06416756,0.2780542,1.496519,-0.1908571,-0.4727085,1.377005,0.2736693,-0.4969673,1.373077,0.04377457,-0.1636737,1.491087,0.04502049,-0.467727,1.467158,-0.120984,0.01798398,1.468763,-0.02420942,-0.4574053,1.430675,-0.1584966,-0.2317878,1.460192,0.2370381,-0.2485276,1.462059,NA,NA,NotTracked,NotTracked,
0.9414063,-0.3276367,0.09863281,0.9375,0.2104492,0.1538086,0,2,-2,-2,-1,-1,0,-1,-1,-1,-2,0,-1,-1,0,-1,-1.5,-1.5,-1.5,1.4375,1.4375,1.4375,2.953533,3.059513,4.86286,6.408105,2.90255,1.731539,-0.1521644,-0.4852932,1.37634,0.2362788,-0.4999849,1.374125,0.06471229,0.2780864,1.49677,-0.190234,-0.4771315,1.376004,0.2738702,-0.4963754,1.376895,0.04432921,-0.1636473,1.491402,0.04570525,-0.4677331,1.467656,-0.1204354,0.01844459,1.469127,-0.02357586,-0.4573802,1.431073,-0.1580285,-0.2322387,1.460609,0.2370859,-0.248553,1.46199,NA,NA,NotTracked,NotTracked,
0.9355469,-0.3334961,0.1049805,0.9506836,0.1992188,0.1674805,-2,-1,-1,0,-2,-1,-1,-2,0,1,-1,0,1,-1,-3,-2,-1.6875,-1.6875,-1.6875,7.125,7.125,7.125,2.939447,3.055254,4.872447,6.397049,2.906894,1.750035,-0.1523161,-0.4853176,1.375972,0.2355756,-0.4992167,1.371808,0.0650136,0.2780823,1.496718,-0.1906361,-0.4777123,1.377401,0.2707083,-0.4870454,1.367479,0.04474957,-0.1636704,1.491451,0.04621289,-0.4678268,1.467831,-0.1202775,0.01840383,1.46917,-0.02308868,-0.4574386,1.431252,-0.1578282,-0.2323142,1.460673,0.2371761,-0.2485887,1.461855,NA,NA,NotTracked,NotTracked,
0.9355469,-0.328125,0.1035156,0.9384766,0.2084961,0.1708984,0,-2,-2,-1,-3,-2,-1,0,-3,-3,-1,0,-1,0,-2,2,0.8125,0.8125,0.8125,-0.375,-0.375,-0.375,2.939525,3.054768,4.873285,6.383307,2.913303,1.767046,-0.1517352,-0.4856549,1.376735,0.2344789,-0.498821,1.370709,0.06532739,0.2779875,1.496711,-0.1903888,-0.4743866,1.375319,0.2624904,-0.4933426,1.351871,0.04530777,-0.163763,1.491676,0.04678667,-0.4679473,1.468191,-0.1197334,0.01860798,1.469345,-0.02255753,-0.4575529,1.431524,-0.157654,-0.2322274,1.460757,0.2373299,-0.2484802,1.461766,NA,NA,NotTracked,NotTracked,
0.9404297,-0.3374023,0.1005859,0.940918,0.2104492,0.168457,-1,1,-2,0,0,1,-1,-1,0,0,0,1,0,0,-1,1,-1.125,-1.125,-1.125,4.75,4.75,4.75,2.940606,3.05518,4.87153,6.36729,2.91961,1.790932,-0.150371,-0.4859288,1.376852,0.2342165,-0.4982693,1.36967,0.06576644,0.2779861,1.496597,-0.1893925,-0.4759989,1.379545,0.2633331,-0.4886365,1.35494,0.04590149,-0.1637349,1.491839,0.04734487,-0.4679653,1.468427,-0.1195603,0.01859588,1.469497,-0.02202223,-0.4575488,1.431732,-0.1573975,-0.2322841,1.460911,0.2374774,-0.2483851,1.461572,NA,NA,NotTracked,NotTracked,
