ALX,ALY,ALZ,ARX,ARY,ARZ,EMG0L,EMG1L,EMG2L,EMG3L,EMG4L,EMG5L,EMG6L,EMG7L,EMG0R,EMG1R,EMG2R,EMG3R,EMG4R,EMG5R,EMG6R,EMG7R,GLX,GLY,GLZ,GRX,GRY,GRZ,ORL,OPL,OYL,ORR,OPR,OYR,LHNX,LHNY,LHNZ,RHNX,RHNY,RHNZ,HX,HY,HZ,LTX,LTY,LTZ,RTX,RTY,RTZ,SpineMidX,SpineMidY,SpineMidZ,SpineBaseX,SpineBaseY,SpineBaseZ,ShoulderLeftX,ShoulderLeftY,ShoulderLeftZ,ShoulderRightX,ShoulderRightY,ShoulderRightZ,ElbowLeftX,ElbowLeftY,ElbowLeftZ,ElbowRightX,ElbowRightY,ElbowRightZ,Myo_Pose_left,Myo_Pose_Right,Kinect_pose_left,Kinect_pose_right
0.9277344,-0.3129883,0.09472656,1.003418,0.4414063,0.527832,-1,0,0,-1,-1,-2,-1,-1,0,-5,-5,4,-3,0,1,-1,3.1875,3.1875,3.1875,7.3125,7.3125,7.3125,2.932917,3.050786,9.214983,5.938226,3.06183,1.155122,-0.1170379,-0.4819716,1.354804,0.2405867,-0.4954596,1.317602,0.09633826,0.274974,1.466212,-0.07893211,-0.4772182,1.333807,0.209214,-0.4965149,1.284625,0.07652232,-0.1664381,1.461019,0.07160036,-0.4707872,1.436404,-0.08931489,0.01471241,1.445794,0.001325903,-0.4602586,1.404029,-0.1202014,-0.2441035,1.433079,0.2638041,-0.2470098,1.41812,NA,NA,NotTracked,NotTracked,
0.9282227,-0.3364258,0.1044922,1.099121,0.4775391,0.6103516,-1,-1,-2,-2,-2,-2,-3,1,-2,0,38,-7,-11,-4,-1,-3,-4.1875,-4.1875,-4.1875,14.5625,14.5625,14.5625,2.944198,3.04731,9.196399,5.931625,3.382504,1.196175,-0.1163466,-0.484559,1.35432,0.2377529,-0.4865795,1.26686,0.09599695,0.2751949,1.466727,-0.07920754,-0.4765064,1.334121,0.2017667,-0.4820846,1.234186,0.07649125,-0.1663877,1.461157,0.07157795,-0.4707825,1.436418,-0.08933254,0.01471824,1.445799,0.001296492,-0.4602244,1.404009,-0.1202299,-0.2440742,1.433013,0.2632234,-0.2447302,1.4134,NA,NA,NotTracked,Lasso,
0.9384766,-0.3198242,0.09960938,1.040527,0.4301758,0.8017578,0,0,0,-1,-1,1,-2,0,-1,-7,-14,-30,-11,-2,-4,-3,-6.5,-6.5,-6.5,15.6875,15.6875,15.6875,2.952199,3.044903,9.179756,5.895918,3.784781,1.261847,-0.1166193,-0.4853439,1.355057,0.2318435,-0.4332075,1.191598,0.09537369,0.2742817,1.468236,-0.07914719,-0.4767375,1.334962,0.1976018,-0.4173221,1.1599,0.07637056,-0.1667839,1.461813,0.07145272,-0.470957,1.436434,-0.08971111,0.01425094,1.446364,0.001188018,-0.4603305,1.403883,-0.1202468,-0.2441427,1.432884,0.2629872,-0.2325364,1.399358,NA,NA,NotTracked,Lasso,
0.9594727,-0.315918,0.08544922,0.7255859,0.5732422,0.8813477,-2,-1,-2,0,-1,0,-1,-1,7,3,5,-14,4,-2,-5,-2,-0.1875,-0.1875,-0.1875,17.125,17.125,17.125,2.954812,3.048752,9.172454,5.907461,4.298291,1.311889,-0.1156527,-0.4851795,1.35383,0.2178864,-0.337925,1.105858,0.09476641,0.2723154,1.469821,-0.0783269,-0.4782722,1.332607,0.1754648,-0.3083829,1.077,0.07554813,-0.1675298,1.462839,0.07052795,-0.4713897,1.436316,-0.08993226,0.01372633,1.446871,0.0001746347,-0.4607576,1.403651,-0.1203079,-0.244237,1.432647,0.2708585,-0.2061458,1.376867,NA,NA,NotTracked,Unknown,
0.9379883,-0.3261719,0.09619141,0.2792969,0.4985352,0.8837891,-2,-1,0,-2,-1,-2,0,-2,-2,-9,-19,-18,-5,-2,-2,-2,0.3125,0.3125,0.3125,2,2,2,2.968098,3.061193,9.155301,5.892465,4.851491,1.362646,-0.1160169,-0.4841172,1.352247,0.2052922,-0.2024948,1.049983,0.09459221,0.2713963,1.470584,-0.07788876,-0.4757555,1.33102,0.1875925,-0.1548363,1.040778,0.07515194,-0.1675646,1.463792,0.07010689,-0.4711945,1.436441,-0.09015997,0.01357033,1.447495,-0.0002750916,-0.46067,1.403886,-0.1204139,-0.244131,1.432486,0.3226434,-0.1645353,1.317653,NA,NA,NotTracked,Unknown,
0.9296875,-0.3237305,0.09960938,-0.3666992,0.4541016,0.6420898,1,3,2,0,-1,-1,0,1,12,33,20,12,7,8,23,6,7.625,7.625,7.625,34.875,34.875,34.875,2.960856,3.072483,9.174176,6.069841,5.976421,1.570058,-0.1158917,-0.4809296,1.352503,0.1815452,0.08086757,1.08651,0.09491689,0.2699492,1.469277,-0.0784944,-0.4763291,1.331811,0.1481732,0.1050371,1.110394,0.07366373,-0.168348,1.465669,0.06680048,-0.473579,1.436721,-0.08879606,0.01450418,1.450164,-0.004045848,-0.4631852,1.4055,-0.1211165,-0.2419751,1.432535,0.2848878,-0.1048854,1.226614,NA,NA,NotTracked,Open,
0.9355469,-0.3271484,0.1010742,-0.5439453,0.3945313,0.4438477,-3,-2,-2,-1,-1,0,-1,-3,-22,22,-4,7,-7,-1,4,5,6.9375,6.9375,6.9375,40.125,40.125,40.125,2.954738,3.065194,9.201781,6.300255,6.402253,1.776114,-0.1169327,-0.4821802,1.355087,0.180914,0.1686335,1.127266,0.09270632,0.2730775,1.463121,-0.07865431,-0.4770808,1.333141,0.1466322,0.1839877,1.158125,0.0731677,-0.1669557,1.463582,0.06590497,-0.4725737,1.436759,-0.08413954,0.01453177,1.451759,-0.005577325,-0.4617546,1.405843,-0.1221038,-0.2365827,1.433524,0.2900863,-0.08940035,1.226427,NA,NA,NotTracked,Open,
0.9165039,-0.3349609,0.1113281,-0.5776367,0.3105469,0.2680664,-2,-2,0,-2,0,-1,0,-2,23,-17,-7,-4,-1,-14,-35,-29,6.125,6.125,6.125,23.125,23.125,23.125,2.941782,3.054191,9.224002,6.483244,6.584131,1.947591,-0.1176171,-0.4830652,1.357544,0.184751,0.2214347,1.15701,0.09090163,0.268243,1.459988,-0.07878,-0.478247,1.334561,0.1514587,0.2232998,1.191655,0.07289642,-0.1658703,1.461955,0.06516504,-0.470574,1.43645,-0.08045428,0.01554434,1.45272,-0.00666739,-0.4595439,1.405696,-0.1227316,-0.233867,1.434437,0.2983121,-0.06614917,1.224052,NA,NA,NotTracked,Open,
0.940918,-0.340332,0.09716797,-0.7099609,0.3701172,0.1791992,-2,0,-2,-2,-1,-2,-1,0,19,5,-7,-10,-1,2,17,-20,6.5,6.5,6.5,24.6875,24.6875,24.6875,2.92914,3.043847,9.249542,6.658731,6.67878,2.103779,-0.1184008,-0.4833477,1.360394,0.1845247,0.2553464,1.178866,0.09002862,0.2673045,1.457909,-0.07982197,-0.4773519,1.335821,0.153334,0.2414859,1.215694,0.07334763,-0.1644061,1.461042,0.06518021,-0.4672573,1.436139,-0.07850709,0.01667075,1.453424,-0.006889735,-0.4563687,1.406152,-0.1233067,-0.2310041,1.435195,0.2997231,-0.04145229,1.220207,NA,NA,NotTracked,Open,
0.9423828,-0.331543,0.09912109,-0.7543945,0.3505859,0.1938477,0,2,-1,-3,0,-2,-2,-2,85,49,3,-3,5,-1,-8,4,0.375,0.375,0.375,6.9375,6.9375,6.9375,2.925255,3.035003,9.264924,6.770192,6.730394,2.205997,-0.1194176,-0.4830059,1.361773,0.1855685,0.2690039,1.192214,0.0894563,0.266926,1.455187,-0.08043689,-0.4764236,1.337424,0.1548143,0.2491902,1.228784,0.07337177,-0.1623634,1.459396,0.06540937,-0.46412,1.435566,-0.0775206,0.01766723,1.453775,-0.00679438,-0.453707,1.406162,-0.1234823,-0.2299659,1.435636,0.2689342,0.06755262,1.212596,NA,NA,NotTracked,Open,
0.9404297,-0.3413086,0.1044922,-0.8588867,0.3823242,0.1762695,3,4,1,-1,0,-1,-2,-1,-37,-18,-4,1,-1,-11,14,30,0.3125,0.3125,0.3125,-2.375,-2.375,-2.375,2.927705,3.035821,9.261357,6.858422,6.765321,2.286914,-0.1190889,-0.4833618,1.361521,0.1847862,0.2792141,1.200374,0.08936329,0.2661599,1.453513,-0.08063947,-0.4752473,1.33901,0.151862,0.2578223,1.2388,0.07326402,-0.1615934,1.458609,0.06545667,-0.4628581,1.435193,-0.07714622,0.01828061,1.454073,-0.006798923,-0.4526509,1.406028,-0.1236379,-0.2289296,1.435914,0.26934,0.06958336,1.212793,NA,NA,NotTracked,Open,
0.9394531,-0.3310547,0.09179688,-0.8793945,0.4506836,0.1791992,-3,-2,-2,-1,-1,-1,0,1,10,31,-1,-6,-6,1,15,17,-4.6875,-4.6875,-4.6875,-5.3125,-5.3125,-5.3125,2.932576,3.040642,9.251394,6.884485,6.77189,2.315887,-0.1185791,-0.4833125,1.358905,0.1847367,0.2802723,1.205675,0.08924635,0.2655484,1.45225,-0.07999639,-0.4767378,1.336841,0.1518339,0.2599002,1.246,0.0732491,-0.1611886,1.457863,0.06558658,-0.4620879,1.434631,-0.07695353,0.01847852,1.454169,-0.00669123,-0.452064,1.405688,-0.1236246,-0.2283493,1.435996,0.2695962,0.07166455,1.21333,NA,NA,NotTracked,Open,
0.9448242,-0.3217773,0.08789063,-0.9111328,0.4492188,0.1694336,1,0,-1,-1,-2,-2,-2,-1,-15,11,-8,-17,-5,-6,-2,-9,-2.25,-2.25,-2.25,5.1875,5.1875,5.1875,2.935662,3.048625,9.241335,6.91206,6.782166,2.353444,-0.1193989,-0.4830713,1.357139,0.1801403,0.303934,1.208076,0.0895368,0.2652671,1.450589,-0.0804604,-0.4786377,1.333999,0.1459861,0.2817038,1.244718,0.07321327,-0.16098,1.457446,0.06572482,-0.4617663,1.434333,-0.07673257,0.01866838,1.454252,-0.006578757,-0.4517317,1.405511,-0.1236505,-0.2279683,1.435825,0.2697195,0.07323301,1.213662,NA,NA,NotTracked,Open,
0.9360352,-0.3188477,0.09472656,-0.9257813,0.3657227,0.2402344,-2,-2,-2,0,1,-2,1,6,68,24,2,5,5,11,3,8,-4.625,-4.625,-4.625,-10.9375,-10.9375,-10.9375,2.938464,3.053632,9.231103,6.965678,6.787258,2.431119,-0.1187959,-0.4821776,1.353677,0.1765297,0.3086123,1.212081,0.09042706,0.2658389,1.447087,-0.08047248,-0.4771453,1.331389,0.1412086,0.2821286,1.249161,0.07330135,-0.1604279,1.456658,0.06588162,-0.460901,1.43365,-0.07650909,0.01894225,1.454253,-0.0064433,-0.4508794,1.404921,-0.1235637,-0.2270822,1.434968,0.2695253,0.07442626,1.213733,NA,NA,NotTracked,Open,
0.9453125,-0.3198242,0.08496094,-0.9301758,0.4511719,0.08691406,-2,-1,-1,-1,0,-1,0,7,-4,-27,-4,2,-5,-4,-4,-3,-2.5625,-2.5625,-2.5625,-7.25,-7.25,-7.25,2.93711,3.056993,9.227488,7.124671,6.803733,2.624447,-0.1185605,-0.4815375,1.352572,0.1700148,0.3032688,1.228436,0.09150301,0.2668398,1.44354,-0.08043937,-0.478148,1.327115,0.1378392,0.2796501,1.271455,0.07348645,-0.1599107,1.456002,0.06604472,-0.4602783,1.433296,-0.0764012,0.01910008,1.454247,-0.006312019,-0.450375,1.404678,-0.1233291,-0.2262894,1.434427,0.2690668,0.07623794,1.21382,NA,NA,NotTracked,Open,
0.9311523,-0.3129883,0.08056641,-0.9091797,0.4487305,-0.1821289,0,2,-2,-3,-3,-3,-3,-4,-2,-35,-5,-1,-2,1,49,5,-1.625,-1.625,-1.625,-27.6875,-27.6875,-27.6875,2.931262,3.057381,9.229244,7.327907,6.805145,2.896181,-0.118038,-0.480746,1.351372,0.1527707,0.3172545,1.262332,0.0921262,0.2665595,1.441635,-0.08051137,-0.4771256,1.329018,0.1153,0.2976986,1.292303,0.07360397,-0.1598158,1.455472,0.0660429,-0.4602068,1.43298,-0.07638048,0.01900103,1.454127,-0.006308607,-0.4503273,1.404538,-0.1228967,-0.2257393,1.433439,0.2679827,0.07709288,1.213514,NA,NA,NotTracked,Open,
0.9428711,-0.3134766,0.08203125,-0.8691406,0.5805664,0.06542969,-2,5,-2,-3,-3,1,-1,-3,-20,0,-1,-3,-5,-1,3,-2,1.75,1.75,1.75,-13.6875,-13.6875,-13.6875,2.926356,3.056064,9.237431,7.300276,6.788291,2.839807,-0.1180161,-0.4814275,1.35073,0.1467384,0.3108217,1.267912,0.09278393,0.2650546,1.43947,-0.07987608,-0.4779376,1.328934,0.1014036,0.2879826,1.291118,0.07364076,-0.1598722,1.455016,0.06596563,-0.4603697,1.432518,-0.07632916,0.01883223,1.454018,-0.006365609,-0.4504294,1.404334,-0.1226983,-0.2256938,1.43283,0.2681019,0.07477069,1.21258,NA,NA,NotTracked,Open,
0.9331055,-0.3100586,0.08544922,-0.9702148,0.3803711,0.08105469,1,-3,-2,-3,0,-2,-2,-2,2,6,2,2,-4,-23,-17,-7,8.75,8.75,8.75,15.875,15.875,15.875,2.934658,3.054279,9.238479,7.196262,6.787251,2.730114,-0.1175183,-0.4812561,1.351671,0.1498706,0.315397,1.260062,0.09282756,0.2648711,1.438933,-0.07933848,-0.477824,1.330368,0.1076667,0.2969677,1.292087,0.07371968,-0.1598545,1.454687,0.0659778,-0.4603281,1.432244,-0.07628312,0.01871947,1.453981,-0.006353499,-0.4503999,1.404164,-0.12259,-0.2255704,1.432508,0.2668174,0.07638021,1.21245,NA,NA,NotTracked,Open,
0.940918,-0.3334961,0.09667969,-0.9228516,0.3710938,0.2006836,-2,-3,1,-1,-2,-1,-1,-3,-13,-20,-17,9,3,2,-1,-7,0.875,0.875,0.875,-1.6875,-1.6875,-1.6875,2.941082,3.047093,9.238487,7.000909,6.77274,2.504014,-0.1170136,-0.4817377,1.353506,0.1649617,0.3226817,1.231724,0.09259065,0.2651243,1.438612,-0.07925758,-0.4775344,1.331306,0.1295127,0.3038312,1.289725,0.07369243,-0.1596614,1.454347,0.06589672,-0.4599953,1.431901,-0.07627543,0.01870887,1.453976,-0.006424467,-0.4500646,1.403858,-0.1225782,-0.2247685,1.432367,0.2655827,0.07780559,1.212342,NA,NA,NotTracked,Open,
0.9345703,-0.3383789,0.09863281,-0.8588867,0.4326172,0.2939453,0,-2,-3,-2,-2,-1,0,0,10,22,7,1,7,-1,-9,-8,-1.375,-1.375,-1.375,-1.625,-1.625,-1.625,2.941422,3.038312,9.23951,6.934052,6.75586,2.423654,-0.1170127,-0.4822978,1.35625,0.1724232,0.3136089,1.213632,0.09248485,0.2655251,1.438237,-0.07904187,-0.4782982,1.332278,0.1360586,0.2883304,1.26387,0.07367349,-0.159467,1.454157,0.06590821,-0.4596614,1.431748,-0.07619944,0.01885948,1.45398,-0.006425298,-0.4496949,1.403734,-0.1225165,-0.2244384,1.432312,0.264403,0.07929555,1.212239,NA,NA,NotTracked,Open,
0.9467773,-0.3364258,0.08691406,-0.871582,0.4145508,0.2353516,-2,-3,-1,0,-2,-1,-2,-2,-25,11,-4,-9,0,5,9,17,3.25,3.25,3.25,-5.375,-5.375,-5.375,2.931034,3.03213,9.252024,7.005003,6.762328,2.517776,-0.1170102,-0.4857167,1.357096,0.1696246,0.3140223,1.220087,0.09225863,0.265696,1.438109,-0.07934006,-0.4779612,1.33302,0.1362056,0.2785619,1.260387,0.07362599,-0.1593878,1.453987,0.06592143,-0.459585,1.431648,-0.07617215,0.01888945,1.45395,-0.006417559,-0.4496462,1.403713,-0.1224707,-0.2243021,1.432331,0.2642577,0.07938659,1.212064,NA,NA,NotTracked,Open,
0.9482422,-0.3251953,0.08789063,-0.9746094,0.4467773,0.07617188,-1,-3,-2,-1,-3,-1,-2,1,-14,-7,-1,2,1,-6,-4,-9,-0.6875,-0.6875,-0.6875,-23.1875,-23.1875,-23.1875,2.918176,3.031542,9.266995,7.203491,6.779939,2.76956,-0.1172229,-0.4853318,1.356383,0.1672105,0.2770115,1.237388,0.09204732,0.2655424,1.437729,-0.07912068,-0.4785298,1.332977,0.1358243,0.262903,1.284595,0.07356968,-0.1594575,1.453726,0.06570473,-0.4597416,1.431354,-0.07622331,0.01869705,1.453816,-0.00656868,-0.4497746,1.403611,-0.1224357,-0.2246333,1.432272,0.2637161,0.07978609,1.211662,NA,NA,NotTracked,Open,
0.9433594,-0.3261719,0.08691406,-0.8032227,0.4267578,0.4482422,-1,-1,2,-2,-2,-2,-2,0,-21,11,1,-3,-4,-2,-9,1,-3.9375,-3.9375,-3.9375,-4.0625,-4.0625,-4.0625,2.9107,3.035343,9.268722,7.221964,6.768899,2.772002,-0.1180079,-0.485072,1.355985,0.145203,0.3104905,1.269608,0.09189907,0.2648478,1.437128,-0.07940131,-0.4779562,1.332845,0.1022113,0.2898082,1.291142,0.07350542,-0.1596154,1.453478,0.06541914,-0.4600609,1.431024,-0.07622319,0.01845087,1.453715,-0.006789182,-0.4500496,1.403455,-0.1223925,-0.2247205,1.43233,0.2647697,0.07340361,1.209816,NA,NA,NotTracked,Open,
0.9316406,-0.3076172,0.08496094,-0.8603516,0.2998047,0.1845703,-2,0,-1,0,-1,-3,-2,1,2,1,3,-5,0,-3,-6,11,1.125,1.125,1.125,8.4375,8.4375,8.4375,2.915213,3.041555,9.26316,7.177804,6.776525,2.749034,-0.1177311,-0.4847263,1.354109,0.1453234,0.3113284,1.266493,0.09187168,0.2648672,1.436542,-0.07949683,-0.4776042,1.33203,0.09735794,0.2898076,1.28726,0.07342193,-0.1595962,1.453267,0.06525355,-0.4600782,1.430781,-0.07624389,0.01841225,1.453646,-0.006927364,-0.4500833,1.403266,-0.1224402,-0.2246385,1.432186,0.2644209,0.07265344,1.209298,NA,NA,NotTracked,Open,
0.9453125,-0.324707,0.09667969,-0.8652344,0.375,0.04736328,-2,2,-1,-1,-2,-1,-2,-1,7,-18,-1,0,-1,-2,0,2,-3.3125,-3.3125,-3.3125,-14.25,-14.25,-14.25,2.92073,3.045375,9.255024,7.138339,6.776771,2.701844,-0.1176773,-0.4834175,1.351101,0.1666177,0.2758478,1.238581,0.09174796,0.2652089,1.435841,-0.0793592,-0.4775551,1.330951,0.1238743,0.2602156,1.289131,0.07335606,-0.1595264,1.452918,0.06499758,-0.45992,1.430283,-0.07626099,0.01843435,1.453541,-0.007174459,-0.4499211,1.402835,-0.1224005,-0.2244956,1.43179,0.2628497,0.07513621,1.209261,NA,NA,NotTracked,Open,
0.9418945,-0.3188477,0.07763672,-0.8457031,0.4360352,0.09326172,-1,2,0,-2,-3,0,-1,-1,18,4,3,0,0,3,10,-2,-7.25,-7.25,-7.25,4.375,4.375,4.375,2.924699,3.043428,9.242563,7.026906,6.769581,2.571109,-0.1179705,-0.4843174,1.352236,0.1581671,0.315876,1.245589,0.09169813,0.2652055,1.435679,-0.07939193,-0.4779943,1.330207,0.1262502,0.2984563,1.291865,0.07334242,-0.159575,1.452714,0.0648435,-0.4599514,1.429984,-0.07625455,0.01842546,1.453478,-0.007333228,-0.4499204,1.402596,-0.1223458,-0.2243832,1.431642,0.2623245,0.07567784,1.20923,NA,NA,NotTracked,Open,
0.9375,-0.3286133,0.09228516,-0.8598633,0.4023438,0.1308594,-2,0,0,0,-1,-2,-1,-3,-15,2,0,0,-1,-1,9,10,-3.4375,-3.4375,-3.4375,6.75,6.75,6.75,2.92174,3.041868,9.236549,6.849149,6.737501,2.368382,-0.1180195,-0.4847289,1.352988,0.1730914,0.2840253,1.212411,0.09165134,0.2650182,1.435941,-0.07936095,-0.4778877,1.331073,0.1457891,0.2734611,1.27075,0.0732576,-0.159708,1.452602,0.06473865,-0.460108,1.429775,-0.07618512,0.01838096,1.453375,-0.007482775,-0.4500765,1.402243,-0.1224546,-0.224463,1.431447,0.2623683,0.07453931,1.208932,NA,NA,NotTracked,Open,
0.9428711,-0.324707,0.08691406,-0.7485352,0.3666992,0.2441406,-4,-8,0,-1,1,-1,0,-1,1,0,2,3,-2,-3,-2,1,-2.1875,-2.1875,-2.1875,-15.9375,-15.9375,-15.9375,2.917113,3.040082,9.237315,6.606062,6.663402,2.098097,-0.1184249,-0.4846457,1.352138,0.1804638,0.2720191,1.184118,0.09009685,0.2641906,1.438978,-0.07963464,-0.4787649,1.330751,0.1436217,0.2645997,1.234444,0.07310019,-0.1599237,1.452482,0.0647894,-0.4603108,1.429444,-0.0761184,0.01839236,1.453232,-0.007482646,-0.4502152,1.401745,-0.1227629,-0.2250269,1.430747,0.2629405,0.07015346,1.207931,NA,NA,NotTracked,Open,
0.9418945,-0.3242188,0.09326172,-0.6967773,0.3579102,0.3515625,-1,0,0,-1,-1,0,-1,-1,-10,-52,-7,-10,-3,-3,-3,-7,-3.9375,-3.9375,-3.9375,-3.1875,-3.1875,-3.1875,2.9116,3.040434,9.23542,6.302309,6.472662,1.752143,-0.11931,-0.4842937,1.351234,0.191288,0.2418207,1.149351,0.08933914,0.2645485,1.441348,-0.08020511,-0.4774156,1.330451,0.1541026,0.2362744,1.186556,0.07344398,-0.1607259,1.45304,0.06498917,-0.4604979,1.429194,-0.07613788,0.01854097,1.45311,-0.007347508,-0.4503729,1.401435,-0.1231576,-0.2260556,1.429851,0.2649015,0.05481593,1.205022,NA,NA,NotTracked,Open,
0.940918,-0.3178711,0.08544922,-0.5874023,0.3681641,0.4394531,-1,-2,0,-2,-2,0,0,-2,4,-1,2,0,2,-1,1,-1,-3.0625,-3.0625,-3.0625,-24.625,-24.625,-24.625,2.913718,3.042753,9.227231,6.119409,6.252185,1.54031,-0.1193923,-0.4836676,1.350541,0.1975876,0.2107778,1.10932,0.08921977,0.2652615,1.444138,-0.08058445,-0.4775235,1.330071,0.1725475,0.237141,1.1586,0.07318731,-0.1608048,1.452842,0.0650102,-0.4607284,1.428782,-0.07624142,0.01856635,1.452881,-0.007370318,-0.450404,1.400728,-0.1233787,-0.2273152,1.429002,0.2621959,0.04610773,1.202087,NA,NA,NotTracked,Open,
0.9536133,-0.3276367,0.08886719,-0.5703125,0.3876953,0.6103516,-2,-2,-2,-2,0,-1,-1,0,-3,5,5,2,2,0,1,0,-3.1875,-3.1875,-3.1875,1.3125,1.3125,1.3125,2.925488,3.047442,9.204604,6.007915,5.976611,1.391254,-0.12012,-0.4836255,1.348666,0.2067658,0.1345643,1.072654,0.08889392,0.2673822,1.449712,-0.08085194,-0.4782324,1.328225,0.1740599,0.1692353,1.111556,0.07240449,-0.1613992,1.452751,0.06424025,-0.4625269,1.428063,-0.07682696,0.01792752,1.452482,-0.008152293,-0.4524847,1.399644,-0.1235446,-0.229807,1.4275,0.2801891,-0.05304439,1.213674,NA,NA,NotTracked,Open,
0.9487305,-0.3173828,0.09033203,-0.2670898,0.3759766,0.784668,-2,-2,-3,-1,-1,-1,-1,1,3,2,-1,-4,-2,0,1,0,-3.8125,-3.8125,-3.8125,1.125,1.125,1.125,2.937066,3.049773,9.184365,5.932084,5.507131,1.254592,-0.1193915,-0.4836752,1.347493,0.212676,0.04032036,1.031533,0.08901308,0.2670328,1.456101,-0.08070882,-0.4795547,1.325199,0.1887882,0.07812956,1.064545,0.07094322,-0.1652913,1.456152,0.06342907,-0.4665911,1.427935,-0.08462713,0.01511902,1.449364,-0.008516256,-0.4569066,1.399334,-0.1236813,-0.234935,1.426297,0.2781387,-0.08589702,1.223588,NA,NA,NotTracked,Lasso,
0.9482422,-0.3208008,0.09277344,0.4794922,0.6977539,1.188965,-2,0,1,-2,1,-1,0,-1,1,-1,-3,2,-8,-5,-3,-2,-2.75,-2.75,-2.75,30.125,30.125,30.125,2.946862,3.051052,9.167673,5.947699,5.088308,1.210705,-0.1190697,-0.4825186,1.346023,0.2172627,-0.07123356,0.979722,0.08896787,0.2678159,1.461684,-0.08044062,-0.4793224,1.324201,0.1904154,-0.05196023,1.005667,0.06974455,-0.1672993,1.457302,0.06259494,-0.4700204,1.427404,-0.08835119,0.0138109,1.447555,-0.009051167,-0.460508,1.398348,-0.1236603,-0.237701,1.425035,0.2586578,-0.1528229,1.246265,NA,NA,NotTracked,Unknown,
0.9433594,-0.328125,0.09228516,0.9150391,0.6953125,1.069824,-4,0,-1,0,-1,0,-1,-1,7,-1,-1,-3,-1,0,1,-2,-1.25,-1.25,-1.25,29.25,29.25,29.25,2.955007,3.051183,9.154993,6.016569,4.510361,1.194175,-0.1187308,-0.4822429,1.345876,0.2193123,-0.1912931,0.9998272,0.08767983,0.2703957,1.466429,-0.08045962,-0.4765642,1.325251,0.178045,-0.1683516,0.9843794,0.06960745,-0.16721,1.457613,0.06261448,-0.470056,1.427387,-0.09019511,0.01373324,1.446134,-0.008907404,-0.4606328,1.398206,-0.1237217,-0.2380004,1.424653,0.2878192,-0.145735,1.27014,NA,NA,NotTracked,Unknown,
0.956543,-0.3349609,0.105957,0.7207031,0.5385742,0.6274414,0,0,0,0,-1,-3,1,-1,9,3,-3,-3,-1,-2,-1,0,0.9375,0.9375,0.9375,24.25,24.25,24.25,2.960231,3.051958,9.149495,6.068429,4.062784,1.166018,-0.1178698,-0.4828241,1.344318,0.2208443,-0.295973,1.048166,0.08668282,0.2728189,1.469043,-0.07989234,-0.4758371,1.322856,0.1832398,-0.2821928,1.020892,0.06954497,-0.1668862,1.457633,0.06267302,-0.4700118,1.427241,-0.09148677,0.01401277,1.444823,-0.008657778,-0.4606031,1.397775,-0.1237656,-0.2380019,1.424299,0.2975344,-0.1657833,1.299719,NA,NA,NotTracked,Unknown,
0.9238281,-0.3227539,0.1025391,0.8769531,0.5229492,0.5908203,0,-1,-2,-1,0,1,-1,0,-7,-4,-1,-2,-1,-1,-2,-3,4.6875,4.6875,4.6875,-15.75,-15.75,-15.75,2.959338,3.05231,9.157975,6.094398,3.691888,1.104663,-0.1188934,-0.483655,1.345059,0.2277605,-0.3785025,1.102746,0.08618264,0.2743197,1.471328,-0.07983674,-0.4794288,1.322934,0.2126807,-0.4244591,1.131445,0.06953198,-0.1668456,1.457636,0.06290812,-0.4703746,1.427019,-0.09209838,0.01384002,1.444234,-0.0081503,-0.4609462,1.397016,-0.1236934,-0.2384549,1.424012,0.2877944,-0.1763033,1.307263,NA,NA,NotTracked,Lasso,
0.9477539,-0.331543,0.09521484,0.6333008,0.3286133,0.2524414,-1,0,0,0,-1,0,-2,-1,-3,0,-1,-2,-2,-1,0,-1,0.25,0.25,0.25,-31.4375,-31.4375,-31.4375,2.942025,3.050033,9.18032,6.172386,3.318757,0.9706425,-0.1187854,-0.4865173,1.344655,0.2371864,-0.4411055,1.158269,0.08612569,0.2757306,1.473239,-0.08064623,-0.4789557,1.324598,0.2260734,-0.4896653,1.193833,0.06971152,-0.1668842,1.457607,0.06363714,-0.4712097,1.427001,-0.09234609,0.01366549,1.443969,-0.007125013,-0.4615694,1.396511,-0.1235066,-0.2393622,1.423682,0.2565268,-0.2054248,1.335441,NA,NA,NotTracked,Lasso,
0.9296875,-0.3144531,0.08984375,0.5131836,0.2207031,-0.2373047,-4,-1,-1,-1,-1,-1,-2,-3,0,8,0,-2,1,-1,0,2,4.5,4.5,4.5,-27.6875,-27.6875,-27.6875,2.921465,3.046785,9.213462,6.210524,3.127369,0.8598969,-0.1195788,-0.4835697,1.346487,0.2453442,-0.4698794,1.207871,0.08701158,0.2778826,1.47454,-0.08024652,-0.4786891,1.325361,0.2071946,-0.4737925,1.2021,0.07053638,-0.1667787,1.457312,0.0646949,-0.4718411,1.42702,-0.09235848,0.0138061,1.443698,-0.005775693,-0.4620194,1.396245,-0.1232812,-0.2401279,1.423575,0.2553298,-0.2200942,1.343449,NA,NA,NotTracked,Unknown,
0.9345703,-0.3154297,0.1088867,0.4711914,0.2910156,0.4389648,0,-2,-2,-1,-1,-1,-2,0,1,12,-3,-1,-1,0,-1,2,3.625,3.625,3.625,36.9375,36.9375,36.9375,2.904563,3.043245,9.238077,6.279716,3.028532,0.8554939,-0.1199092,-0.4835391,1.345523,0.2453172,-0.4866611,1.246011,0.08893181,0.2818651,1.474839,-0.07806709,-0.4930108,1.321357,0.211631,-0.4797662,1.245345,0.07177389,-0.1657046,1.456506,0.06541584,-0.4717077,1.427081,-0.09159806,0.01489056,1.441929,-0.004767605,-0.4616472,1.39605,-0.1229857,-0.240205,1.423412,0.2562659,-0.2308187,1.357609,NA,NA,NotTracked,Unknown,
0.9414063,-0.3007813,0.09521484,1.376465,0.2709961,0.9780273,-1,-1,-2,-1,-1,0,-1,-3,-1,2,0,2,0,1,0,3,-3.75,-3.75,-3.75,-11.0625,-11.0625,-11.0625,2.884418,3.027303,9.260207,6.095927,2.995224,1.028343,-0.1193161,-0.483386,1.348579,0.2459789,-0.4989815,1.276683,0.09124411,0.2856016,1.474764,-0.08079138,-0.4793464,1.326189,0.2122377,-0.4934578,1.26759,0.0733737,-0.1643648,1.455369,0.06613886,-0.4714245,1.427157,-0.09015703,0.01587183,1.440582,-0.00393378,-0.4611585,1.396072,-0.1228283,-0.2401253,1.423437,0.2589364,-0.2394552,1.373161,NA,NA,NotTracked,Unknown,
0.9526367,-0.3203125,0.08740234,1.154297,0.4003906,-0.06201172,-2,-2,-2,1,-1,-2,-1,-1,-4,-6,0,1,0,0,-1,1,-6.0625,-6.0625,-6.0625,42.9375,42.9375,42.9375,2.861054,3.014156,9.27425,6.110923,2.927537,1.087785,-0.1193812,-0.4858145,1.350854,0.2474834,-0.507662,1.301109,0.09374532,0.2878196,1.475178,-0.0811113,-0.4786353,1.328903,0.215163,-0.4943942,1.298057,0.0754311,-0.1634719,1.454368,0.06729032,-0.4711804,1.427296,-0.08809661,0.01634346,1.438981,-0.002815605,-0.4607882,1.396245,-0.1220062,-0.2405253,1.423409,0.2631258,-0.2444098,1.386036,NA,NA,NotTracked,Unknown,
0.949707,-0.3056641,0.07763672,0.9150391,0.25,0.1508789,0,-1,-1,-1,-1,-4,-1,0,0,4,-1,0,-1,-1,2,-1,2.8125,2.8125,2.8125,43.75,43.75,43.75,2.853863,3.00867,9.283508,6.163847,2.887112,1.112334,-0.1180824,-0.4840677,1.35097,0.2478863,-0.5008937,1.318581,0.09669981,0.289759,1.476278,-0.08017102,-0.4789702,1.327129,0.2160682,-0.4947912,1.298667,0.07757658,-0.1627013,1.453222,0.06858855,-0.4709249,1.427227,-0.08542827,0.01714815,1.437747,-0.001557095,-0.4603935,1.396208,-0.1199654,-0.2417537,1.423065,0.2665233,-0.2475249,1.394637,NA,NA,NotTracked,NotTracked,
0.9438477,-0.3041992,0.07958984,0.9731445,0.237793,0.2294922,-2,-1,-1,-1,0,1,-2,-1,2,-20,3,-1,0,-7,-23,2,-0.8125,-0.8125,-0.8125,62.5,62.5,62.5,2.852633,3.007289,9.285751,6.118133,2.889315,1.298474,-0.1156216,-0.4830371,1.350625,0.2436635,-0.5099062,1.324398,0.1018186,0.2924677,1.477957,-0.07811461,-0.4745883,1.327672,0.209474,-0.5033628,1.304,0.08071116,-0.1610178,1.451407,0.07070614,-0.4701721,1.426964,-0.08253124,0.01798185,1.436094,0.0004417073,-0.4595239,1.396227,-0.1177767,-0.2414577,1.422714,0.2707254,-0.2464171,1.400215,NA,NA,NotTracked,NotTracked,
0.9404297,-0.3105469,0.08007813,0.9682617,0.2255859,0.1503906,0,-1,0,-2,-1,-1,-1,-2,-4,-5,-1,0,0,0,4,-3,4.4375,4.4375,4.4375,49.0625,49.0625,49.0625,2.857722,3.003086,9.283618,6.142865,2.894639,1.361477,-0.1126921,-0.482587,1.352089,0.2452223,-0.5082578,1.327318,0.1066206,0.2945359,1.480837,-0.07664056,-0.4729336,1.328243,0.2097392,-0.4954544,1.310228,0.08431227,-0.1588789,1.450482,0.07381694,-0.4687204,1.427424,-0.07867888,0.01999822,1.434849,0.003386422,-0.4579265,1.396687,-0.115274,-0.2409149,1.423176,0.275859,-0.2434508,1.404663,NA,NA,NotTracked,NotTracked,
