ALX,ALY,ALZ,ARX,ARY,ARZ,EMG0L,EMG1L,EMG2L,EMG3L,EMG4L,EMG5L,EMG6L,EMG7L,EMG0R,EMG1R,EMG2R,EMG3R,EMG4R,EMG5R,EMG6R,EMG7R,GLX,GLY,GLZ,GRX,GRY,GRZ,ORL,OPL,OYL,ORR,OPR,OYR,LHNX,LHNY,LHNZ,RHNX,RHNY,RHNZ,HX,HY,HZ,LTX,LTY,LTZ,RTX,RTY,RTZ,SpineMidX,SpineMidY,SpineMidZ,SpineBaseX,SpineBaseY,SpineBaseZ,ShoulderLeftX,ShoulderLeftY,ShoulderLeftZ,ShoulderRightX,ShoulderRightY,ShoulderRightZ,ElbowLeftX,ElbowLeftY,ElbowLeftZ,ElbowRightX,ElbowRightY,ElbowRightZ,Myo_Pose_left,Myo_Pose_Right,Kinect_pose_left,Kinect_pose_right
0.9438477,-0.3105469,0.09814453,1.000488,0.2929688,0.4023438,-4,-7,-1,-2,-1,-1,-2,-2,-4,-3,-5,-5,-6,-7,0,-5,2.3125,2.3125,2.3125,6.75,6.75,6.75,2.974638,3.041575,0.04531129,6.216049,2.996647,1.119244,-0.1328184,-0.4895476,1.345149,0.232509,-0.5021319,1.322685,0.06858277,0.2476206,1.43074,-0.09480905,-0.4813266,1.326638,0.1960942,-0.5023993,1.3034,0.05705666,-0.1768436,1.451484,0.05551405,-0.4767116,1.428594,-0.110472,0.01284145,1.435597,-0.01434617,-0.4668215,1.394896,-0.1387382,-0.2439744,1.423993,0.2471902,-0.2473024,1.416031,NA,NA,NotTracked,NotTracked,
0.9257813,-0.3208008,0.08935547,1.054688,0.4238281,0.4389648,4,-10,-4,-2,0,-1,-2,4,-10,-19,-1,14,3,-1,-5,-1,-1.9375,-1.9375,-1.9375,8.6875,8.6875,8.6875,2.976761,3.043761,0.04028494,6.232008,3.12458,1.126599,-0.13317,-0.4892524,1.345256,0.2327963,-0.5037473,1.296793,0.07055094,0.2489565,1.43314,-0.09506252,-0.4804876,1.325986,0.1963063,-0.4993497,1.311467,0.05746809,-0.1767142,1.451741,0.05564853,-0.4767657,1.428503,-0.1096137,0.01286979,1.435496,-0.01416899,-0.4667861,1.394746,-0.1385187,-0.2440849,1.42403,0.2466293,-0.2484342,1.410555,NA,NA,NotTracked,NotTracked,
0.9267578,-0.3203125,0.1171875,1.086914,0.4916992,0.546875,-2,2,-1,-2,-3,-2,-2,-1,14,24,7,-6,2,2,-7,6,-5.125,-5.125,-5.125,3.125,3.125,3.125,2.983983,3.043843,0.0268509,6.15097,3.350549,1.220991,-0.1316686,-0.4892043,1.347548,0.2321211,-0.4807265,1.237303,0.07266002,0.2510318,1.43651,-0.09418706,-0.4807781,1.327086,0.1921719,-0.4786766,1.225031,0.05798271,-0.176375,1.4523,0.05589898,-0.4768028,1.428462,-0.1089035,0.01305368,1.435863,-0.01382932,-0.4666925,1.394553,-0.1382792,-0.2439965,1.424091,0.2462397,-0.2435435,1.397077,NA,NA,NotTracked,Unknown,
0.9331055,-0.3139648,0.1098633,0.996582,0.4570313,0.7148438,0,-9,-3,-2,0,-1,0,0,10,-5,23,-7,5,0,-12,0,-2.0625,-2.0625,-2.0625,-0.4375,-0.4375,-0.4375,2.9741,3.035829,0.0310112,6.018764,3.827768,1.380828,-0.1306627,-0.4874751,1.34967,0.2232404,-0.4179747,1.163379,0.07511343,0.253217,1.439745,-0.09369242,-0.4813314,1.327855,0.1842373,-0.40569,1.131514,0.05865391,-0.175971,1.452833,0.05613881,-0.4768413,1.428449,-0.1079396,0.01311801,1.43626,-0.01353781,-0.4666249,1.394326,-0.1377776,-0.2434834,1.42403,0.2483495,-0.2210835,1.3778,NA,NA,NotTracked,Unknown,
0.9692383,-0.2763672,0.05322266,0.75,0.5625,0.8354492,-2,11,1,-1,0,0,-1,3,-3,13,-27,-47,-4,-2,3,-3,-6.375,-6.375,-6.375,23.375,23.375,23.375,2.938635,3.014675,0.06227052,5.991851,4.296013,1.482398,-0.1310662,-0.4888854,1.354983,0.2050968,-0.3319653,1.082627,0.07764103,0.2555566,1.443657,-0.09363223,-0.4820222,1.332327,0.159676,-0.3037735,1.063412,0.05910685,-0.1750838,1.453618,0.05606676,-0.476364,1.42847,-0.1067803,0.01327841,1.436524,-0.01357036,-0.4660266,1.394335,-0.1372823,-0.243083,1.423976,0.2511313,-0.2080077,1.366793,NA,NA,NotTracked,Unknown,
0.9799805,-0.300293,0.04882813,0.4296875,0.5473633,0.8461914,0,-9,-3,1,0,0,0,0,-5,-18,9,-54,-11,0,-7,3,-5.9375,-5.9375,-5.9375,2.1875,2.1875,2.1875,2.894613,2.996156,0.09406989,5.979702,4.809039,1.574417,-0.131443,-0.4900396,1.358532,0.1883745,-0.2011372,1.034242,0.0802713,0.2579869,1.44762,-0.09275827,-0.482829,1.33728,0.1411385,-0.1660983,1.045727,0.05938848,-0.1738197,1.454737,0.05560534,-0.4754071,1.428778,-0.1056107,0.01329396,1.436848,-0.01402712,-0.4650699,1.395069,-0.136799,-0.2429391,1.424145,0.2614456,-0.187416,1.316091,NA,NA,NotTracked,Unknown,
0.9521484,-0.3110352,0.06640625,-0.08935547,0.4716797,0.7905273,1,-4,-2,-2,-2,-3,0,3,3,-36,-19,-11,-5,11,1,8,1.3125,1.3125,1.3125,8.375,8.375,8.375,2.870227,2.989145,0.1184407,5.991225,5.31754,1.66877,-0.1313128,-0.4934047,1.359997,0.1864784,-0.07460053,1.050622,0.08230337,0.2594971,1.44999,-0.09333409,-0.4836103,1.338725,0.1388517,-0.04475837,1.083333,0.05970296,-0.1728576,1.455644,0.05554139,-0.4747049,1.429192,-0.1036208,0.01337358,1.437271,-0.01412985,-0.4645084,1.395904,-0.1361672,-0.2431108,1.424669,0.2627252,-0.1419104,1.247242,NA,NA,NotTracked,Unknown,
0.9350586,-0.3134766,0.07861328,-0.237793,0.4819336,0.6782227,-4,6,0,-2,-1,-1,-3,-1,-10,-23,11,5,-1,-3,18,6,3.9375,3.9375,3.9375,27.1875,27.1875,27.1875,2.849339,2.990643,0.1524083,6.062616,5.748634,1.7657,-0.1316903,-0.4904377,1.361823,0.15887,0.06184479,1.059957,0.08334879,0.2630447,1.450228,-0.09327178,-0.48577,1.340185,0.1219738,0.09357709,1.093615,0.060384,-0.172444,1.455947,0.05524568,-0.4759618,1.42955,-0.1015145,0.0137906,1.437186,-0.01500823,-0.4661115,1.398158,-0.1357443,-0.2428901,1.425043,0.2579836,-0.1172197,1.226123,NA,NA,NotTracked,Open,
0.9511719,-0.3051758,0.06152344,-0.4477539,0.4150391,0.5102539,-1,0,0,-2,0,-1,-2,-2,-19,34,-2,-3,-7,-10,30,24,8.5,8.5,8.5,28.1875,28.1875,28.1875,2.83873,2.995246,0.175279,6.215211,6.177981,1.913877,-0.1327481,-0.4906479,1.363018,0.1627017,0.1451387,1.091037,0.08328891,0.2692962,1.447893,-0.09391308,-0.4865713,1.340922,0.1278242,0.1622619,1.125074,0.06291947,-0.1698831,1.455683,0.05492403,-0.4748533,1.430003,-0.09983907,0.01426175,1.436395,-0.01594916,-0.4642987,1.3994,-0.1344161,-0.2382574,1.426662,0.2616108,-0.0720621,1.206314,NA,NA,NotTracked,Open,
0.9448242,-0.3012695,0.06738281,-0.5673828,0.4194336,0.409668,-3,-3,2,0,-1,0,-4,-5,-21,-4,-4,4,-12,-5,-33,-8,3.875,3.875,3.875,23.875,23.875,23.875,2.84219,3.000914,0.1832979,6.365654,6.413997,2.045392,-0.1325928,-0.4908032,1.36175,0.1636555,0.211709,1.122345,0.08201078,0.2690835,1.448215,-0.09358201,-0.4875017,1.339579,0.1341378,0.2324664,1.160767,0.06370392,-0.1692386,1.455724,0.05545076,-0.4731143,1.430142,-0.09756661,0.01451403,1.435481,-0.0157702,-0.4627989,1.399712,-0.1338641,-0.2358191,1.427691,0.2465494,0.01732736,1.191768,NA,NA,NotTracked,Open,
0.9443359,-0.309082,0.07568359,-0.7290039,0.3378906,0.2763672,1,0,0,-1,-2,0,0,0,-29,29,5,9,8,2,3,-4,4.875,4.875,4.875,15.5,15.5,15.5,2.851959,3.009232,0.1798634,6.549658,6.619803,2.215812,-0.1317458,-0.4907783,1.359558,0.1703065,0.2438951,1.149738,0.08118442,0.2692283,1.448422,-0.09343781,-0.486685,1.338546,0.1353338,0.2589566,1.193933,0.06470497,-0.1679979,1.455456,0.05639166,-0.4706522,1.4299,-0.09627516,0.01508182,1.435248,-0.0153226,-0.4603509,1.399613,-0.1335077,-0.2345819,1.428094,0.2463689,0.04093958,1.194895,NA,NA,NotTracked,Open,
0.9448242,-0.3149414,0.06787109,-0.7382813,0.3857422,0.2548828,-3,3,0,-1,1,0,-4,-3,-8,9,-7,-4,-2,2,9,-8,-1.8125,-1.8125,-1.8125,21.1875,21.1875,21.1875,2.855687,3.016586,0.1773612,6.686583,6.71122,2.333686,-0.1319175,-0.49038,1.359626,0.1745276,0.2656285,1.173036,0.08086959,0.2692913,1.448482,-0.09355389,-0.4841169,1.339929,0.1447716,0.2487504,1.216167,0.06605268,-0.1667878,1.455428,0.05747071,-0.4687518,1.429727,-0.09555484,0.01546993,1.435232,-0.01459012,-0.4585185,1.399702,-0.1330735,-0.2328339,1.428467,0.2487117,0.0575238,1.199366,NA,NA,NotTracked,Open,
0.9467773,-0.3115234,0.06787109,-0.8701172,0.3007813,0.1977539,3,5,6,1,0,0,1,-1,12,-44,-3,3,1,-1,65,21,-6.0625,-6.0625,-6.0625,10,10,10,2.85057,3.018578,0.174552,6.82757,6.796449,2.487935,-0.1320126,-0.4902735,1.358964,0.177428,0.2737729,1.191772,0.08078971,0.2692562,1.44858,-0.09325539,-0.4843094,1.339755,0.1454923,0.2633487,1.23027,0.06641481,-0.1662395,1.455278,0.05814734,-0.4673379,1.429367,-0.09510111,0.01583193,1.435256,-0.01417871,-0.4572456,1.399545,-0.1330028,-0.2317973,1.4284,0.2511195,0.06649104,1.202684,NA,NA,NotTracked,Open,
0.9477539,-0.3242188,0.07568359,-0.9116211,0.3457031,0.1508789,-1,-1,-3,-1,-1,-3,0,0,4,22,-6,3,17,-25,-11,-1,-6.1875,-6.1875,-6.1875,-12.6875,-12.6875,-12.6875,2.843202,3.021752,0.1715159,6.938876,6.836666,2.616118,-0.1315938,-0.4897564,1.357401,0.1761581,0.2892371,1.207549,0.08103939,0.2687857,1.448001,-0.0934823,-0.485827,1.338502,0.144035,0.2774789,1.247925,0.06675824,-0.1658746,1.455206,0.05865603,-0.4665728,1.42908,-0.09470752,0.01613314,1.435307,-0.01377833,-0.4565381,1.399401,-0.132973,-0.2315082,1.428353,0.2523544,0.07392216,1.205612,NA,NA,NotTracked,Open,
0.940918,-0.3061523,0.05957031,-0.9238281,0.4433594,0.1191406,1,-2,-15,-1,-1,-2,-1,-5,-25,29,-3,-4,-1,7,16,2,-4.125,-4.125,-4.125,3.625,3.625,3.625,2.835264,3.024759,0.1726953,7.072814,6.873284,2.767071,-0.1320159,-0.4895746,1.356938,0.1757197,0.2954038,1.22402,0.08215053,0.2680158,1.447081,-0.09355453,-0.4857374,1.338047,0.1430591,0.2745239,1.261556,0.06689457,-0.1656606,1.455198,0.05866338,-0.4659466,1.42904,-0.09430756,0.01634694,1.435285,-0.013803,-0.4558119,1.399499,-0.1329646,-0.2301582,1.428338,0.252925,0.07931381,1.207837,NA,NA,NotTracked,Open,
0.9384766,-0.3032227,0.0625,-0.9599609,0.2709961,0.08789063,-1,-1,4,-3,0,-1,-1,-4,-56,13,-4,-7,-7,-2,-21,17,-2.5,-2.5,-2.5,-24.6875,-24.6875,-24.6875,2.815939,3.027303,0.1786716,7.23221,6.888897,2.973038,-0.1328238,-0.4893726,1.355978,0.1710321,0.2981768,1.239688,0.083748,0.2671748,1.445818,-0.09338085,-0.4858945,1.338289,0.1412392,0.2757848,1.275757,0.06711553,-0.1654363,1.455138,0.05873997,-0.4656297,1.428983,-0.09416158,0.01641912,1.435274,-0.01375654,-0.4554798,1.399529,-0.1332143,-0.2286891,1.428331,0.2531463,0.08282043,1.209315,NA,NA,NotTracked,Unknown,
0.9365234,-0.3095703,0.06884766,-0.730957,0.2993164,0.2197266,-3,-3,6,-1,-1,-2,-2,-3,45,61,5,-15,-10,-7,2,-40,-4,-4,-4,4,4,4,2.811027,3.026935,0.1795193,7.31803,6.870349,3.038454,-0.1327967,-0.4885729,1.355701,0.16904,0.2832239,1.247069,0.08513141,0.2662861,1.444747,-0.0939247,-0.4854375,1.337621,0.1365724,0.2620297,1.287387,0.06720769,-0.1653515,1.455132,0.05865425,-0.4654568,1.429014,-0.0940247,0.01647199,1.43528,-0.01389131,-0.4551957,1.399616,-0.1333682,-0.2277121,1.428277,0.2535759,0.08441415,1.210147,NA,NA,NotTracked,Unknown,
0.9482422,-0.309082,0.06738281,-0.9125977,0.3056641,0.1147461,3,-2,2,-2,-1,0,-1,-1,23,-3,4,6,-2,7,10,10,6.3125,6.3125,6.3125,18.3125,18.3125,18.3125,2.812371,3.026537,0.1805146,7.244704,6.870193,2.988853,-0.1332199,-0.4892267,1.356241,0.145086,0.3159342,1.278675,0.08570971,0.2657934,1.444258,-0.09344435,-0.4862906,1.338194,0.08641448,0.2933471,1.299729,0.06728661,-0.1652866,1.455151,0.05861792,-0.4653329,1.429035,-0.09395382,0.01654959,1.435303,-0.01391844,-0.4550327,1.399679,-0.1334967,-0.2270222,1.428419,0.2534395,0.08528705,1.210565,NA,NA,NotTracked,Open,
0.9370117,-0.315918,0.06884766,-0.9619141,0.3725586,0.0859375,-2,-5,-5,0,-1,-1,3,2,8,8,6,-5,-15,-25,-61,25,0,0,0,-6.1875,-6.1875,-6.1875,2.820072,3.021064,0.1792203,7.165037,6.864767,2.886936,-0.1327874,-0.4887131,1.357514,0.1573146,0.3137942,1.254449,0.08603166,0.2656308,1.4441,-0.09331739,-0.4852304,1.338512,0.1131578,0.2989753,1.29671,0.0673767,-0.1651458,1.455188,0.05859294,-0.4651116,1.429128,-0.09379283,0.01664099,1.435374,-0.0139726,-0.4547157,1.399834,-0.1335963,-0.2265095,1.428579,0.2532621,0.08634219,1.211058,NA,NA,NotTracked,Open,
0.9418945,-0.315918,0.0703125,-0.9228516,0.4194336,0.2236328,-2,-4,1,0,0,-2,-3,-4,-27,-29,-14,-9,-8,-28,-36,-6,0.375,0.375,0.375,2.375,2.375,2.375,2.827941,3.019392,0.1737331,7.003342,6.850195,2.706969,-0.1328102,-0.4895122,1.359107,0.1698495,0.3157713,1.227082,0.08602025,0.2656774,1.444161,-0.09364262,-0.4857863,1.338345,0.1324227,0.2864698,1.26972,0.06753801,-0.1649196,1.455259,0.05861849,-0.4648598,1.429273,-0.09365255,0.01675436,1.435515,-0.0139611,-0.4544946,1.400041,-0.133828,-0.2261488,1.429025,0.252744,0.08693205,1.211199,NA,NA,NotTracked,Open,
0.9477539,-0.328125,0.07373047,-0.9526367,0.3549805,0.2060547,2,-3,-5,-3,-1,-1,-7,-3,-19,-7,-7,0,2,-11,-27,-17,5,5,5,-13.1875,-13.1875,-13.1875,2.829337,3.018103,0.1767727,7.020182,6.856168,2.753916,-0.1326986,-0.4900862,1.36051,0.16991,0.2922431,1.228205,0.08589874,0.2656785,1.444431,-0.09351356,-0.4853813,1.339205,0.1370037,0.2753404,1.273382,0.06756386,-0.1648652,1.455307,0.05852799,-0.4647268,1.429397,-0.09357934,0.01680901,1.435572,-0.01407078,-0.4543205,1.40019,-0.1339941,-0.2260553,1.429355,0.25258,0.0869472,1.211228,NA,NA,NotTracked,Open,
0.9458008,-0.3193359,0.07568359,-0.953125,0.4233398,0.02783203,-4,2,-7,0,-1,1,0,0,39,16,4,11,2,1,-3,11,-2.5625,-2.5625,-2.5625,-14.875,-14.875,-14.875,2.826984,3.014173,0.1818683,7.24241,6.859768,3.02886,-0.1325925,-0.4874032,1.362393,0.1593237,0.3318843,1.244832,0.08591465,0.2655692,1.444501,-0.09285233,-0.4783718,1.345627,0.1480357,0.3094445,1.274083,0.0675803,-0.1648214,1.455369,0.05842262,-0.4646142,1.429538,-0.09356131,0.01685382,1.43565,-0.0141703,-0.4541961,1.400391,-0.1340302,-0.2261123,1.429783,0.2522284,0.08708632,1.21125,NA,NA,NotTracked,Unknown,
0.9345703,-0.3085938,0.0546875,-0.7026367,0.2192383,0.2739258,1,4,1,0,-3,1,6,-5,-24,-13,-9,-2,0,-4,-19,-12,2,2,2,34.0625,34.0625,34.0625,2.815116,3.011715,0.1937222,7.249503,6.848832,3.020699,-0.133055,-0.4875992,1.362734,0.1385806,0.3209011,1.278593,0.08592531,0.2652361,1.444236,-0.09395375,-0.4842396,1.340172,0.09362105,0.306004,1.300382,0.06758957,-0.1648123,1.455403,0.05833088,-0.4645758,1.429599,-0.0935586,0.01684944,1.435677,-0.01430756,-0.4541561,1.400635,-0.1339732,-0.2261455,1.43008,0.2517793,0.0869514,1.21111,NA,NA,NotTracked,Open,
0.9462891,-0.3183594,0.06005859,-0.8032227,0.2880859,0.1640625,-1,5,1,-1,-1,-1,-3,0,8,8,3,4,6,2,19,-9,1.625,1.625,1.625,0.5,0.5,0.5,2.812797,3.015071,0.1970337,7.202626,6.835017,2.994167,-0.1334331,-0.4878371,1.362054,0.1361731,0.3186104,1.277897,0.08586647,0.264977,1.44422,-0.0935449,-0.4841491,1.34039,0.08804596,0.3057518,1.299702,0.06757899,-0.1648292,1.455477,0.05824939,-0.4645545,1.429696,-0.09356016,0.01683867,1.435759,-0.01440233,-0.4541355,1.400833,-0.1338406,-0.2263833,1.430478,0.2512696,0.08682431,1.21097,NA,NA,NotTracked,Open,
0.9467773,-0.3198242,0.0703125,-0.871582,0.3789063,0.06396484,0,-1,-2,-2,-2,0,-3,-5,-5,-56,-1,-2,0,-1,9,9,-1.5,-1.5,-1.5,-8.75,-8.75,-8.75,2.822538,3.019503,0.1895541,7.080863,6.822242,2.874288,-0.1330571,-0.4879012,1.361589,0.1369012,0.3169633,1.276554,0.08583939,0.2647357,1.444098,-0.09343278,-0.4837264,1.340548,0.09235746,0.3066187,1.302276,0.06758353,-0.1648343,1.455496,0.05819064,-0.4645476,1.429733,-0.09356741,0.01682464,1.435864,-0.01446235,-0.4541321,1.400922,-0.1337552,-0.2262009,1.430869,0.250732,0.08625983,1.210634,NA,NA,NotTracked,Open,
0.9414063,-0.3198242,0.06201172,-0.8383789,0.3808594,0.159668,-1,4,-8,-1,-1,-1,-5,3,20,27,-2,1,-6,0,12,0,-5.8125,-5.8125,-5.8125,-5.9375,-5.9375,-5.9375,2.822662,3.018531,0.1830307,6.907359,6.792419,2.690312,-0.1329944,-0.4880566,1.362447,0.1628257,0.2763712,1.227364,0.08563551,0.2647361,1.444477,-0.09344447,-0.4840813,1.340474,0.132813,0.2698179,1.281421,0.06755023,-0.1648463,1.455553,0.05805412,-0.464516,1.429832,-0.09354981,0.0168162,1.435913,-0.01459556,-0.454071,1.401034,-0.1336326,-0.2260742,1.431218,0.2536329,0.07420385,1.206662,NA,NA,NotTracked,Unknown,
0.9501953,-0.3139648,0.06738281,-0.8608398,0.390625,0.2158203,1,3,18,0,1,-1,-3,2,-27,-6,2,10,2,2,-14,-6,-3.75,-3.75,-3.75,-0.875,-0.875,-0.875,2.81856,3.016775,0.1788887,6.722734,6.736262,2.490604,-0.1332933,-0.4875489,1.361375,0.1651258,0.2704935,1.208236,0.08507343,0.2651712,1.445191,-0.09344163,-0.4831357,1.340809,0.1328784,0.2676118,1.261937,0.06757241,-0.1648167,1.455582,0.05802757,-0.4645131,1.429858,-0.09351917,0.01680951,1.435917,-0.01461415,-0.4540749,1.401066,-0.1336709,-0.2260522,1.431233,0.2559204,0.0627531,1.203518,NA,NA,NotTracked,Open,
0.9321289,-0.3139648,0.06787109,-0.7636719,0.387207,0.2612305,0,-3,-2,-1,-3,-2,-7,-4,-16,-9,-5,-3,-3,0,5,-19,-3.4375,-3.4375,-3.4375,-10.1875,-10.1875,-10.1875,2.814362,3.017414,0.1722006,6.529546,6.640267,2.279818,-0.1336477,-0.4871525,1.360434,0.1615259,0.3200384,1.169686,0.08388156,0.2660736,1.446891,-0.09348268,-0.4836237,1.340132,0.1505338,0.3089038,1.187333,0.06757103,-0.1648379,1.455619,0.05804704,-0.464573,1.429877,-0.09348804,0.01680688,1.435908,-0.01459038,-0.4541139,1.401039,-0.1337064,-0.2260668,1.431202,0.2550022,0.05880864,1.202213,NA,NA,NotTracked,Unknown,
0.949707,-0.3139648,0.0703125,-0.6796875,0.3681641,0.4213867,-3,-1,-6,-1,-3,-2,-2,-12,-22,-4,4,0,-4,0,-1,-5,-5.9375,-5.9375,-5.9375,-16.875,-16.875,-16.875,2.811612,3.017986,0.1665126,6.288877,6.458212,2.023381,-0.1334757,-0.4870534,1.359522,0.1733498,0.2263199,1.158063,0.0831965,0.2666202,1.448458,-0.09387578,-0.4832841,1.339513,0.1402399,0.226589,1.201556,0.0675422,-0.1649524,1.455733,0.05806526,-0.4647447,1.429924,-0.09336542,0.01676422,1.43583,-0.01458257,-0.4542567,1.400947,-0.1339044,-0.2267369,1.430844,0.2516776,0.05141737,1.19956,NA,NA,NotTracked,Open,
0.9555664,-0.3037109,0.06494141,-0.6914063,0.3994141,0.5380859,-2,-3,-1,-1,-1,1,-1,-4,10,27,1,-8,-3,-1,3,-6,-0.875,-0.875,-0.875,-11.8125,-11.8125,-11.8125,2.814172,3.021438,0.1595217,6.142259,6.282038,1.867075,-0.1334744,-0.4864034,1.357303,0.1763309,0.1928506,1.134209,0.08300588,0.2668107,1.450395,-0.09421123,-0.4819693,1.338487,0.1423221,0.2150752,1.177522,0.06749778,-0.1651659,1.455895,0.05814458,-0.4651116,1.429903,-0.09328537,0.0166284,1.435768,-0.01450447,-0.4547427,1.400662,-0.1339981,-0.2273333,1.4305,0.2582218,-0.0003415121,1.195609,NA,NA,NotTracked,Open,
0.9467773,-0.3183594,0.07226563,-0.5551758,0.4306641,0.6499023,-1,1,-1,1,0,0,-1,-2,-20,-16,-3,2,-1,1,3,-11,2.0625,2.0625,2.0625,-18.875,-18.875,-18.875,2.827387,3.029185,0.1423255,6.014866,6.066913,1.737673,-0.1342617,-0.4855197,1.355734,0.1816412,0.149197,1.104721,0.08255456,0.2677823,1.452986,-0.09426896,-0.4822684,1.335929,0.1460878,0.1814849,1.147944,0.06736983,-0.1653954,1.456073,0.05800288,-0.4656071,1.429858,-0.09328505,0.01643942,1.435669,-0.01463868,-0.4552795,1.400322,-0.1341115,-0.2288805,1.429393,0.2677397,-0.05599636,1.206681,NA,NA,NotTracked,Open,
0.9521484,-0.3012695,0.05761719,-0.3408203,0.4326172,0.7407227,-1,-1,-2,0,-2,0,-1,-4,19,20,-2,4,-1,1,-1,-6,1.875,1.875,1.875,-33.6875,-33.6875,-33.6875,2.839404,3.032267,0.132856,5.904086,5.728378,1.627021,-0.1332424,-0.4852498,1.353503,0.188814,0.08104143,1.081771,0.08321247,0.2691324,1.455952,-0.09424543,-0.4811508,1.334529,0.1617448,0.1153287,1.1065,0.0672464,-0.1653382,1.456603,0.05780867,-0.4658051,1.429805,-0.09310156,0.01646338,1.437084,-0.01476755,-0.4556093,1.400251,-0.133751,-0.2305264,1.428437,0.2685855,-0.09575434,1.22297,NA,NA,NotTracked,Open,
0.9511719,-0.3266602,0.078125,-0.3198242,0.4628906,0.8652344,-6,-2,1,0,-1,-1,-2,-2,-16,-26,0,3,-5,-1,0,-8,2.9375,2.9375,2.9375,-12.6875,-12.6875,-12.6875,2.850185,3.033721,0.1217476,5.856663,5.425308,1.568251,-0.1326193,-0.4880702,1.352372,0.1873014,0.01849937,1.052391,0.08413074,0.2683531,1.458839,-0.0939105,-0.4824077,1.333409,0.1562314,0.06096986,1.067333,0.06617725,-0.1668408,1.457845,0.05691369,-0.4693534,1.42932,-0.09378371,0.01644691,1.437979,-0.01498604,-0.45926,1.399725,-0.1330907,-0.2357892,1.425955,0.2648797,-0.1132762,1.2296,NA,NA,NotTracked,Unknown,
0.9379883,-0.3178711,0.07519531,0.04833984,0.5126953,0.9648438,-4,0,-1,-1,-2,0,-1,-1,15,19,-2,-12,1,2,6,8,-0.25,-0.25,-0.25,-7.5,-7.5,-7.5,2.860787,3.031288,0.1145652,5.820705,4.98357,1.511257,-0.131661,-0.4879607,1.351544,0.192444,-0.08324521,1.060412,0.08475915,0.267794,1.46062,-0.0937786,-0.4829288,1.330271,0.1610012,-0.03418309,1.054889,0.06555731,-0.1672785,1.458387,0.05701232,-0.4698442,1.429136,-0.09430049,0.01607107,1.438499,-0.01452852,-0.4599914,1.39921,-0.1331435,-0.2364941,1.425373,0.2596297,-0.1545812,1.240894,NA,NA,NotTracked,Unknown,
0.9350586,-0.3095703,0.06494141,0.2382813,0.4008789,0.8730469,4,-1,-1,0,-4,0,-4,-1,-6,-1,-3,18,-3,-5,-17,-6,1.625,1.625,1.625,-33.9375,-33.9375,-33.9375,2.866014,3.026724,0.1130918,5.78916,4.62736,1.479958,-0.1318019,-0.489445,1.352514,0.2052798,-0.1890521,0.9948072,0.08501774,0.2677156,1.461503,-0.09315184,-0.4844783,1.332574,0.1935058,-0.1777115,0.9590001,0.06518368,-0.1675144,1.458559,0.05700738,-0.4701149,1.428902,-0.0948057,0.01587629,1.438719,-0.01422205,-0.4603996,1.398516,-0.132769,-0.2383847,1.424352,0.2654898,-0.1889697,1.246399,NA,NA,NotTracked,Unknown,
0.9443359,-0.3222656,0.07421875,0.4677734,0.4882813,0.8979492,-1,-1,-1,0,0,-1,0,1,-3,-7,0,1,4,3,8,-1,2.75,2.75,2.75,4.9375,4.9375,4.9375,2.859489,3.021016,0.1238776,5.783467,4.273571,1.465526,-0.1313989,-0.4884751,1.353152,0.2108735,-0.2974547,1.020964,0.08505304,0.2677256,1.46192,-0.0934332,-0.4840091,1.333514,0.1976241,-0.2894478,0.9803333,0.0648995,-0.1676514,1.458573,0.05701883,-0.4703035,1.428648,-0.09547842,0.01567799,1.439024,-0.01395448,-0.4606389,1.397833,-0.1326452,-0.2395023,1.42368,0.2717021,-0.1977585,1.354274,NA,NA,NotTracked,Unknown,
0.9482422,-0.324707,0.07763672,0.6762695,0.4594727,0.8051758,0,0,-2,-1,-2,-2,-2,-2,-7,-3,1,-3,-2,0,10,-3,0.375,0.375,0.375,25.1875,25.1875,25.1875,2.853915,3.016572,0.1316062,5.808523,3.936426,1.460045,-0.1318643,-0.4887542,1.354497,0.2155691,-0.3438457,1.120391,0.08499599,0.2678668,1.462248,-0.09361049,-0.483268,1.33516,0.1779083,-0.3158943,1.0935,0.06480651,-0.167692,1.458544,0.05725263,-0.4704463,1.428294,-0.0957827,0.01562315,1.439052,-0.01331299,-0.4607214,1.396836,-0.1326649,-0.2398774,1.423596,0.2580572,-0.2054475,1.368943,NA,NA,NotTracked,Unknown,
0.9379883,-0.3100586,0.07226563,0.9223633,0.362793,0.6054688,-2,-3,-1,-3,0,-1,-3,-1,-1,-7,-1,1,1,-1,-1,-4,-1.6875,-1.6875,-1.6875,-4.8125,-4.8125,-4.8125,2.850265,3.013948,0.1348039,5.850219,3.537534,1.434217,-0.1318676,-0.4878477,1.353696,0.2161671,-0.408174,1.169058,0.08492009,0.2679214,1.462223,-0.09352799,-0.4835052,1.334513,0.1787761,-0.3906191,1.129655,0.06463161,-0.1678163,1.458331,0.05733536,-0.4706917,1.427847,-0.09595932,0.01562062,1.43883,-0.01297084,-0.4608275,1.395598,-0.1327172,-0.2401399,1.423462,0.2509271,-0.2087557,1.377186,NA,NA,NotTracked,Unknown,
0.9560547,-0.3061523,0.07861328,0.9375,0.3623047,0.46875,-1,0,-1,-2,-1,0,-1,-1,-5,-22,-1,-1,-2,-5,-2,-1,2.4375,2.4375,2.4375,2.5,2.5,2.5,2.852588,3.014848,0.1347606,5.887733,3.287376,1.393638,-0.132061,-0.488908,1.352948,0.2198302,-0.4558485,1.219475,0.08488514,0.2680716,1.46217,-0.09351609,-0.4830778,1.335331,0.1847735,-0.4468602,1.178,0.06447686,-0.1680707,1.458048,0.05730467,-0.4711953,1.427503,-0.09640462,0.01541989,1.438494,-0.01289906,-0.4610796,1.394804,-0.1326472,-0.2408927,1.422978,0.2482706,-0.2236937,1.382886,NA,NA,NotTracked,Unknown,
0.9609375,-0.3051758,0.06347656,1.012695,0.262207,0.3613281,0,0,-1,-2,-1,-2,-2,-3,3,-1,2,0,-1,-3,-2,1,1.9375,1.9375,1.9375,-31.5625,-31.5625,-31.5625,2.857258,3.018826,0.1329601,5.920766,3.090139,1.315204,-0.1320239,-0.4884523,1.351112,0.2257933,-0.4871574,1.267707,0.08484923,0.2682635,1.462057,-0.0932465,-0.4836465,1.332127,0.1958858,-0.4824431,1.227775,0.06439001,-0.1683012,1.457741,0.05731403,-0.4715768,1.427247,-0.09690756,0.01532208,1.438374,-0.01283057,-0.4612676,1.394405,-0.1325677,-0.241873,1.422428,0.2473805,-0.2346333,1.391093,NA,NA,NotTracked,Lasso,
0.953125,-0.2983398,0.06298828,0.9946289,0.3369141,0.3110352,-1,0,-2,0,0,-1,0,1,-3,9,-1,0,-1,-3,0,-4,-1.625,-1.625,-1.625,-77.125,-77.125,-77.125,2.887785,3.026483,0.1013402,6.004347,2.938818,1.13253,-0.1306378,-0.4870978,1.349042,0.2294935,-0.5024301,1.307729,0.08485551,0.2687683,1.461692,-0.09223501,-0.4825793,1.327737,0.2044205,-0.5025895,1.267171,0.06425394,-0.1683136,1.457269,0.05739115,-0.4716362,1.427026,-0.09699751,0.01531787,1.438225,-0.01269723,-0.4611882,1.393984,-0.1326124,-0.2418678,1.422149,0.2486207,-0.2421201,1.401725,NA,NA,NotTracked,Unknown,
0.9462891,-0.3173828,0.08203125,0.9570313,0.09814453,0.362793,-3,-4,-1,-2,0,-2,0,-2,2,-1,0,-2,1,0,-3,-2,-5.0625,-5.0625,-5.0625,25.5,25.5,25.5,2.925608,3.036619,0.05436179,5.995773,2.891443,1.096041,-0.1293859,-0.4855841,1.34658,0.2301613,-0.5078999,1.329976,0.08487611,0.2692827,1.461116,-0.0913783,-0.478079,1.322432,0.1936489,-0.5029287,1.312236,0.06425281,-0.1681966,1.456721,0.05762583,-0.4715409,1.426773,-0.09725661,0.01530596,1.437897,-0.0123775,-0.4610341,1.39361,-0.1327188,-0.2418841,1.422004,0.2506583,-0.2446519,1.412727,NA,NA,NotTracked,NotTracked,
0.9223633,-0.331543,0.112793,0.9472656,0.2729492,0.2661133,0,0,-1,-2,-3,0,-1,0,3,17,1,1,-1,-2,-5,1,-6.8125,-6.8125,-6.8125,25.0625,25.0625,25.0625,2.961416,3.046934,0.004725011,6.146825,2.884455,1.00449,-0.1284769,-0.4827556,1.34733,0.2358063,-0.5095602,1.340339,0.08495604,0.2700112,1.460902,-0.09081818,-0.4773617,1.323722,0.1957911,-0.5031255,1.315196,0.0644426,-0.1679411,1.456434,0.05829858,-0.4712356,1.426777,-0.09746876,0.0153425,1.437709,-0.01169093,-0.460847,1.393504,-0.1326687,-0.242216,1.421922,0.2524576,-0.2459445,1.420171,NA,NA,NotTracked,NotTracked,
0.9291992,-0.3251953,0.09326172,0.9609375,0.1567383,0.2446289,0,-2,0,-2,-1,0,0,0,0,-6,-3,-1,-1,-2,-3,-1,-8.5,-8.5,-8.5,6.5625,6.5625,6.5625,2.974406,3.049008,9.974191,6.168886,2.895701,0.9922523,-0.1274673,-0.4826905,1.34683,0.2406794,-0.502804,1.343627,0.08502514,0.2707506,1.46072,-0.09022701,-0.4732688,1.323408,0.2013929,-0.4855818,1.324829,0.06470051,-0.1676459,1.456167,0.05922793,-0.4709815,1.426783,-0.09762656,0.01542773,1.437486,-0.01073209,-0.4607239,1.393306,-0.1326749,-0.2419585,1.421932,0.2539335,-0.2465808,1.422946,NA,NA,NotTracked,NotTracked,
0.9399414,-0.3178711,0.08007813,0.9658203,0.1782227,0.1967773,-2,4,-1,-1,-3,-2,-2,-1,-1,0,-1,-1,-2,-1,-14,0,-4.625,-4.625,-4.625,-5,-5,-5,2.963819,3.044914,9.974107,6.168385,2.919703,0.997388,-0.1278163,-0.4829216,1.347199,0.2426103,-0.5008158,1.341119,0.08516643,0.2714038,1.460661,-0.09014533,-0.4719148,1.32535,0.2004125,-0.4930419,1.321698,0.06481384,-0.1674364,1.456061,0.05984773,-0.4707463,1.427071,-0.09768364,0.01550874,1.437221,-0.01006069,-0.4605734,1.393493,-0.1326864,-0.2419375,1.42201,0.2545724,-0.246892,1.424119,NA,NA,NotTracked,NotTracked,
