ALX,ALY,ALZ,ARX,ARY,ARZ,EMG0L,EMG1L,EMG2L,EMG3L,EMG4L,EMG5L,EMG6L,EMG7L,EMG0R,EMG1R,EMG2R,EMG3R,EMG4R,EMG5R,EMG6R,EMG7R,GLX,GLY,GLZ,GRX,GRY,GRZ,ORL,OPL,OYL,ORR,OPR,OYR,LHNX,LHNY,LHNZ,RHNX,RHNY,RHNZ,HX,HY,HZ,LTX,LTY,LTZ,RTX,RTY,RTZ,SpineMidX,SpineMidY,SpineMidZ,SpineBaseX,SpineBaseY,SpineBaseZ,ShoulderLeftX,ShoulderLeftY,ShoulderLeftZ,ShoulderRightX,ShoulderRightY,ShoulderRightZ,ElbowLeftX,ElbowLeftY,ElbowLeftZ,ElbowRightX,ElbowRightY,ElbowRightZ,Myo_Pose_left,Myo_Pose_Right,Kinect_pose_left,Kinect_pose_right
0.9384766,-0.3359375,0.08789063,1.005859,0.269043,0.4306641,-2,-2,1,-1,1,-1,-1,-2,1,0,-9,3,0,1,1,1,-0.5625,-0.5625,-0.5625,-35.75,-35.75,-35.75,2.902281,3.060802,7.170425,5.999335,3.150097,0.4802473,-0.1061675,-0.4802683,1.380886,0.2536179,-0.4826378,1.313481,0.1056304,0.2750448,1.493277,-0.06801421,-0.4748878,1.357971,0.2338774,-0.4843934,1.3425,0.08776359,-0.1664455,1.48676,0.08328969,-0.4702055,1.460018,-0.07663278,0.01407127,1.472846,0.01269091,-0.460078,1.429441,-0.1092471,-0.2449635,1.459853,0.2739786,-0.2461827,1.429376,NA,NA,NotTracked,Unknown,
0.934082,-0.3334961,0.08300781,0.8974609,0.3491211,0.6489258,0,0,1,-1,-2,0,0,-1,-16,4,-2,48,18,-4,-17,2,-1.0625,-1.0625,-1.0625,-52.3125,-52.3125,-52.3125,2.901525,3.061426,7.170484,5.819538,3.454932,0.5860485,-0.1064025,-0.480031,1.380747,0.2383608,-0.4685867,1.270237,0.1054794,0.2750084,1.493445,-0.06666747,-0.4722759,1.361533,0.2249471,-0.4940149,1.294667,0.08735771,-0.1664301,1.486855,0.08288489,-0.4701586,1.460055,-0.07696378,0.01400806,1.47297,0.01225386,-0.4600565,1.429409,-0.1094635,-0.245098,1.459802,0.2736796,-0.244072,1.429247,NA,NA,NotTracked,Unknown,
0.9414063,-0.3393555,0.0859375,0.7734375,0.3793945,0.8603516,-1,0,-4,-2,-2,-1,0,0,-27,0,0,2,7,0,1,1,-1.125,-1.125,-1.125,-51.75,-51.75,-51.75,2.899155,3.064552,7.171749,5.701303,3.787111,0.6287297,-0.1074676,-0.4797038,1.38161,0.2209223,-0.4193995,1.212613,0.105142,0.2749475,1.493951,-0.06689497,-0.4723654,1.361925,0.2035269,-0.4398062,1.268111,0.08657077,-0.1664233,1.486962,0.08128808,-0.4699129,1.459865,-0.07740834,0.01400334,1.473413,0.0105274,-0.459717,1.429267,-0.1095964,-0.2451286,1.459829,0.2720711,-0.2374147,1.42695,NA,NA,NotTracked,Closed,
0.9428711,-0.347168,0.08935547,0.5683594,0.3427734,1.025879,-1,-2,2,-1,-1,-2,-2,-2,6,-3,7,-4,5,-2,2,-1,10.6875,10.6875,10.6875,-76.6875,-76.6875,-76.6875,2.901747,3.072039,7.179524,5.567294,4.193628,0.6565462,-0.1069872,-0.4796703,1.3797,0.2111955,-0.3267949,1.158405,0.104693,0.2749656,1.494789,-0.06674439,-0.4713891,1.361809,0.2005063,-0.3393072,1.203429,0.08586793,-0.1663577,1.487105,0.07905757,-0.4696233,1.459238,-0.07776496,0.01388537,1.473827,0.008510008,-0.4593529,1.428753,-0.1100072,-0.2451375,1.459897,0.2689376,-0.2138349,1.4193,NA,NA,NotTracked,Unknown,
0.9404297,-0.3530273,0.09130859,0.1821289,0.2641602,1.138672,0,-2,-3,-4,0,0,-2,-2,29,6,-11,-41,-4,-4,-2,-7,6.375,6.375,6.375,-65.25,-65.25,-65.25,2.904933,3.085549,7.195831,5.406649,4.823156,0.6786268,-0.1075861,-0.4792967,1.377569,0.1983621,-0.2170525,1.118021,0.1041689,0.2748947,1.496039,-0.06669675,-0.4710894,1.361494,0.1476731,-0.2377064,1.119526,0.08553156,-0.1662746,1.487503,0.07862386,-0.4695008,1.459283,-0.07812009,0.01370455,1.4745,0.008164532,-0.4593663,1.42898,-0.1101149,-0.2450372,1.459985,0.2766568,-0.2057107,1.394418,NA,NA,NotTracked,Unknown,
0.9291992,-0.3486328,0.09130859,-0.1572266,0.1723633,1.054688,-1,-2,-2,-2,0,-2,1,-2,-13,-9,-9,3,-12,-10,-2,-4,11.375,11.375,11.375,-49.25,-49.25,-49.25,2.906598,3.097563,7.210891,5.312894,5.328587,0.6957732,-0.1076806,-0.4786719,1.376247,0.1750977,-0.07280514,1.092741,0.1038742,0.2744355,1.49788,-0.06930152,-0.4754063,1.354077,0.1732328,-0.09441056,1.061278,0.08509971,-0.1660338,1.488281,0.07829893,-0.4688273,1.459492,-0.07816812,0.01354178,1.475099,0.007842174,-0.458985,1.429997,-0.1106109,-0.2448869,1.460195,0.2682177,-0.2014605,1.283242,NA,NA,NotTracked,Closed,
0.9257813,-0.3515625,0.08789063,-0.340332,0.07226563,0.9326172,-2,3,0,0,-2,-2,-2,-1,13,-9,2,-29,-51,-14,0,2,7.5,7.5,7.5,-47.4375,-47.4375,-47.4375,2.90521,3.10679,7.229149,5.224698,5.800918,0.6967503,-0.1088829,-0.4786503,1.375982,0.1918231,0.02314313,1.125463,0.1033354,0.274006,1.499755,-0.06742403,-0.4729604,1.359667,0.2156675,0.03468592,1.09574,0.08452479,-0.1666368,1.48921,0.07767891,-0.4695331,1.459742,-0.07813034,0.01326448,1.476203,0.006724445,-0.4604477,1.431921,-0.1107685,-0.2449015,1.460253,0.2493033,-0.1460163,1.261963,NA,NA,NotTracked,Unknown,
0.9194336,-0.3637695,0.09423828,-0.4536133,0.09716797,0.7285156,-1,-3,0,0,0,-1,-1,-1,16,-7,-7,-7,5,2,2,-10,5.1875,5.1875,5.1875,-48.5625,-48.5625,-48.5625,2.899317,3.11599,7.249546,5.113587,6.332741,0.6788139,-0.1099064,-0.4807689,1.374176,0.1960465,0.1164767,1.159046,0.1015746,0.2803459,1.498953,-0.06877063,-0.4734242,1.35833,0.2209861,0.142313,1.12825,0.08723614,-0.1631989,1.487269,0.07737193,-0.4659085,1.460131,-0.07781702,0.01359934,1.47782,0.006333403,-0.456682,1.434277,-0.111198,-0.2431084,1.460581,0.2487628,-0.1411462,1.263859,NA,NA,NotTracked,Unknown,
0.9150391,-0.3808594,0.1074219,-0.5429688,-0.01025391,0.5385742,-3,-1,-1,0,-1,0,1,-1,10,12,8,13,0,92,-4,6,10.875,10.875,10.875,-47.5,-47.5,-47.5,2.89359,3.122165,7.270614,5.001642,6.662258,0.6444104,-0.1107721,-0.4805434,1.374673,0.2049474,0.1693559,1.208742,0.09858054,0.2797064,1.500673,-0.07001641,-0.4707752,1.361233,0.230844,0.1692965,1.180489,0.08883961,-0.1611074,1.486143,0.07737771,-0.4638336,1.460185,-0.07377906,0.01276476,1.476829,0.006235213,-0.4537201,1.435507,-0.1120582,-0.2404262,1.461439,0.2245502,-0.1415657,1.271159,NA,NA,NotTracked,Open,
0.9091797,-0.3642578,0.08935547,-0.7041016,-0.06396484,0.3901367,-1,-2,-1,-3,-1,-1,-1,-2,37,32,11,2,13,29,9,13,14.6875,14.6875,14.6875,-17.1875,-17.1875,-17.1875,2.89374,3.125879,7.296179,4.81965,6.933148,0.5130307,-0.1114909,-0.480895,1.374071,0.2099711,0.2101806,1.270917,0.09696804,0.2789269,1.501245,-0.07226804,-0.473848,1.356079,0.2469583,0.2184058,1.250625,0.08929133,-0.1607318,1.485621,0.07731684,-0.4634772,1.46011,-0.07178925,0.01239218,1.476438,0.006067676,-0.453593,1.436089,-0.1125325,-0.2395524,1.461825,0.2238863,-0.03674716,1.230827,NA,NA,NotTracked,Unknown,
0.9365234,-0.3833008,0.09863281,-0.7890625,-0.1137695,0.2670898,0,-6,-14,-3,0,-1,-1,-4,80,-17,-18,-26,-58,-54,-15,-25,15.875,15.875,15.875,-13.875,-13.875,-13.875,2.893705,3.130592,7.33179,4.465239,7.14141,0.1722647,-0.113511,-0.4816898,1.373295,0.219253,0.1901642,1.301926,0.09618472,0.2786579,1.501567,-0.07523771,-0.4747976,1.355089,0.240831,0.1719825,1.238177,0.08940831,-0.1602924,1.485241,0.07697107,-0.4628193,1.459984,-0.07142699,0.01214886,1.47669,0.005711169,-0.4533192,1.436681,-0.1128231,-0.2390762,1.462138,0.2234162,-0.03457493,1.231027,NA,NA,NotTracked,Unknown,
0.9453125,-0.3754883,0.1005859,-0.9277344,-0.01220703,0.046875,0,-6,-5,-2,-1,-1,-3,-1,-1,30,-11,-23,-30,-39,12,2,11.625,11.625,11.625,4.1875,4.1875,4.1875,2.894946,3.129092,7.355962,3.999441,7.275149,9.698639,-0.1154963,-0.4818519,1.374448,0.2197929,0.1894445,1.339292,0.09524938,0.2787292,1.501869,-0.07465501,-0.4754233,1.357065,0.1757738,0.1746521,1.374476,0.08960096,-0.1596268,1.48475,0.07655491,-0.4619509,1.459769,-0.07227217,0.01196957,1.478046,0.005354216,-0.4528521,1.437261,-0.113068,-0.2387392,1.462457,0.2217433,-0.03171659,1.230944,NA,NA,NotTracked,Closed,
0.9106445,-0.371582,0.09472656,-0.9731445,-0.05175781,0.1259766,0,2,-6,-3,-4,-2,1,-2,14,62,14,-4,-26,7,13,-3,-3.125,-3.125,-3.125,6.125,6.125,6.125,2.884378,3.125101,7.371244,4.093973,7.273762,9.786425,-0.1159524,-0.4822486,1.374665,0.2083925,0.2064615,1.379333,0.09489492,0.2784424,1.501784,-0.07661312,-0.4743775,1.355758,0.1597465,0.1779635,1.37925,0.08983445,-0.1590895,1.484312,0.07633474,-0.4614537,1.459562,-0.07281377,0.01164522,1.478482,0.005170489,-0.4526381,1.437586,-0.113303,-0.2386279,1.462641,0.2212619,0.05509461,1.223887,NA,NA,NotTracked,NotTracked,
0.9140625,-0.378418,0.09960938,-1.01123,-0.0703125,0.1484375,0,-2,-10,-2,-4,-1,8,-2,-20,-54,-24,-21,13,36,-23,-23,-4.875,-4.875,-4.875,-1.9375,-1.9375,-1.9375,2.870655,3.124895,7.376675,4.061381,7.260667,9.754214,-0.1161314,-0.4817564,1.373777,0.2057799,0.2052929,1.378225,0.09432332,0.2782235,1.501375,-0.07446252,-0.4747466,1.357888,0.1570631,0.1740558,1.37205,0.09005135,-0.1585848,1.483768,0.07617008,-0.4610523,1.459242,-0.07238689,0.01146154,1.477872,0.005040662,-0.452473,1.437727,-0.1137832,-0.2383315,1.462744,0.2209942,0.05451439,1.223939,NA,NA,NotTracked,NotTracked,
0.934082,-0.3828125,0.09082031,-1.032227,-0.09082031,0.1328125,-4,-2,-27,-2,-1,0,-1,0,-14,33,-15,-17,-80,-84,-37,11,2.6875,2.6875,2.6875,-3.125,-3.125,-3.125,2.864691,3.127984,7.383529,3.99311,7.249442,9.692201,-0.1165434,-0.4816475,1.371746,0.2001726,0.2048556,1.380741,0.09409773,0.2779416,1.500716,-0.07679269,-0.4750845,1.355474,0.1585045,0.172953,1.382385,0.09030753,-0.1581945,1.483331,0.07598472,-0.4607113,1.459024,-0.0723835,0.01125742,1.477663,0.004898835,-0.4523176,1.437881,-0.114257,-0.2379205,1.462803,0.22064,0.05424705,1.224039,NA,NA,NotTracked,NotTracked,
0.918457,-0.3662109,0.09423828,-0.9775391,-0.09912109,0.1547852,-2,-1,-13,-2,5,-1,-1,0,13,34,13,-16,-21,-76,-14,32,-1.3125,-1.3125,-1.3125,5.5,5.5,5.5,2.864228,3.130094,7.384307,4.021574,7.233644,9.720787,-0.1173072,-0.4814767,1.37118,0.1953714,0.2065417,1.386808,0.09424474,0.2777104,1.499964,-0.0744221,-0.4739039,1.359766,0.1520968,0.2145899,1.400938,0.09049699,-0.1578044,1.482859,0.07588246,-0.4604587,1.458804,-0.07262486,0.0111923,1.477526,0.004834259,-0.4522294,1.437896,-0.1148897,-0.2374441,1.462369,0.2197531,0.05221381,1.223991,NA,NA,NotTracked,NotTracked,
0.925293,-0.3706055,0.07958984,-0.965332,-0.09179688,0.09228516,-1,-1,10,-3,-4,0,-4,-1,24,29,3,7,59,127,64,20,5.75,5.75,5.75,-5.8125,-5.8125,-5.8125,2.864104,3.133528,7.391372,4.038962,7.215113,9.744631,-0.1186107,-0.4813381,1.36847,0.1922353,0.2082223,1.386167,0.09435578,0.2773955,1.498893,-0.07908343,-0.4672658,1.366568,0.1589363,0.1911996,1.414158,0.09049719,-0.1568405,1.482902,0.07584159,-0.4602862,1.458684,-0.07303303,0.01109932,1.477373,0.004799578,-0.4521572,1.437964,-0.1155067,-0.237152,1.46187,0.2191494,0.05177424,1.22478,NA,NA,NotTracked,NotTracked,
0.921875,-0.3666992,0.08203125,-1.000977,-0.2456055,0.07324219,-3,-5,-4,-2,-3,-2,13,-2,88,16,-6,-15,-61,-54,-19,-63,6.6875,6.6875,6.6875,-0.5,-0.5,-0.5,2.865033,3.134591,7.401711,4.229029,7.111602,9.967245,-0.119004,-0.4814296,1.367315,0.1524046,0.2758666,1.405068,0.09452313,0.2775963,1.498311,-0.07991076,-0.4651068,1.365765,0.1245683,0.2261471,1.377959,0.09056994,-0.156804,1.482396,0.07574087,-0.4602402,1.458445,-0.07280995,0.01101685,1.476526,0.004739389,-0.4521574,1.437969,-0.1162426,-0.2364267,1.461282,0.2177925,0.04487631,1.224242,NA,NA,NotTracked,NotTracked,
0.9135742,-0.3530273,0.08544922,-1.301758,-0.1894531,0.1010742,-3,-6,-16,-4,-2,-6,-4,-1,17,-6,8,11,53,115,32,40,4.25,4.25,4.25,17.625,17.625,17.625,2.863205,3.132134,7.414046,4.465671,6.904968,0.2040568,-0.1197194,-0.4815579,1.367211,0.2325836,0.3148016,1.281208,0.09463873,0.2780808,1.497858,-0.07888859,-0.4680099,1.362931,0.2033209,0.2639481,1.255344,0.09056002,-0.1567555,1.481928,0.07568789,-0.4600239,1.458178,-0.07273185,0.01106009,1.476037,0.004681649,-0.4520441,1.437929,-0.1165281,-0.2355869,1.460633,0.2152829,0.03955754,1.224328,NA,NA,NotTracked,Unknown,
0.9370117,-0.3813477,0.09619141,-1.221191,-0.2163086,0.4995117,0,-2,11,4,-2,-1,-1,-1,-11,-47,-20,-7,-15,28,2,-44,-6,-6,-6,-21.5625,-21.5625,-21.5625,2.840114,3.127485,7.436915,4.532975,6.625391,0.2872081,-0.1201055,-0.4814387,1.36695,0.1543187,0.3223659,1.179444,0.09474797,0.2783902,1.497782,-0.0791061,-0.4692304,1.360533,0.1260492,0.2710817,1.152754,0.09048297,-0.1566647,1.481476,0.0755428,-0.459836,1.457915,-0.072813,0.01137052,1.475726,0.004559113,-0.4519445,1.437964,-0.11702,-0.2342528,1.459782,0.2032792,0.04123675,1.196807,NA,NA,NotTracked,Unknown,
0.9248047,-0.3789063,0.06396484,-0.5893555,-0.1479492,0.7905273,-1,-1,2,0,-1,-3,7,-3,-4,9,7,-6,0,-17,-4,-9,-7.875,-7.875,-7.875,10.875,10.875,10.875,2.799202,3.126284,7.46192,4.664171,6.117705,0.4126388,-0.1205384,-0.48093,1.368065,0.1643514,0.2863752,1.005092,0.09495143,0.2786008,1.498142,-0.08034036,-0.4718657,1.353006,0.1354084,0.2348872,0.9785581,0.09042074,-0.1567722,1.481183,0.0754743,-0.4598822,1.457751,-0.07176495,0.01121552,1.475056,0.004396429,-0.4519282,1.438099,-0.1175638,-0.2323007,1.459206,0.1965559,0.04145281,1.158655,NA,NA,NotTracked,Unknown,
0.9165039,-0.3789063,0.06884766,0.1328125,-0.1918945,0.7329102,1,1,-15,2,4,-1,-11,-3,9,1,17,20,124,51,11,35,4,4,4,20,20,20,2.776848,3.13477,7.482585,4.718241,5.751066,0.4805361,-0.1215873,-0.4819488,1.367895,0.1729399,0.1427674,1.019127,0.09538963,0.2786995,1.499376,-0.07996024,-0.4743554,1.352129,0.1410634,0.1915343,1.0651,0.09037797,-0.1568372,1.480981,0.07545522,-0.460125,1.457609,-0.07022832,0.01092115,1.474349,0.004294228,-0.4521102,1.438429,-0.1179018,-0.230801,1.459065,0.1936313,0.02964752,1.152632,NA,NA,NotTracked,Unknown,
0.9296875,-0.3964844,0.06152344,0.05566406,-0.1430664,0.8886719,-2,-2,-8,-4,1,0,-1,-2,-8,19,16,12,-117,-79,-3,-52,15.4375,15.4375,15.4375,18.1875,18.1875,18.1875,2.776835,3.15107,7.505543,4.772832,5.546879,0.5371537,-0.1224374,-0.4805637,1.366006,0.1640238,0.1273444,0.9879239,0.09620775,0.2795276,1.501173,-0.08016779,-0.4705503,1.357671,0.1362104,0.1865635,1.0158,0.09032671,-0.1567502,1.480847,0.07542068,-0.4602725,1.457564,-0.06915433,0.01076198,1.47416,0.004146546,-0.4522881,1.438867,-0.118203,-0.229063,1.459537,0.1900463,0.02148443,1.153533,NA,NA,NotTracked,Unknown,
0.918457,-0.3598633,0.05224609,-0.1884766,-0.230957,0.9599609,0,1,-6,3,10,4,0,-1,-7,14,0,-8,7,-13,-13,-26,19.3125,19.3125,19.3125,-15.1875,-15.1875,-15.1875,2.789575,3.160511,7.515253,4.744292,5.502983,0.5322441,-0.1221524,-0.4792562,1.365771,0.1602466,0.1253712,0.97589,0.09683103,0.2806396,1.503267,-0.08046826,-0.4700739,1.35625,0.1317461,0.1812334,1.006882,0.09030347,-0.156786,1.480807,0.07532063,-0.4603802,1.457571,-0.06842869,0.01065458,1.474314,0.003789146,-0.4521132,1.440084,-0.1186474,-0.2271248,1.46061,0.1869003,0.01535383,1.154506,NA,NA,NotTracked,Unknown,
0.9057617,-0.4052734,0.07568359,-0.4438477,-0.1401367,1.02002,1,-3,4,-1,7,1,1,2,3,-37,-9,7,27,102,0,4,6.5625,6.5625,6.5625,-12.125,-12.125,-12.125,2.795796,3.169327,7.543098,4.728466,5.518916,0.5346404,-0.1237355,-0.4803249,1.368515,0.1585962,0.1250402,0.9770692,0.09703358,0.2813168,1.504646,-0.08129337,-0.471092,1.354594,0.1294523,0.1796999,0.9989193,0.09028441,-0.1567673,1.480745,0.07525884,-0.4604035,1.457556,-0.06796682,0.01058794,1.474843,0.003593463,-0.4517976,1.4409,-0.11887,-0.2264699,1.462033,0.1851274,0.0124937,1.155075,NA,NA,NotTracked,Unknown,
0.9106445,-0.4047852,0.06982422,-0.3154297,-0.09960938,0.9731445,-4,-3,-14,-3,-3,-3,-2,2,1,-5,-23,-19,-6,-35,-40,-104,2.875,2.875,2.875,14.6875,14.6875,14.6875,2.78346,3.163995,7.563082,4.747677,5.516606,0.5459172,-0.1241134,-0.4811313,1.372513,0.1559638,0.1232571,0.9775693,0.09710138,0.281681,1.505401,-0.0821856,-0.4706796,1.357839,0.1241114,0.1690978,0.9941334,0.09021978,-0.1568426,1.480735,0.07508868,-0.4605893,1.457614,-0.06744714,0.01041732,1.475237,0.00331657,-0.451784,1.441786,-0.1189747,-0.2259961,1.463372,0.184751,0.01211936,1.1552,NA,NA,NotTracked,Unknown,
0.9135742,-0.4145508,0.078125,-0.2856445,-0.1000977,1.016602,-2,-2,10,-1,2,-2,5,-1,-18,10,10,16,47,-9,-8,-38,2.6875,2.6875,2.6875,-10.125,-10.125,-10.125,2.772895,3.159138,7.580314,4.747118,5.517903,0.5421536,-0.124812,-0.4805902,1.374571,0.1556673,0.1238174,0.9747021,0.09689232,0.2819205,1.506219,-0.08313999,-0.4715155,1.360283,0.1244569,0.1817432,0.9959999,0.0901095,-0.1570042,1.480675,0.07490807,-0.4610647,1.457562,-0.06714016,0.01020793,1.47565,0.003057543,-0.4524517,1.442489,-0.1192327,-0.2257185,1.465124,0.1864151,0.008960565,1.158106,NA,NA,NotTracked,Unknown,
0.9150391,-0.4086914,0.08398438,-0.3676758,-0.1611328,0.9692383,1,7,10,3,5,-2,-3,-2,1,-3,-3,-7,-79,-23,-13,0,1.0625,1.0625,1.0625,9.0625,9.0625,9.0625,2.772025,3.157618,7.588068,4.744627,5.524755,0.5345432,-0.12593,-0.4806449,1.376524,0.1572171,0.1254357,0.9762987,0.09673718,0.2819422,1.506499,-0.08298504,-0.4738772,1.360666,0.1220176,0.1815072,1.000575,0.08996692,-0.1570913,1.480593,0.07451215,-0.4611436,1.45739,-0.06687821,0.01016872,1.476135,0.002554578,-0.4524073,1.442849,-0.1192874,-0.2251621,1.466741,0.18437,0.01573469,1.15509,NA,NA,NotTracked,Unknown,
0.918457,-0.4150391,0.08935547,-0.3945313,-0.1704102,0.9750977,0,-3,-9,-5,-6,-4,-8,-3,-7,2,11,6,1,3,-18,17,-0.5,-0.5,-0.5,-5.4375,-5.4375,-5.4375,2.77449,3.159606,7.58452,4.742307,5.528465,0.5300219,-0.1262335,-0.4805751,1.378144,0.1580072,0.1259583,0.977054,0.09651866,0.2819768,1.506879,-0.08327468,-0.471932,1.359968,0.1194326,0.1656572,0.9955001,0.08989601,-0.1569759,1.48056,0.07442963,-0.4611008,1.457416,-0.06666742,0.01015369,1.476461,0.00245714,-0.4520216,1.443255,-0.1194381,-0.2249285,1.467866,0.1843438,0.01247462,1.15533,NA,NA,NotTracked,Closed,
0.9194336,-0.40625,0.06982422,-0.3588867,-0.1767578,0.9799805,-1,6,-5,-3,2,2,3,-1,-12,5,-6,-1,11,9,1,-9,1.5,1.5,1.5,-0.75,-0.75,-0.75,2.779699,3.163791,7.580968,4.729267,5.523869,0.5229861,-0.1260851,-0.4799014,1.376625,0.1582066,0.125036,0.9769967,0.09624744,0.2821486,1.507756,-0.08248831,-0.4719855,1.357873,0.1241524,0.1619481,1.001714,0.0898139,-0.1569925,1.480577,0.07425395,-0.461159,1.45743,-0.06643365,0.01007105,1.476733,0.002212049,-0.4521303,1.44375,-0.1194924,-0.224835,1.468734,0.1837471,0.01257198,1.155473,NA,NA,NotTracked,Unknown,
0.9082031,-0.4111328,0.06982422,-0.3823242,-0.1274414,0.9624023,-1,-1,-16,-1,3,-2,-16,-2,23,-15,-20,-13,26,-99,-8,-14,-0.5,-0.5,-0.5,5.125,5.125,5.125,2.784088,3.171257,7.574073,4.743474,5.523339,0.5231881,-0.1252603,-0.4804702,1.374327,0.1581446,0.1241192,0.9765814,0.09606,0.2821382,1.508231,-0.08294617,-0.4711223,1.359363,0.1233732,0.1671298,0.9940955,0.08979283,-0.1570033,1.480578,0.07424559,-0.4611739,1.457426,-0.06640246,0.0100335,1.476995,0.002239506,-0.4520568,1.443815,-0.1195697,-0.2246875,1.469108,0.1834501,0.01276544,1.155537,NA,NA,NotTracked,Closed,
0.921875,-0.3935547,0.07177734,-0.3818359,-0.1513672,0.9951172,0,0,-17,-6,-6,-1,11,-2,-7,9,-9,-16,-37,-29,-18,22,1.4375,1.4375,1.4375,-2.0625,-2.0625,-2.0625,2.790633,3.178578,7.570819,4.730217,5.519902,0.5159647,-0.1258659,-0.4804564,1.373589,0.1588063,0.1238469,0.9757721,0.09604591,0.2821454,1.508481,-0.08215532,-0.4712693,1.3574,0.1233535,0.1605273,0.9876667,0.08974847,-0.1570872,1.480637,0.07418958,-0.4613474,1.457498,-0.06630406,0.009990645,1.477229,0.002189145,-0.4523662,1.444049,-0.1196764,-0.2244282,1.46944,0.1833276,0.0119303,1.155638,NA,NA,NotTracked,Closed,
0.9101563,-0.3989258,0.06054688,-0.3837891,-0.1625977,1.016602,1,4,6,-1,-1,-1,7,1,-1,22,-7,25,34,-41,0,-10,-1.5625,-1.5625,-1.5625,2.4375,2.4375,2.4375,2.786536,3.181334,7.571163,4.737268,5.522192,0.5152524,-0.1259044,-0.4800698,1.372656,0.1591048,0.1234374,0.9756223,0.09603505,0.2822236,1.508745,-0.08269197,-0.4707251,1.358754,0.135449,0.1844114,0.9984,0.08967619,-0.1569621,1.480653,0.07405973,-0.4612421,1.457562,-0.06616242,0.009922076,1.477429,0.002048273,-0.4519879,1.44428,-0.1197672,-0.2240449,1.469605,0.1831619,0.01233339,1.15565,NA,NA,NotTracked,Closed,
0.9121094,-0.402832,0.07910156,-0.3334961,-0.1538086,0.9794922,-1,-7,-26,-2,-2,2,-6,0,-9,-19,0,-2,10,8,-5,27,-2.375,-2.375,-2.375,-0.625,-0.625,-0.625,2.77956,3.180959,7.577142,4.739558,5.520076,0.5125552,-0.1266156,-0.479873,1.37339,0.1605395,0.1227725,0.9753828,0.09604529,0.2822546,1.508914,-0.08226586,-0.4711853,1.357284,0.1270358,0.1718429,0.9967119,0.08967342,-0.1569369,1.480729,0.07407068,-0.4611631,1.457661,-0.06603828,0.009935215,1.47767,0.002143796,-0.4517391,1.444543,-0.1199737,-0.2234849,1.470038,0.1832825,0.01186383,1.155674,NA,NA,NotTracked,Unknown,
0.9082031,-0.3994141,0.06738281,-0.3535156,-0.1713867,0.9604492,-2,-3,1,0,-2,-4,2,-1,5,16,33,2,-10,74,16,-2,1.25,1.25,1.25,-0.8125,-0.8125,-0.8125,2.773061,3.176647,7.583534,4.736922,5.52397,0.5072938,-0.1267712,-0.4800221,1.37444,0.1609762,0.1235336,0.9770429,0.09614033,0.2822756,1.509194,-0.08289887,-0.4710234,1.358839,0.1280328,0.1733772,0.9998361,0.08964632,-0.1568573,1.480764,0.07390705,-0.4609231,1.457714,-0.06585197,0.009944963,1.477871,0.001978903,-0.4512836,1.444826,-0.1200302,-0.2233636,1.470261,0.1834458,0.01151662,1.155673,NA,NA,NotTracked,Closed,
0.9077148,-0.4111328,0.07763672,-0.3598633,-0.1484375,0.9702148,3,-3,-11,-3,-8,-3,3,-2,21,-43,-25,-25,23,127,-5,-17,0.1875,0.1875,0.1875,-2.75,-2.75,-2.75,2.770009,3.172956,7.588477,4.732961,5.525146,0.5025944,-0.1267769,-0.4799922,1.375944,0.1623695,0.1218624,0.9761339,0.09622913,0.2823034,1.509427,-0.0833323,-0.4702732,1.359158,0.1270735,0.1714055,0.9974521,0.08965417,-0.1568625,1.480788,0.07384161,-0.4609222,1.457757,-0.06580003,0.009916371,1.478064,0.001919737,-0.4514559,1.445097,-0.1200705,-0.2233395,1.470709,0.1837471,0.01123896,1.155633,NA,NA,NotTracked,Closed,
0.9135742,-0.4121094,0.07226563,-0.315918,-0.1494141,0.956543,0,-3,1,2,-3,-1,8,-1,3,9,7,3,3,14,3,13,-0.4375,-0.4375,-0.4375,7.5625,7.5625,7.5625,2.764109,3.170883,7.594749,4.736894,5.519053,0.5025942,-0.1268785,-0.4804245,1.376463,0.1621523,0.1210922,0.9744415,0.09632285,0.2822634,1.509559,-0.0835766,-0.4700558,1.359507,0.1340595,0.1782165,0.9880001,0.08966844,-0.1567669,1.480859,0.07381846,-0.460642,1.457951,-0.06574073,0.00995238,1.478228,0.002071235,-0.4511484,1.445975,-0.1201218,-0.2232911,1.470881,0.1839505,0.0110755,1.155605,NA,NA,NotTracked,Unknown,
0.9067383,-0.4189453,0.06347656,-0.3447266,-0.1704102,0.9663086,2,-2,11,1,1,1,-4,-1,-11,-12,-6,-4,8,-3,22,10,0.4375,0.4375,0.4375,-4.9375,-4.9375,-4.9375,2.76085,3.171463,7.597031,4.730856,5.523622,0.5020213,-0.127248,-0.4780056,1.377031,0.1620902,0.1219199,0.9744503,0.09650642,0.2823705,1.509725,-0.08520794,-0.4687749,1.358715,0.1253175,0.1525472,0.988875,0.08969207,-0.1567058,1.480873,0.07381216,-0.460484,1.458029,-0.06565701,0.009974131,1.478281,0.002121167,-0.4510984,1.446304,-0.1201364,-0.223257,1.471192,0.184212,0.01085558,1.155563,NA,NA,NotTracked,Closed,
0.9077148,-0.4150391,0.07763672,-0.3637695,-0.1645508,0.9716797,0,-4,-22,-1,-5,-2,0,-1,12,13,-5,4,-27,-116,21,61,1.5,1.5,1.5,-2.5,-2.5,-2.5,2.76203,3.17449,7.597481,4.719753,5.532595,0.5023226,-0.1273378,-0.4787103,1.376896,0.1623961,0.1218459,0.9754661,0.09667344,0.2824365,1.509833,-0.08519882,-0.4688018,1.358785,0.1298842,0.1752003,1.001125,0.08972026,-0.1566845,1.480867,0.07383303,-0.4605023,1.458026,-0.06556271,0.01001688,1.47837,0.002169866,-0.4511957,1.446271,-0.1200745,-0.2231407,1.47132,0.1843482,0.01076065,1.155545,NA,NA,NotTracked,Unknown,
0.9091797,-0.4052734,0.06494141,-0.3569336,-0.1831055,0.9667969,-2,-1,2,1,-6,-1,20,2,24,11,11,4,-2,-18,-3,-1,0,0,0,3.1875,3.1875,3.1875,2.764372,3.177055,7.597186,4.717723,5.533903,0.502193,-0.1274977,-0.4785374,1.376191,0.1627396,0.1204613,0.9749267,0.09686634,0.2823963,1.509987,-0.0862324,-0.4665175,1.364414,0.1306737,0.1741055,0.9938655,0.08974793,-0.1566846,1.480879,0.07383589,-0.4605337,1.458042,-0.06557167,0.01011229,1.478567,0.002197324,-0.451308,1.446307,-0.1200641,-0.2230321,1.471392,0.1846222,0.01062005,1.15551,NA,NA,NotTracked,Closed,
0.9038086,-0.4130859,0.08105469,-0.3393555,-0.1547852,0.9619141,-3,-6,-3,2,-4,-5,-5,-2,-3,21,8,5,-20,21,0,11,2.125,2.125,2.125,-3.1875,-3.1875,-3.1875,2.770922,3.178935,7.593932,4.719769,5.53297,0.5020897,-0.1277479,-0.4775882,1.375067,0.1622871,0.1202261,0.9749762,0.09691817,0.2824476,1.510139,-0.08548386,-0.4685124,1.358797,0.1293448,0.1694859,0.9942045,0.08976454,-0.1566358,1.480889,0.07382812,-0.4604072,1.458064,-0.06543851,0.01014091,1.478619,0.002265642,-0.4509855,1.446455,-0.1200985,-0.2230289,1.471438,0.1847177,0.01049902,1.155502,NA,NA,NotTracked,Unknown,
0.9165039,-0.3984375,0.06103516,-0.3520508,-0.1791992,0.9731445,-2,-6,-16,-5,-1,-3,-14,-3,0,34,7,2,15,32,18,4,1.625,1.625,1.625,4.6875,4.6875,4.6875,2.774943,3.179848,7.59361,4.718302,5.530583,0.5000144,-0.1274176,-0.4790261,1.375134,0.1623738,0.1205093,0.9737893,0.09698066,0.2824445,1.510157,-0.08505099,-0.4681469,1.359798,0.1276413,0.1651029,0.9936378,0.08978017,-0.156635,1.48089,0.07383808,-0.4604487,1.458068,-0.06534313,0.01013096,1.478658,0.002309724,-0.4511206,1.446424,-0.1201244,-0.2230361,1.471512,0.184909,0.01026401,1.155483,NA,NA,NotTracked,Unknown,
0.9082031,-0.40625,0.06347656,-0.3461914,-0.171875,0.9838867,-1,2,26,-1,-9,-3,8,-1,6,-6,-12,-7,-12,-37,3,1,-1.5,-1.5,-1.5,-2.8125,-2.8125,-2.8125,2.77283,3.177978,7.595534,4.719633,5.530678,0.4994277,-0.1274497,-0.4785604,1.375868,0.162783,0.1194143,0.9740902,0.09707041,0.282466,1.510108,-0.08583432,-0.4677153,1.363252,0.1303268,0.1738166,0.9933637,0.08980168,-0.1565779,1.48087,0.0738552,-0.4603492,1.458046,-0.06530689,0.01012935,1.478686,0.002352318,-0.4508905,1.446393,-0.1200902,-0.222804,1.471528,0.1850304,0.01013681,1.155467,NA,NA,NotTracked,Closed,
0.9038086,-0.4130859,0.07128906,-0.390625,-0.1914063,0.9956055,0,-3,-4,0,-1,0,10,0,-6,-18,-8,0,21,12,-3,-10,0,0,0,5.4375,5.4375,5.4375,2.768718,3.17683,7.597218,4.721766,5.534498,0.4993096,-0.127419,-0.4787786,1.374793,0.1617778,0.1192707,0.9731735,0.0970768,0.2824762,1.510085,-0.08522159,-0.4684389,1.35923,0.131746,0.172891,0.9883838,0.08976614,-0.1564896,1.480744,0.07365379,-0.4601469,1.457711,-0.06531898,0.01014518,1.478721,0.00205005,-0.4505631,1.445888,-0.1200844,-0.2228459,1.471535,0.1851882,0.01006132,1.15544,NA,NA,NotTracked,Unknown,
0.9135742,-0.4106445,0.07666016,-0.3505859,-0.1875,0.9775391,0,-4,-10,-3,1,-2,-1,-1,-6,-16,16,14,-7,-89,-2,17,-0.75,-0.75,-0.75,-4.125,-4.125,-4.125,2.767791,3.176493,7.598562,4.719146,5.533553,0.4975443,-0.1276955,-0.4784657,1.375056,0.1620038,0.1196994,0.9731005,0.09706954,0.2824917,1.510053,-0.0851278,-0.4694675,1.361455,0.1293624,0.1691224,0.990835,0.08975545,-0.1564436,1.480671,0.07359201,-0.460049,1.457596,-0.06530932,0.01014024,1.478723,0.001986659,-0.4503956,1.44581,-0.1201627,-0.2229026,1.471547,0.1852737,0.009912301,1.155433,NA,NA,NotTracked,Unknown,
