ALX,ALY,ALZ,ARX,ARY,ARZ,EMG0L,EMG1L,EMG2L,EMG3L,EMG4L,EMG5L,EMG6L,EMG7L,EMG0R,EMG1R,EMG2R,EMG3R,EMG4R,EMG5R,EMG6R,EMG7R,GLX,GLY,GLZ,GRX,GRY,GRZ,ORL,OPL,OYL,ORR,OPR,OYR,LHNX,LHNY,LHNZ,RHNX,RHNY,RHNZ,HX,HY,HZ,LTX,LTY,LTZ,RTX,RTY,RTZ,SpineMidX,SpineMidY,SpineMidZ,SpineBaseX,SpineBaseY,SpineBaseZ,ShoulderLeftX,ShoulderLeftY,ShoulderLeftZ,ShoulderRightX,ShoulderRightY,ShoulderRightZ,ElbowLeftX,ElbowLeftY,ElbowLeftZ,ElbowRightX,ElbowRightY,ElbowRightZ,Myo_Pose_left,Myo_Pose_Right,Kinect_pose_left,Kinect_pose_right
0.9609375,-0.3320313,0.1225586,0.9584961,0.1972656,0.3100586,-1,-1,-2,-4,-4,-2,-1,-1,9,-7,0,-2,0,0,-1,-1,2.4375,2.4375,2.4375,4.3125,4.3125,4.3125,3.158773,3.086391,9.74413,5.90364,3.099759,0.8188554,-0.1058256,-0.4800106,1.338539,0.2367145,-0.4853194,1.309266,0.09806262,0.27806,1.462918,-0.07061906,-0.461587,1.313445,0.2028423,-0.4682066,1.286414,0.07937211,-0.1650566,1.453832,0.07692275,-0.4705352,1.424447,-0.0869602,0.01547755,1.427984,0.006517167,-0.4594701,1.388797,-0.1202355,-0.2398553,1.418923,0.2686442,-0.2436427,1.415016,NA,NA,NotTracked,NotTracked,
0.9365234,-0.4072266,0.1767578,0.9467773,0.2290039,0.3447266,-1,-1,0,-2,-5,0,1,-2,-5,27,-6,-8,-5,-2,-1,-4,23.0625,23.0625,23.0625,-0.9375,-0.9375,-0.9375,3.21674,3.141683,9.703043,5.833399,3.180945,0.8989179,-0.1028345,-0.4743161,1.331274,0.2292142,-0.4827223,1.300564,0.09738608,0.2790063,1.465427,-0.06941862,-0.4535326,1.30581,0.1976305,-0.4600751,1.276542,0.07913787,-0.1649786,1.453896,0.07662494,-0.4703912,1.424234,-0.08701885,0.01546603,1.428163,0.00616668,-0.4593424,1.388611,-0.1198133,-0.2397067,1.41989,0.2685406,-0.2419156,1.415776,NA,NA,NotTracked,NotTracked,
0.9033203,-0.4599609,0.2773438,0.9667969,0.2578125,0.4116211,0,-1,-1,3,-15,-19,1,-3,-5,-22,-14,5,-2,-3,-2,-2,60,60,60,-13,-13,-13,3.331867,3.247457,9.662047,5.769008,3.305929,0.959904,-0.09652293,-0.4667572,1.311755,0.2170382,-0.4703645,1.285131,0.09674139,0.2799162,1.468246,-0.06389929,-0.4420296,1.288,0.1855755,-0.4453861,1.26092,0.07905895,-0.1649294,1.453912,0.07639161,-0.4702026,1.423771,-0.08711366,0.01543529,1.428734,0.005850825,-0.4592137,1.388293,-0.1193357,-0.2377362,1.421923,0.2683456,-0.2392833,1.417262,NA,NA,NotTracked,Unknown,
0.9204102,-0.4697266,0.3115234,0.8442383,0.324707,0.5893555,0,1,1,5,20,14,2,4,-3,-29,1,4,0,0,-1,3,84.75,84.75,84.75,-33.625,-33.625,-33.625,3.457172,3.400346,9.675875,5.694611,3.550925,0.9782216,-0.08820864,-0.4624763,1.27256,0.2033425,-0.4465451,1.257185,0.09634931,0.280344,1.471473,-0.05277693,-0.4235822,1.265818,0.1722632,-0.412053,1.246231,0.07893106,-0.1648907,1.453953,0.07619911,-0.4701126,1.423372,-0.08709569,0.01525059,1.429901,0.005596924,-0.4591373,1.38805,-0.1184367,-0.2342372,1.425004,0.268818,-0.2330458,1.420526,NA,NA,Unknown,Lasso,
0.7631836,-0.6181641,0.3984375,0.6166992,0.3144531,0.6855469,4,0,-2,3,2,1,4,3,-1,-25,-1,-7,-3,-1,-3,-9,61,61,61,-74,-74,-74,3.547405,3.648,9.748668,5.632094,3.761653,0.9250811,-0.09119284,-0.4260424,1.226699,0.1922834,-0.4078294,1.219121,0.09595789,0.2807771,1.47394,-0.06814383,-0.390083,1.218,0.164106,-0.3697693,1.196778,0.0788209,-0.1648072,1.454059,0.07603425,-0.4700119,1.423061,-0.08710621,0.01519863,1.430982,0.005405123,-0.4590361,1.387878,-0.1180115,-0.2298964,1.427251,0.2686313,-0.2287861,1.422484,NA,NA,Unknown,Unknown,
0.5986328,-0.5751953,0.5366211,0.5092773,0.3330078,0.7548828,1,0,7,0,5,7,20,7,-18,11,6,3,0,0,0,2,74.75,74.75,74.75,-87.75,-87.75,-87.75,3.630537,3.837686,9.799465,5.55975,3.971323,0.837587,-0.09818552,-0.3813296,1.185833,0.2054077,-0.3530774,1.173918,0.09551985,0.2812021,1.476762,-0.08506254,-0.3368953,1.160588,0.1902765,-0.3076851,1.155278,0.07874674,-0.1647083,1.454385,0.07600722,-0.4699129,1.423058,-0.08708724,0.01511678,1.432411,0.005379102,-0.4589801,1.387905,-0.1181739,-0.2228453,1.428407,0.2674302,-0.2189839,1.423917,NA,NA,Lasso,Unknown,
0.5776367,-0.5981445,0.5571289,0.5117188,0.3598633,0.8041992,11,3,21,2,1,-1,10,29,10,-15,7,1,-4,-3,12,-2,89.4375,89.4375,89.4375,-88.375,-88.375,-88.375,3.724893,4.006938,9.865198,5.455575,4.212494,0.6620119,-0.1164465,-0.342597,1.17363,0.2300017,-0.309498,1.177388,0.09521105,0.2814057,1.478956,-0.1365058,-0.2954175,1.135896,0.2381536,-0.2552922,1.122417,0.07866763,-0.1644454,1.455734,0.0762215,-0.4695618,1.423706,-0.08675902,0.01536035,1.433772,0.005547636,-0.4587133,1.388509,-0.1191648,-0.2115422,1.427463,0.2653226,-0.2105148,1.423536,NA,NA,Unknown,Unknown,
0.6030273,-0.6069336,0.6035156,0.3710938,0.3823242,0.8833008,-2,-4,21,-3,-1,-3,-4,-9,0,15,-4,-2,5,12,-4,-8,114.625,114.625,114.625,-84.9375,-84.9375,-84.9375,3.850745,4.147949,9.956851,5.390907,4.361337,0.5147673,-0.1491196,-0.305723,1.159702,0.2658954,-0.2713296,1.170673,0.09520418,0.2815567,1.481205,-0.184569,-0.2685905,1.123232,0.2894084,-0.2277147,1.147476,0.07878396,-0.1641687,1.457525,0.07659401,-0.4692401,1.424685,-0.08647129,0.01564633,1.434782,0.005842112,-0.4585156,1.389482,-0.1186964,-0.2049889,1.422681,0.2641561,-0.2059925,1.42084,NA,NA,Open,Open,
0.4736328,-0.4838867,0.7011719,0.2016602,-0.06445313,1.021484,-3,3,10,-8,6,3,-13,-8,0,-12,-3,1,-8,-20,0,-5,101.0625,101.0625,101.0625,-30.9375,-30.9375,-30.9375,4.039991,4.303148,0.07327963,5.322058,4.466096,0.410368,-0.1760815,-0.2753504,1.160514,0.3004884,-0.2461095,1.161052,0.09492978,0.2817711,1.483137,-0.2131491,-0.2554972,1.141091,0.3343827,-0.2171043,1.13903,0.07884077,-0.1640175,1.458741,0.07688488,-0.4690212,1.425351,-0.08668619,0.01598258,1.435946,0.00603173,-0.4583751,1.389949,-0.1124851,-0.1978132,1.42713,0.264404,-0.205647,1.420974,NA,NA,Unknown,Unknown,
0.3598633,-0.3266602,0.8930664,0.2236328,-0.2109375,0.9892578,-16,9,-5,-1,4,-1,18,11,9,-12,-5,-8,-14,14,10,-3,12.625,12.625,12.625,-34.375,-34.375,-34.375,4.152628,4.42296,0.09882137,5.233784,4.552843,0.3733227,-0.1882773,-0.2572365,1.14731,0.3171809,-0.2335959,1.146902,0.09477898,0.2818469,1.485179,-0.2429541,-0.2502044,1.128333,0.352895,-0.2059774,1.142167,0.07891179,-0.1638446,1.460059,0.07709033,-0.4687496,1.426035,-0.08601562,0.0173229,1.437006,0.006163275,-0.4581006,1.390284,-0.1094514,-0.1968348,1.426644,0.2633806,-0.2049041,1.423333,NA,NA,Open,Unknown,
0.4013672,-0.2592773,0.8500977,0.347168,-0.1220703,0.9726563,0,5,21,4,3,1,-2,13,-4,-11,2,-3,1,-12,3,-4,-19.8125,-19.8125,-19.8125,-35.5,-35.5,-35.5,4.195304,4.480196,0.01507361,5.13484,4.583045,0.4400654,-0.1730289,-0.2430226,1.134039,0.3089894,-0.2271426,1.130687,0.09462458,0.2819017,1.487063,-0.2324108,-0.243333,1.128766,0.3469407,-0.2046946,1.1304,0.07879046,-0.1636837,1.461511,0.07726803,-0.4686026,1.426782,-0.08579171,0.0181936,1.437774,0.006309111,-0.4579238,1.390791,-0.1061917,-0.1963815,1.424682,0.2609296,-0.2036037,1.412035,NA,NA,Open,Unknown,
0.4262695,-0.3261719,0.7709961,0.3344727,0.07666016,0.9018555,-16,-7,1,1,-8,-3,12,-30,6,22,0,0,10,11,8,6,-41.5625,-41.5625,-41.5625,13.3125,13.3125,13.3125,4.197248,4.493299,9.866966,5.072138,4.590408,0.5863855,-0.137715,-0.2374997,1.126929,0.2750131,-0.2230899,1.120513,0.09464524,0.2819929,1.488261,-0.178928,-0.2263854,1.108976,0.3252486,-0.2080574,1.10375,0.07868563,-0.163521,1.462255,0.07732275,-0.4684913,1.427282,-0.08583884,0.01829641,1.437894,0.006355575,-0.4578044,1.391309,-0.1074784,-0.1961624,1.415619,0.2578488,-0.2023477,1.39322,NA,NA,Open,Unknown,
0.4404297,-0.449707,0.6894531,0.4189453,0.1621094,0.8793945,3,21,0,12,0,-11,-22,15,-7,-23,-7,-6,-5,5,-6,-8,-41.4375,-41.4375,-41.4375,14.75,14.75,14.75,4.183365,4.474894,9.756187,5.049047,4.58131,0.77051,-0.0989471,-0.2456991,1.127723,0.2329393,-0.2265232,1.114983,0.09467467,0.2818892,1.488814,-0.1374251,-0.2314974,1.110811,0.2723531,-0.2148856,1.092714,0.07859917,-0.1634255,1.462854,0.07731426,-0.4682778,1.427681,-0.08587229,0.01836631,1.437953,0.006395578,-0.4575658,1.391632,-0.115507,-0.1933636,1.393161,0.2552177,-0.1946336,1.332309,NA,NA,Open,Open,
0.5351563,-0.7226563,0.5634766,0.5737305,0.4638672,0.8579102,3,-1,22,-12,7,1,-13,2,5,26,-1,-8,1,-5,-5,11,-2.9375,-2.9375,-2.9375,-13,-13,-13,4.124432,4.353003,9.601047,5.090619,4.498845,0.8569513,-0.08667932,-0.261653,1.136381,0.2162186,-0.2414842,1.077201,0.09489871,0.2818312,1.489312,-0.1255718,-0.2521313,1.107553,0.2474942,-0.2300115,1.0665,0.07873902,-0.1633968,1.463519,0.0773235,-0.4681662,1.427981,-0.08589906,0.01843808,1.438078,0.006474247,-0.4574131,1.391947,-0.1111781,-0.1931613,1.388355,0.2424159,-0.1960429,1.358536,NA,NA,Unknown,Unknown,
0.4887695,-0.7714844,0.6801758,0.4326172,0.3388672,0.9707031,12,-17,60,19,-1,-3,8,12,-1,-30,-8,0,-14,-8,-13,-2,33.25,33.25,33.25,-27.125,-27.125,-27.125,4.095593,4.288226,9.681782,5.115337,4.447824,0.7643942,-0.107299,-0.2744127,1.148999,0.220826,-0.2452672,1.128377,0.09505429,0.2816991,1.48931,-0.1483249,-0.2607771,1.126172,0.2586848,-0.2305333,1.100595,0.07871839,-0.1634036,1.463746,0.07732327,-0.4681312,1.428044,-0.08588722,0.01845184,1.438114,0.006502677,-0.4573383,1.392077,-0.1102604,-0.1933488,1.388971,0.245445,-0.1985777,1.353788,NA,NA,Open,Open,
0.4291992,-0.5786133,0.8120117,0.2788086,-0.001464844,1.050293,27,13,74,8,7,1,-39,-14,-1,14,0,4,11,15,-4,10,44.25,44.25,44.25,-17.875,-17.875,-17.875,4.088867,4.264922,9.791505,5.136249,4.407362,0.5570264,-0.1457378,-0.2805261,1.161039,0.2550335,-0.2553227,1.141946,0.0953178,0.2814574,1.488726,-0.1913056,-0.2708163,1.146,0.2924751,-0.2406787,1.1255,0.07871258,-0.1634153,1.463809,0.07726549,-0.4680487,1.4282,-0.08586,0.01845325,1.438147,0.006423437,-0.457215,1.392426,-0.1133078,-0.1941826,1.398346,0.2514366,-0.2030961,1.386715,NA,NA,Open,Open,
0.4067383,-0.3779297,0.9204102,0.2797852,-0.08789063,1.049316,-9,15,7,5,0,1,8,-1,-2,-3,-4,-7,3,-20,-7,-5,37.8125,37.8125,37.8125,-0.1875,-0.1875,-0.1875,4.09499,4.272452,0.07312097,5.154345,4.394797,0.4318752,-0.1835274,-0.2798153,1.164671,0.2915423,-0.2608406,1.148386,0.0954746,0.2810303,1.487116,-0.2293527,-0.2632779,1.152135,0.3291664,-0.2460086,1.134205,0.07864914,-0.1634407,1.463766,0.07723957,-0.4680282,1.428222,-0.08567906,0.0185734,1.438256,0.006380183,-0.4571586,1.392449,-0.1103212,-0.1952081,1.432896,0.2516406,-0.2050403,1.402325,NA,NA,Open,Open,
0.375,-0.3466797,0.925293,0.2324219,-0.1293945,1.044434,-1,-1,1,3,-1,-1,12,-27,-1,-5,2,3,14,0,3,11,21.5625,21.5625,21.5625,-5.6875,-5.6875,-5.6875,4.121574,4.298213,0.15936,5.145822,4.407201,0.374538,-0.200447,-0.2754412,1.165917,0.3130283,-0.2602714,1.149684,0.09537134,0.2806915,1.485585,-0.2489136,-0.2598434,1.156059,0.3520018,-0.2419857,1.138031,0.07854433,-0.163507,1.463609,0.07717828,-0.4680192,1.428225,-0.085446,0.01893128,1.438464,0.006304733,-0.4571303,1.392468,-0.1074194,-0.1947549,1.438518,0.2531017,-0.2056344,1.414596,NA,NA,Open,Unknown,
0.3945313,-0.2729492,0.9277344,0.2197266,-0.1494141,1.012207,1,16,-3,1,0,3,-20,-9,1,5,-4,-3,0,-17,-11,-5,-11.9375,-11.9375,-11.9375,20.9375,20.9375,20.9375,4.152887,4.318901,0.1373027,5.123408,4.437763,0.4220453,-0.1909415,-0.271444,1.160406,0.308613,-0.2557679,1.146385,0.09516942,0.2805951,1.484657,-0.2432444,-0.2609951,1.15824,0.3461443,-0.2400884,1.135352,0.07848485,-0.1634959,1.463598,0.07708023,-0.4679368,1.428305,-0.08539755,0.01915187,1.438668,0.006163559,-0.4570061,1.392582,-0.1146758,-0.1943173,1.42701,0.2533874,-0.2055176,1.416982,NA,NA,Open,Unknown,
0.4067383,-0.3056641,0.9238281,0.3510742,-0.03369141,0.9423828,-1,3,-6,4,-4,-15,-6,-21,-1,-6,-1,0,-1,-11,-28,1,-31.6875,-31.6875,-31.6875,37.5,37.5,37.5,4.189753,4.334098,9.993791,5.104331,4.469153,0.6242604,-0.1544806,-0.2676515,1.150631,0.2795608,-0.2507865,1.141388,0.09508049,0.2804274,1.484046,-0.196916,-0.2643838,1.114883,0.3348193,-0.2471486,1.1138,0.07837295,-0.1635234,1.463592,0.0769555,-0.4679187,1.428382,-0.08541732,0.01917094,1.43865,0.00602175,-0.4569951,1.392701,-0.1165875,-0.1940091,1.414061,0.2570657,-0.2050083,1.41287,NA,NA,Open,Open,
0.4189453,-0.3950195,0.8173828,0.4462891,0.2241211,0.9018555,0,-14,-1,-11,-6,-10,9,38,-2,22,4,-2,6,-3,-2,5,-40.125,-40.125,-40.125,32.9375,32.9375,32.9375,4.207673,4.345505,9.863029,5.117888,4.47576,0.7854525,-0.1099207,-0.2653613,1.144587,0.2391839,-0.2480972,1.137486,0.09504457,0.2802449,1.483926,-0.1517358,-0.2575088,1.107512,0.2830772,-0.2391741,1.110118,0.07828321,-0.1635595,1.463641,0.07687064,-0.4678954,1.428435,-0.08547303,0.01909043,1.438491,0.005934444,-0.4569679,1.392853,-0.1123061,-0.1937719,1.400012,0.2544204,-0.2009314,1.377486,NA,NA,Unknown,Open,
0.5341797,-0.6835938,0.5908203,0.5522461,0.4321289,0.8588867,-38,-10,-5,-4,-3,-5,-7,-20,2,1,2,-1,15,-12,-1,-1,-23.9375,-23.9375,-23.9375,6.0625,6.0625,6.0625,4.167081,4.343919,9.627982,5.144873,4.456571,0.8662553,-0.08999868,-0.2654268,1.144746,0.2083321,-0.2485352,1.135382,0.09501053,0.2800571,1.483784,-0.1293941,-0.2582608,1.109244,0.2467238,-0.2336157,1.102743,0.0782384,-0.1635844,1.463686,0.0767923,-0.4678676,1.428465,-0.08554161,0.01899632,1.438201,0.005920833,-0.456936,1.392885,-0.1093714,-0.1933489,1.392292,0.2542547,-0.2042217,1.355991,NA,NA,Unknown,Unknown,
0.5332031,-0.6264648,0.6206055,0.5004883,0.2788086,0.8842773,-15,-2,-12,4,3,7,12,1,-2,-4,2,-3,-45,-14,-15,-20,7.25,7.25,7.25,-12.4375,-12.4375,-12.4375,4.11237,4.303293,9.661857,5.178969,4.421375,0.8102329,-0.09606214,-0.2702421,1.147373,0.2133336,-0.2548997,1.092775,0.0951176,0.2799675,1.483687,-0.1336134,-0.2643497,1.119744,0.2571254,-0.236077,1.079619,0.07826587,-0.1636043,1.46374,0.07676997,-0.4678625,1.42852,-0.08549365,0.01905492,1.438091,0.005926945,-0.456876,1.39289,-0.1084707,-0.1932255,1.391021,0.258738,-0.2043437,1.356636,NA,NA,Unknown,Open,
0.4545898,-0.4995117,0.7680664,0.3925781,0.1591797,0.9418945,-4,-1,-4,1,-6,-6,6,11,-1,-8,-4,-1,-17,13,8,4,33.5,33.5,33.5,-24.6875,-24.6875,-24.6875,4.096597,4.279428,9.78476,5.204937,4.400917,0.6782504,-0.1247201,-0.2741298,1.155152,0.2354301,-0.2547342,1.140063,0.09533422,0.2796534,1.483378,-0.1639039,-0.2636754,1.134463,0.274064,-0.2364345,1.1184,0.07829875,-0.1636591,1.463761,0.07679486,-0.4678535,1.428622,-0.08546907,0.01893922,1.43791,0.005952953,-0.456847,1.39295,-0.1096852,-0.1934951,1.39299,0.2550527,-0.203321,1.366554,NA,NA,Open,Open,
0.3828125,-0.4443359,0.8554688,0.3071289,0.03808594,1.038574,-1,3,-4,-13,-6,-5,-6,-4,-4,-17,-7,-6,-30,-53,-1,-5,34.875,34.875,34.875,-21.5625,-21.5625,-21.5625,4.097157,4.279979,9.993824,5.218792,4.391491,0.5275173,-0.1596428,-0.2750591,1.160577,0.2718482,-0.2582403,1.151303,0.09552302,0.2794591,1.483233,-0.1984994,-0.2564812,1.1539,0.306742,-0.2401929,1.135696,0.07831426,-0.1637419,1.463887,0.07680317,-0.4678789,1.42887,-0.08544213,0.01891856,1.437995,0.005955979,-0.4568533,1.393122,-0.113829,-0.1940079,1.402422,0.2551829,-0.2055575,1.40206,NA,NA,Unknown,Open,
0.3510742,-0.3779297,0.9003906,0.2646484,-0.02978516,1.035645,-2,-5,-5,-5,0,-1,5,-4,-3,15,-5,-9,4,-7,-7,-7,25.8125,25.8125,25.8125,-8,-8,-8,4.103969,4.298546,0.1131922,5.228349,4.398069,0.3755118,-0.1908647,-0.2730923,1.163333,0.3042268,-0.2594179,1.153147,0.09580536,0.2791342,1.482767,-0.2361256,-0.2613405,1.146843,0.3409634,-0.2390618,1.14041,0.07834518,-0.1638312,1.463927,0.07686095,-0.4679199,1.429005,-0.08535816,0.01903048,1.438163,0.005978378,-0.4568706,1.393167,-0.1144229,-0.1944548,1.426964,0.2553469,-0.2060713,1.411575,NA,NA,Open,Open,
0.3374023,-0.3383789,0.9365234,0.2607422,-0.09375,1.034668,1,29,-2,-7,-6,1,-9,-10,-1,-16,-3,-1,-14,-1,13,2,12.875,12.875,12.875,-5.3125,-5.3125,-5.3125,4.128291,4.325274,0.1623127,5.203263,4.419316,0.3348788,-0.1989789,-0.2684235,1.161236,0.3174606,-0.257388,1.152892,0.09596615,0.2784311,1.482601,-0.2455334,-0.2530223,1.1552,0.3542936,-0.2332945,1.146042,0.0785387,-0.1641175,1.464095,0.07687643,-0.4679948,1.42921,-0.08506235,0.01935307,1.438662,0.005966496,-0.4568935,1.393301,-0.1111209,-0.1943407,1.43196,0.2562675,-0.2070951,1.420476,NA,NA,Open,Open,
0.4018555,-0.3173828,0.9482422,0.2749023,-0.1269531,1.000977,-1,0,11,-4,-10,-6,20,14,-4,-7,-5,-3,-4,-14,-2,1,-21.875,-21.875,-21.875,16.3125,16.3125,16.3125,4.154008,4.345472,0.1096707,5.152148,4.461812,0.4184473,-0.1821283,-0.2631525,1.154519,0.311727,-0.2523206,1.145892,0.09612847,0.2779227,1.482577,-0.2302793,-0.2571763,1.13445,0.3485748,-0.2303203,1.146245,0.07855698,-0.1643854,1.464356,0.07680494,-0.468083,1.429562,-0.08475712,0.01954817,1.439112,0.005892678,-0.4569469,1.393564,-0.1093085,-0.1942305,1.434148,0.2566697,-0.207427,1.419975,NA,NA,Open,Open,
0.4033203,-0.4321289,0.800293,0.3881836,0.008300781,0.9091797,3,3,-18,-6,-3,6,4,-6,1,1,1,1,-5,-3,3,7,-39,-39,-39,32.25,32.25,32.25,4.178778,4.368008,9.906557,5.139143,4.477018,0.5828316,-0.1472935,-0.2609886,1.145427,0.2842594,-0.2479834,1.137076,0.09632894,0.2777089,1.48273,-0.1898652,-0.2552643,1.112024,0.3406816,-0.2423098,1.115167,0.07845625,-0.164561,1.464802,0.07662053,-0.4682116,1.430154,-0.08470406,0.01948383,1.439398,0.005709473,-0.4570156,1.394089,-0.1115827,-0.1942436,1.413168,0.2594981,-0.2056886,1.412484,NA,NA,Open,Open,
0.4863281,-0.4863281,0.6689453,0.4848633,0.222168,0.8540039,4,-5,-3,0,4,12,6,20,-1,-15,-2,1,-5,-22,-6,-3,-43.0625,-43.0625,-43.0625,29.4375,29.4375,29.4375,4.17126,4.352133,9.746377,5.145761,4.473517,0.7468739,-0.1081425,-0.2643871,1.141018,0.243266,-0.2465834,1.132787,0.09658713,0.2772321,1.483071,-0.1487456,-0.2548885,1.103867,0.2880046,-0.2359633,1.098333,0.07849579,-0.1646814,1.46519,0.07653914,-0.4681845,1.43035,-0.08470696,0.01945237,1.439436,0.005662388,-0.4569723,1.394255,-0.1111715,-0.1933036,1.399467,0.2639089,-0.2042289,1.399062,NA,NA,Unknown,Open,
0.5566406,-0.65625,0.5981445,0.5361328,0.3500977,0.8808594,-6,-2,0,5,-7,-8,-9,-18,-2,16,2,0,17,-2,-7,0,-7.6875,-7.6875,-7.6875,0.8125,0.8125,0.8125,4.130293,4.300975,9.634692,5.155294,4.446658,0.8361867,-0.08926687,-0.2692376,1.14474,0.2154526,-0.2504928,1.133678,0.09724651,0.2765888,1.483861,-0.1300321,-0.2599494,1.10846,0.2573293,-0.2379202,1.097364,0.07862765,-0.1649248,1.465735,0.07667931,-0.4682213,1.430528,-0.08462179,0.01932624,1.439558,0.005873686,-0.456969,1.394479,-0.1081354,-0.1928765,1.392383,0.2546092,-0.213364,1.341516,NA,NA,Open,Unknown,
0.4916992,-0.5805664,0.6787109,0.3930664,0.1616211,0.8725586,6,-14,-6,-4,0,-1,14,10,0,26,2,-2,-1,-1,-1,3,-8.625,-8.625,-8.625,19,19,19,4.09321,4.267374,9.638021,5.183939,4.40324,0.8877465,-0.08846392,-0.2736894,1.148469,0.2021881,-0.2556693,1.136899,0.09780104,0.2763118,1.484509,-0.1272626,-0.2655028,1.1105,0.2425295,-0.2404063,1.097393,0.07893068,-0.1650831,1.466025,0.07679646,-0.4682265,1.430622,-0.08453684,0.01928033,1.43953,0.006072142,-0.4569489,1.394547,-0.1067528,-0.1928217,1.390698,0.2557395,-0.2123113,1.34348,NA,NA,Open,Unknown,
0.4467773,-0.4130859,0.7504883,0.3330078,0.1176758,0.9199219,-4,0,8,-5,-1,-4,-5,1,0,8,1,0,0,-23,-2,0,-9.3125,-9.3125,-9.3125,10.625,10.625,10.625,4.082684,4.242988,9.645072,5.206262,4.367703,0.8887675,-0.09164141,-0.2825906,1.154047,0.195532,-0.2709106,1.093113,0.09825685,0.2760982,1.484771,-0.1333939,-0.2679508,1.12812,0.2073695,-0.2637573,1.04758,0.07913755,-0.1651471,1.466166,0.07698516,-0.4681733,1.430628,-0.08444244,0.01927152,1.439621,0.006332818,-0.4568756,1.394531,-0.1067133,-0.1928489,1.390952,0.2460117,-0.2043126,1.379897,NA,NA,Open,Unknown,
0.4233398,-0.4238281,0.7250977,0.4013672,0.1337891,0.8696289,-1,-5,-3,-3,-1,1,6,2,-1,-1,-2,-2,-2,4,-1,-1,-25.625,-25.625,-25.625,30.8125,30.8125,30.8125,4.05572,4.197516,9.652665,5.250082,4.306759,0.8735818,-0.09080537,-0.2990216,1.160589,0.2048136,-0.2776644,1.151021,0.09889378,0.2759367,1.485006,-0.1347804,-0.2763116,1.135682,0.2471481,-0.2501979,1.106965,0.07927795,-0.1652541,1.466239,0.0771198,-0.4682182,1.430642,-0.08422183,0.01913018,1.439611,0.006518368,-0.4569365,1.394577,-0.1082554,-0.1931456,1.393388,0.2598381,-0.2109139,1.369259,NA,NA,Unknown,Unknown,
0.5336914,-0.5351563,0.6176758,0.4521484,0.1821289,0.8696289,9,13,0,4,0,2,1,30,-10,-1,-3,-2,-7,0,0,1,-78.6875,-78.6875,-78.6875,80.4375,80.4375,80.4375,3.913551,4.069417,9.663881,5.399368,4.180666,0.8377299,-0.08243211,-0.3248585,1.170602,0.2002249,-0.3005973,1.161705,0.09942552,0.2757896,1.484865,-0.1202726,-0.2889671,1.148616,0.2362228,-0.2628653,1.113933,0.07937638,-0.1653687,1.46613,0.07721692,-0.4683184,1.430508,-0.08404393,0.01850839,1.439768,0.006651448,-0.4570598,1.394426,-0.1097572,-0.1949849,1.400366,0.2877122,-0.2032456,1.40298,NA,NA,Unknown,Unknown,
0.5693359,-0.5395508,0.6196289,0.5268555,0.2290039,0.8164063,-5,-13,1,4,1,-1,-2,-60,117,1,2,-1,-3,-2,-4,1,-62.75,-62.75,-62.75,59.375,59.375,59.375,3.786915,3.968185,9.692371,5.526814,4.062673,0.816906,-0.07677395,-0.3631345,1.181194,0.1963263,-0.335674,1.182055,0.1000882,0.27535,1.484333,-0.09787475,-0.3207723,1.148015,0.2202508,-0.2915239,1.147445,0.07974143,-0.1656918,1.465824,0.07755192,-0.4686021,1.430164,-0.08393982,0.01777213,1.43992,0.006980979,-0.4574356,1.394111,-0.1137174,-0.1992243,1.407553,0.294651,-0.2026531,1.413024,NA,NA,Unknown,Unknown,
0.6894531,-0.6191406,0.5947266,0.621582,0.2514648,0.7548828,10,22,2,0,-1,-1,-1,10,84,7,-1,-1,-10,0,-1,1,-52.25,-52.25,-52.25,60,60,60,3.673136,3.860657,9.711815,5.621658,3.937423,0.8180737,-0.07905374,-0.3874552,1.197803,0.2015381,-0.3609261,1.190675,0.1009704,0.2749829,1.483515,-0.07536949,-0.3515045,1.159049,0.1962255,-0.325116,1.159222,0.07992072,-0.1660005,1.465313,0.07769543,-0.4689743,1.429652,-0.0839393,0.01704265,1.439942,0.007039099,-0.4578584,1.393534,-0.1158288,-0.2048549,1.413976,0.2766374,-0.2070568,1.415679,NA,NA,Unknown,Unknown,
0.6738281,-0.5454102,0.5063477,0.6191406,0.2275391,0.7060547,0,12,-1,3,-1,-4,-3,13,-41,-2,0,-1,-2,1,0,3,-49.875,-49.875,-49.875,47.5,47.5,47.5,3.587341,3.758463,9.728451,5.686049,3.804093,0.8342832,-0.08278741,-0.4074484,1.22074,0.1995722,-0.3941276,1.210591,0.1018383,0.2742952,1.482064,-0.06575543,-0.3823451,1.182488,0.1754174,-0.3721754,1.182113,0.08000946,-0.1663446,1.464642,0.07776405,-0.4692494,1.429112,-0.08381805,0.0165191,1.439912,0.007019905,-0.4580688,1.39295,-0.1169394,-0.2094477,1.418195,0.2735828,-0.20798,1.418683,NA,NA,Lasso,Unknown,
0.6713867,-0.534668,0.4116211,0.7768555,0.3364258,0.546875,-3,-15,-2,-1,0,-1,-2,-1,-1,-4,-4,-1,1,-1,-1,-2,-31.5,-31.5,-31.5,28.5,28.5,28.5,3.493019,3.620571,9.763099,5.792315,3.539782,0.8482407,-0.08687659,-0.4264492,1.246442,0.2046582,-0.4290754,1.246893,0.1024044,0.2738573,1.480994,-0.06033842,-0.4142144,1.212039,0.2079673,-0.4086332,1.215138,0.0800634,-0.1666043,1.464204,0.07763352,-0.4695215,1.428747,-0.08381891,0.01584479,1.439818,0.006827219,-0.4582578,1.392724,-0.1171859,-0.214809,1.4218,0.272118,-0.2148186,1.421649,NA,NA,Unknown,Lasso,
0.8398438,-0.5366211,0.3305664,0.8349609,0.2807617,0.4633789,-4,4,-1,-2,0,-1,-1,-2,-3,3,-2,0,-2,-1,-2,-1,-42.25,-42.25,-42.25,15.9375,15.9375,15.9375,3.390332,3.484181,9.80576,5.833391,3.362817,0.8350731,-0.09195705,-0.4548621,1.273811,0.2153619,-0.4546768,1.272791,0.1029617,0.2731865,1.479702,-0.05981672,-0.4432237,1.271209,0.1748094,-0.4494108,1.259611,0.07994115,-0.1670467,1.463548,0.07729268,-0.4699339,1.428199,-0.08377651,0.01529291,1.439519,0.00639092,-0.4585968,1.392282,-0.117437,-0.2202877,1.422399,0.2703283,-0.2195219,1.422612,NA,NA,Lasso,Unknown,
0.8798828,-0.4223633,0.2275391,0.9765625,0.2578125,0.3286133,-1,-2,1,-1,-2,-2,1,0,-8,0,-3,0,0,-2,-1,-1,-45,-45,-45,-5.875,-5.875,-5.875,3.291417,3.340652,9.843462,5.912611,3.189097,0.7526223,-0.1013676,-0.4754819,1.302996,0.2234284,-0.4779271,1.2991,0.1036998,0.2726269,1.478354,-0.06524122,-0.4671032,1.285148,0.1895988,-0.4685733,1.278636,0.07983799,-0.1672821,1.463292,0.07679566,-0.4703579,1.428038,-0.08368766,0.01489087,1.439331,0.005900629,-0.4589849,1.392184,-0.1172682,-0.2272743,1.42163,0.267996,-0.2283977,1.421953,NA,NA,Unknown,Lasso,
0.9575195,-0.4321289,0.1069336,1.029297,0.2475586,0.1943359,-2,3,-3,-3,-1,-2,-1,1,7,11,0,-2,-2,-1,0,-1,-14.5625,-14.5625,-14.5625,-12.9375,-12.9375,-12.9375,3.083376,3.168269,9.996614,6.065421,3.020727,0.5580041,-0.1119313,-0.483395,1.3276,0.2347872,-0.4858005,1.322519,0.104589,0.2717979,1.476601,-0.07692399,-0.4692566,1.322031,0.1998147,-0.4838355,1.303273,0.07960502,-0.1677641,1.462895,0.07633875,-0.4710141,1.428,-0.08348485,0.01379053,1.438457,0.005534986,-0.459607,1.392161,-0.1179864,-0.235679,1.420076,0.2655155,-0.2395752,1.420576,NA,NA,NotTracked,Unknown,
0.9858398,-0.3154297,0.03417969,0.9750977,0.2495117,0.2080078,-2,-7,-3,-1,-2,-2,-1,-1,-5,-3,0,-1,1,-1,-1,-2,-36.1875,-36.1875,-36.1875,8,8,8,2.860773,3.053144,0.1908541,6.212281,2.977754,0.4192363,-0.121914,-0.4889133,1.345519,0.2446155,-0.495729,1.332563,0.1058528,0.2709594,1.475182,-0.08681913,-0.4783614,1.341514,0.2068871,-0.4917556,1.314607,0.07951958,-0.1683378,1.462563,0.07632674,-0.4718336,1.428128,-0.0833535,0.0130772,1.437783,0.005604241,-0.4602783,1.392214,-0.1193528,-0.238366,1.420472,0.264798,-0.2456936,1.420548,NA,NA,NotTracked,NotTracked,
0.9462891,-0.4086914,0.08789063,0.9560547,0.1733398,0.2773438,-4,8,1,0,-1,-3,-1,-1,3,-2,-1,0,-3,-1,0,-1,-41.25,-41.25,-41.25,6.4375,6.4375,6.4375,2.722846,3.026105,0.2542873,6.271063,2.972763,0.3654188,-0.1299087,-0.4925126,1.354714,0.2502903,-0.500084,1.33614,0.1076587,0.2706451,1.474162,-0.09116903,-0.4839525,1.356083,0.2107316,-0.5021385,1.316786,0.0794934,-0.1688191,1.462031,0.07650898,-0.4725697,1.428159,-0.08314344,0.01222546,1.436708,0.005812438,-0.4610195,1.392121,-0.1225496,-0.2400778,1.421724,0.2658089,-0.2489041,1.421145,NA,NA,NotTracked,NotTracked,
0.9287109,-0.3720703,0.1269531,0.918457,0.206543,0.2680664,0,2,-2,-2,0,-1,-1,0,0,0,-1,-2,0,-1,0,-1,-18.6875,-18.6875,-18.6875,0.625,0.625,0.625,2.687589,3.02515,0.2522405,6.300774,2.986456,0.3465586,-0.1345269,-0.4927669,1.3571,0.2546454,-0.5003111,1.336458,0.1093664,0.2709403,1.473645,-0.09558449,-0.48274,1.361343,0.2133638,-0.5095224,1.318826,0.079818,-0.1691562,1.461367,0.07732925,-0.4733659,1.428095,-0.08308057,0.01196029,1.436342,0.006650782,-0.4619148,1.391922,-0.127819,-0.2394844,1.423584,0.2671722,-0.2512405,1.422133,NA,NA,NotTracked,NotTracked,
