ALX,ALY,ALZ,ARX,ARY,ARZ,EMG0L,EMG1L,EMG2L,EMG3L,EMG4L,EMG5L,EMG6L,EMG7L,EMG0R,EMG1R,EMG2R,EMG3R,EMG4R,EMG5R,EMG6R,EMG7R,GLX,GLY,GLZ,GRX,GRY,GRZ,ORL,OPL,OYL,ORR,OPR,OYR,LHNX,LHNY,LHNZ,RHNX,RHNY,RHNZ,HX,HY,HZ,LTX,LTY,LTZ,RTX,RTY,RTZ,SpineMidX,SpineMidY,SpineMidZ,SpineBaseX,SpineBaseY,SpineBaseZ,ShoulderLeftX,ShoulderLeftY,ShoulderLeftZ,ShoulderRightX,ShoulderRightY,ShoulderRightZ,ElbowLeftX,ElbowLeftY,ElbowLeftZ,ElbowRightX,ElbowRightY,ElbowRightZ,Myo_Pose_left,Myo_Pose_Right,Kinect_pose_left,Kinect_pose_right
1.019531,-0.3837891,0.1259766,1.01709,0.1835938,0.3920898,-2,-1,-1,1,1,-4,-10,-4,-12,9,-8,-9,-5,-2,-3,-3,30.3125,30.3125,30.3125,-68.25,-68.25,-68.25,3.128597,3.127063,9.787776,5.723401,3.216733,0.6515045,-0.09563008,-0.4675962,1.317039,0.238596,-0.4727107,1.289505,0.1100223,0.2788413,1.462928,-0.09140587,-0.4677403,1.277274,0.2519232,-0.4615821,1.26018,0.08642656,-0.1655968,1.45293,0.08010913,-0.4718412,1.423116,-0.0758377,0.01538293,1.423389,0.00942949,-0.4602873,1.387426,-0.1138731,-0.2409981,1.414081,0.2733516,-0.242777,1.415885,NA,NA,NotTracked,NotTracked,
0.9389648,-0.4755859,0.2875977,0.90625,0.2612305,0.5019531,-1,-1,-1,4,0,-7,-16,-4,-17,-1,-2,-6,-4,0,0,-1,58.5625,58.5625,58.5625,-70.9375,-70.9375,-70.9375,3.29294,3.287937,9.702662,5.627804,3.383819,0.6345595,-0.08557212,-0.445674,1.293487,0.238052,-0.4595894,1.252079,0.1099362,0.2795829,1.463366,-0.08193561,-0.4416796,1.251171,0.2248451,-0.429508,1.228673,0.08673993,-0.165188,1.452678,0.0809886,-0.471333,1.422904,-0.07586319,0.0156195,1.423639,0.01013692,-0.4599271,1.387136,-0.1153525,-0.2355859,1.418991,0.2739363,-0.2397703,1.420592,NA,NA,Unknown,Lasso,
0.8286133,-0.5405273,0.4199219,0.7412109,0.2294922,0.6948242,-3,-1,-1,3,8,12,-5,-10,47,-35,1,-1,3,10,-1,2,75.25,75.25,75.25,-86.6875,-86.6875,-86.6875,3.432314,3.465146,9.67503,5.502064,3.643626,0.5709266,-0.07819398,-0.4324917,1.243816,0.2476561,-0.4434841,1.236044,0.1098599,0.2802474,1.463957,-0.07339232,-0.3983114,1.227708,0.2500041,-0.421757,1.185024,0.08706421,-0.1648359,1.45249,0.08242665,-0.4706881,1.422846,-0.07590184,0.01601998,1.424099,0.01132298,-0.4596562,1.387051,-0.1173153,-0.2279758,1.425166,0.2742599,-0.2347862,1.426319,NA,NA,Unknown,Lasso,
0.7280273,-0.5966797,0.4755859,0.5615234,0.2080078,0.7895508,2,2,-1,-3,3,5,10,8,-3,-1,1,-6,-11,-2,-3,-5,112.9375,112.9375,112.9375,-73.1875,-73.1875,-73.1875,3.577501,3.668334,9.704164,5.4173,3.850993,0.5020627,-0.08426107,-0.3910061,1.206139,0.2564557,-0.3932496,1.211042,0.1097263,0.2806978,1.464266,-0.09746889,-0.3658834,1.183836,0.2775165,-0.3648842,1.168305,0.08721951,-0.1644864,1.452498,0.08314323,-0.4700585,1.423111,-0.07592783,0.01684502,1.42529,0.01194752,-0.4592631,1.387301,-0.118284,-0.2223319,1.429002,0.2741884,-0.228649,1.430933,NA,NA,Lasso,Unknown,
0.6176758,-0.6083984,0.4990234,0.4794922,0.2011719,0.8095703,7,1,-1,-1,4,-3,-28,12,-1,13,6,-3,-6,-4,-3,-2,107.1875,107.1875,107.1875,-69.625,-69.625,-69.625,3.732184,3.882203,9.747192,5.336897,4.04943,0.4442273,-0.09957965,-0.3460759,1.186382,0.277798,-0.3402805,1.186933,0.1093372,0.2810181,1.464842,-0.1221435,-0.3248697,1.161825,0.309749,-0.2930318,1.148778,0.08724764,-0.1642403,1.452645,0.08341295,-0.4695823,1.423471,-0.07594779,0.01739842,1.426573,0.01225999,-0.4587901,1.387806,-0.1178353,-0.2152568,1.430994,0.2732491,-0.2232204,1.433281,NA,NA,Unknown,Open,
0.5224609,-0.5976563,0.6499023,0.3500977,0.08251953,0.9326172,5,0,13,-6,-18,-8,7,-4,-1,19,6,-4,3,15,16,0,103.9375,103.9375,103.9375,-8.5,-8.5,-8.5,3.93094,4.141065,9.800806,5.278761,4.267023,0.3917508,-0.1197392,-0.3034626,1.176926,0.2953619,-0.291444,1.193182,0.1088358,0.2813639,1.465596,-0.1600057,-0.2696451,1.14416,0.3320887,-0.2586534,1.152951,0.08719632,-0.1639787,1.453016,0.08341402,-0.4692792,1.42392,-0.07872165,0.01666879,1.429141,0.0122709,-0.4585402,1.388212,-0.1177648,-0.2043332,1.42854,0.2740068,-0.2136527,1.431591,NA,NA,Open,Unknown,
0.3574219,-0.4750977,0.7236328,0.3100586,0.07128906,0.9755859,5,-2,-14,0,0,-2,-1,0,0,11,-2,7,26,-35,0,1,65.6875,65.6875,65.6875,-3.625,-3.625,-3.625,4.047987,4.310886,9.842703,5.263212,4.386784,0.3982903,-0.1300228,-0.2666247,1.175015,0.3009998,-0.2647743,1.179018,0.1081035,0.2816398,1.466704,-0.1789216,-0.2464963,1.138943,0.3347123,-0.2356833,1.162981,0.08679304,-0.1634142,1.454024,0.083009,-0.4685441,1.424847,-0.07813212,0.01749283,1.429514,0.01186539,-0.4577198,1.389127,-0.1157259,-0.1964764,1.423194,0.2742702,-0.2059159,1.426598,NA,NA,Open,Unknown,
0.3320313,-0.4428711,0.8271484,0.2900391,-0.02294922,0.9482422,0,1,-9,-2,3,8,10,7,0,11,6,2,-6,6,-6,-7,-0.625,-0.625,-0.625,20.25,20.25,20.25,4.088861,4.445082,9.838785,5.23267,4.479302,0.4813467,-0.1247545,-0.2410741,1.161618,0.2955357,-0.2429262,1.15996,0.1073811,0.2817136,1.468458,-0.1747012,-0.2203072,1.139818,0.3480867,-0.2253063,1.148571,0.08632647,-0.1630799,1.455352,0.08258829,-0.4680862,1.425884,-0.07735907,0.01878478,1.430633,0.01143565,-0.4571012,1.390362,-0.1152393,-0.1933919,1.416334,0.2728991,-0.20452,1.423856,NA,NA,Unknown,Unknown,
0.3320313,-0.3085938,0.8164063,0.331543,-0.0004882813,0.921875,-14,-5,-6,6,0,1,12,23,0,-25,-7,-3,9,6,-3,1,-11.5,-11.5,-11.5,16.1875,16.1875,16.1875,4.116295,4.526388,9.766487,5.211015,4.543524,0.6122205,-0.1074023,-0.2290575,1.148993,0.2681855,-0.2288523,1.142547,0.1066228,0.2815291,1.470419,-0.1633453,-0.215477,1.1245,0.3210403,-0.211126,1.12,0.086294,-0.163067,1.456532,0.08226666,-0.4679153,1.426598,-0.07722959,0.01918362,1.431052,0.011184,-0.4568877,1.390863,-0.1217147,-0.191703,1.415024,0.2793827,-0.202593,1.409602,NA,NA,Open,Unknown,
0.3837891,-0.3774414,0.7250977,0.4501953,0.105957,0.8325195,14,0,-9,-4,-3,-2,-4,-4,-6,-13,-10,3,1,4,-1,12,-17.375,-17.375,-17.375,16.4375,16.4375,16.4375,4.130681,4.527843,9.618333,5.192847,4.557659,0.8082259,-0.08500867,-0.2310485,1.14801,0.2092349,-0.2274926,1.083274,0.1059241,0.2811211,1.472579,-0.1418488,-0.221223,1.123682,0.2399853,-0.2234097,1.053438,0.08590455,-0.1631133,1.457938,0.08209916,-0.4678392,1.427298,-0.0771692,0.01914919,1.431284,0.01109142,-0.4568056,1.391394,-0.1130464,-0.1931186,1.402251,0.2742854,-0.1989425,1.35262,NA,NA,Unknown,Unknown,
0.4829102,-0.5048828,0.6733398,0.4951172,0.309082,0.8027344,-9,-6,-62,-8,-2,-4,1,2,8,-2,5,-5,0,-8,3,-1,-3.9375,-3.9375,-3.9375,-4.625,-4.625,-4.625,4.135754,4.473026,9.530563,5.1856,4.523206,0.9052315,-0.06415018,-0.2445181,1.154002,0.1861712,-0.2291684,1.092021,0.105688,0.2808486,1.473965,-0.1155531,-0.2329082,1.118375,0.2022405,-0.2244772,1.049286,0.08578032,-0.1630533,1.459025,0.08195692,-0.4677536,1.427664,-0.07708158,0.01909852,1.431487,0.01102398,-0.4567041,1.391686,-0.1087333,-0.193549,1.397772,0.2709903,-0.1956901,1.359017,NA,NA,Open,Unknown,
0.5458984,-0.6342773,0.71875,0.4306641,0.3271484,0.9272461,-6,3,24,2,7,12,10,17,-2,9,5,1,-8,3,-4,-1,6.875,6.875,6.875,-27.875,-27.875,-27.875,4.132425,4.389156,9.48998,5.17528,4.447402,0.8802955,-0.06455296,-0.2609436,1.16481,0.2048289,-0.2323192,1.143409,0.1055687,0.2806532,1.474777,-0.1141942,-0.2516278,1.122976,0.2446059,-0.2138982,1.105008,0.08571836,-0.1630273,1.459592,0.08193446,-0.4676999,1.427785,-0.07906451,0.0177304,1.432856,0.01104395,-0.4566334,1.391826,-0.1059158,-0.1952498,1.395416,0.2674372,-0.1979653,1.364026,NA,NA,Unknown,Unknown,
0.4394531,-0.6152344,0.7719727,0.3657227,0.1381836,1.012695,3,-7,-42,23,-2,1,-5,-10,-3,-41,-10,-9,-13,0,-6,-1,33.3125,33.3125,33.3125,-29.8125,-29.8125,-29.8125,4.139778,4.303116,9.569401,5.166902,4.400404,0.7896927,-0.08334471,-0.2737403,1.177634,0.2223487,-0.2456212,1.156377,0.1054272,0.2805302,1.475289,-0.1299841,-0.2653053,1.143068,0.2640727,-0.2293697,1.118444,0.08569296,-0.1630415,1.459897,0.08191492,-0.4676549,1.427888,-0.07859376,0.01787579,1.433698,0.01105481,-0.4565627,1.391928,-0.1048647,-0.1954447,1.399262,0.2692257,-0.202255,1.365797,NA,NA,Unknown,Unknown,
0.3662109,-0.5390625,0.8686523,0.300293,0.1123047,1.04541,2,-2,3,2,-1,5,8,3,-13,-71,-9,1,-3,15,-4,-11,25.5,25.5,25.5,-27.5625,-27.5625,-27.5625,4.130015,4.278537,9.697528,5.171019,4.376122,0.6606309,-0.1116666,-0.2772735,1.187115,0.2497614,-0.2554163,1.168298,0.105325,0.2802229,1.475376,-0.1568676,-0.2678141,1.159353,0.2888337,-0.2411454,1.145726,0.08567947,-0.163133,1.459963,0.081885,-0.4676481,1.427893,-0.07826246,0.01792924,1.434312,0.01102512,-0.4565594,1.391939,-0.1074347,-0.1954523,1.407002,0.2727184,-0.2048161,1.373369,NA,NA,Unknown,Unknown,
0.3725586,-0.5249023,0.8847656,0.2539063,0.01416016,1.044434,-4,-5,-2,13,-1,3,4,-1,-23,-24,-3,-4,-26,-32,-6,-6,19.125,19.125,19.125,-13.8125,-13.8125,-13.8125,4.108042,4.303489,9.893541,5.176962,4.383423,0.5128834,-0.1378212,-0.2724837,1.192544,0.2761,-0.258657,1.180039,0.105259,0.280071,1.475306,-0.1813777,-0.2594546,1.17715,0.3135118,-0.2412919,1.16549,0.08553591,-0.1631706,1.460193,0.08174717,-0.4676182,1.428161,-0.07793307,0.01820379,1.435167,0.01085674,-0.4564901,1.392237,-0.1099889,-0.1949461,1.414351,0.274295,-0.2085151,1.384845,NA,NA,Unknown,Unknown,
0.2817383,-0.4101563,0.9145508,0.1826172,-0.02587891,1.078613,2,2,12,3,-3,0,10,-3,15,21,1,3,13,26,5,1,9.3125,9.3125,9.3125,-10.5,-10.5,-10.5,4.101688,4.362467,9.988174,5.169595,4.423997,0.4458702,-0.155603,-0.2577972,1.186498,0.2971586,-0.2530544,1.179943,0.105202,0.2798517,1.475097,-0.1968008,-0.2405343,1.178313,0.3351815,-0.237013,1.165583,0.08548306,-0.1632162,1.460227,0.0817161,-0.4675991,1.428231,-0.07889257,0.01805235,1.436011,0.01079462,-0.4564493,1.39232,-0.1148005,-0.1944581,1.420816,0.2680832,-0.2029067,1.444185,NA,NA,Open,Open,
0.2480469,-0.409668,0.8916016,0.1577148,-0.07373047,1.059082,2,11,8,-5,0,-3,-10,3,0,-10,-5,-2,13,-1,-2,-4,7.5625,7.5625,7.5625,-2.125,-2.125,-2.125,4.108211,4.434561,0.02493577,5.140831,4.486965,0.4433453,-0.1596563,-0.244696,1.178711,0.3036424,-0.2450422,1.172891,0.1051452,0.2797261,1.474937,-0.2034138,-0.2255595,1.181567,0.3408899,-0.2289447,1.163674,0.08538931,-0.1632151,1.460371,0.08162044,-0.4675379,1.428427,-0.07803023,0.01903438,1.436521,0.0106718,-0.4563667,1.392515,-0.1163838,-0.1930397,1.421944,0.2679484,-0.2029254,1.441039,NA,NA,Open,Open,
0.3251953,-0.2602539,0.8696289,0.2675781,-0.07714844,0.9799805,-7,-3,0,-6,-6,-7,5,-19,4,11,0,2,1,8,-3,11,-29.3125,-29.3125,-29.3125,35.1875,35.1875,35.1875,4.145585,4.480976,9.901153,5.129665,4.541348,0.5447389,-0.1368604,-0.2384377,1.16783,0.2889855,-0.2354166,1.161815,0.1050624,0.2795241,1.474873,-0.1808453,-0.2255682,1.152452,0.3317687,-0.218408,1.16075,0.08527238,-0.1632604,1.46068,0.08153939,-0.4675411,1.428685,-0.07774974,0.01934881,1.436625,0.01057172,-0.4564006,1.392772,-0.1169684,-0.1925916,1.419896,0.2714112,-0.2032522,1.424431,NA,NA,Open,Open,
0.3500977,-0.3671875,0.831543,0.5058594,0.07226563,0.8481445,-20,-2,-4,6,-6,-10,29,-5,0,-3,2,2,0,-2,-18,-2,-31.125,-31.125,-31.125,37.75,37.75,37.75,4.164857,4.490112,9.708817,5.148883,4.550661,0.7700668,-0.09310825,-0.2411135,1.158703,0.2315497,-0.2324522,1.081094,0.1050416,0.2790885,1.475395,-0.1456642,-0.2291905,1.130588,0.2540444,-0.2329659,1.0582,0.08512495,-0.1634793,1.461376,0.08134731,-0.467643,1.429202,-0.07770196,0.01927533,1.436647,0.01039009,-0.456457,1.393315,-0.1122793,-0.1933403,1.410726,0.2758994,-0.199346,1.362244,NA,NA,Unknown,Unknown,
0.5112305,-0.5834961,0.6455078,0.5566406,0.2973633,0.7875977,-1,1,10,9,5,-17,-4,11,-1,-26,-2,-2,-15,7,-2,0,-20.5625,-20.5625,-20.5625,2.75,2.75,2.75,4.17026,4.462684,9.552569,5.159634,4.511632,0.8808096,-0.060699,-0.2487199,1.15946,0.2243675,-0.2292,1.147453,0.1049987,0.2787918,1.475867,-0.1177055,-0.2426114,1.1219,0.2675114,-0.218253,1.111884,0.08513369,-0.163589,1.461726,0.0812913,-0.4676468,1.429378,-0.07761759,0.01903765,1.436561,0.01036068,-0.4564486,1.393599,-0.1039294,-0.1937724,1.396729,0.2734402,-0.1961047,1.367612,NA,NA,Open,Unknown,
0.5561523,-0.6669922,0.6230469,0.4624023,0.2929688,0.8569336,5,-2,-17,1,-6,-21,7,8,-3,9,1,-3,2,8,3,12,-4.75,-4.75,-4.75,-13.5,-13.5,-13.5,4.148163,4.398746,9.473058,5.16123,4.445732,0.9032363,-0.05131179,-0.2589024,1.16736,0.2129237,-0.2397813,1.158581,0.1049107,0.2786183,1.476437,-0.09602942,-0.2477866,1.133821,0.2558735,-0.2249755,1.121381,0.08503589,-0.1636205,1.462023,0.08116411,-0.4675793,1.429495,-0.07763036,0.0188784,1.436738,0.01030803,-0.4563712,1.39368,-0.102318,-0.1939113,1.394958,0.2634179,-0.2023537,1.390843,NA,NA,Open,Unknown,
0.4716797,-0.5844727,0.7265625,0.4121094,0.1386719,1.021973,-9,-1,-17,11,3,13,11,-5,1,-9,-3,-3,13,-5,2,3,12.0625,12.0625,12.0625,-23.625,-23.625,-23.625,4.122645,4.317949,9.518882,5.155661,4.354534,0.8122883,-0.06992128,-0.2686808,1.172889,0.2233001,-0.2610627,1.140056,0.1048065,0.278429,1.476505,-0.1171551,-0.2608283,1.130857,0.2704339,-0.2418641,1.117,0.08503027,-0.1636586,1.462133,0.08116622,-0.4675764,1.4295,-0.07764563,0.01872148,1.43688,0.01032447,-0.4563608,1.393699,-0.1020761,-0.1941973,1.395973,0.2670595,-0.2027358,1.39603,NA,NA,Unknown,Unknown,
0.3618164,-0.5332031,0.840332,0.3642578,0.09033203,1.034668,1,1,9,16,7,11,8,-2,-1,29,7,-1,-9,-5,-1,0,38.1875,38.1875,38.1875,-36.8125,-36.8125,-36.8125,4.110442,4.289404,9.638213,5.15235,4.319187,0.6848887,-0.1010453,-0.2733955,1.181649,0.2447397,-0.2773516,1.139086,0.1046626,0.278227,1.476479,-0.1461746,-0.2664989,1.147521,0.2624408,-0.2750858,1.095833,0.08494636,-0.1637212,1.46217,0.08113652,-0.4675604,1.429556,-0.07776227,0.01849488,1.437008,0.01028477,-0.4563465,1.393828,-0.1045157,-0.1948307,1.403472,0.2709155,-0.2055474,1.395802,NA,NA,Unknown,Unknown,
0.3286133,-0.5366211,0.8759766,0.2299805,0.05322266,1.079102,-11,13,21,-2,0,-4,14,29,1,29,3,4,3,15,18,4,35.6875,35.6875,35.6875,-32.6875,-32.6875,-32.6875,4.100179,4.297489,9.799676,5.161202,4.344124,0.4844492,-0.130526,-0.2713565,1.188171,0.2778138,-0.2697756,1.18856,0.1044614,0.277973,1.47634,-0.1720075,-0.257653,1.173718,0.3180878,-0.2562152,1.16825,0.08490583,-0.163788,1.46222,0.0811597,-0.4675458,1.429704,-0.07790533,0.01842883,1.437187,0.01029049,-0.4563427,1.393933,-0.1100473,-0.1945878,1.411811,0.2710654,-0.2095162,1.407,NA,NA,Open,Unknown,
0.2802734,-0.4926758,0.894043,0.2460938,0.002929688,1.057129,13,-4,-16,-16,-2,-6,-3,-11,-1,-1,0,-2,-2,-27,-5,1,17.125,17.125,17.125,-11.5,-11.5,-11.5,4.087523,4.355772,0.0008362337,5.16706,4.396005,0.3739574,-0.1577577,-0.2631309,1.182143,0.3040384,-0.2636867,1.187041,0.1041618,0.2777495,1.475854,-0.1986144,-0.2445768,1.17921,0.3411676,-0.2453962,1.175961,0.08484573,-0.1638311,1.462234,0.08118012,-0.4675529,1.429783,-0.07788541,0.01854936,1.437295,0.01029314,-0.4563478,1.393995,-0.1155883,-0.1936617,1.418318,0.2632192,-0.203103,1.44624,NA,NA,Open,Open,
0.3051758,-0.3486328,0.9462891,0.2382813,-0.07861328,1.030762,-1,2,41,1,3,15,9,1,0,6,3,-2,-6,-5,-4,2,2.4375,2.4375,2.4375,4.875,4.875,4.875,4.097816,4.406889,0.06396689,5.159095,4.461713,0.3413096,-0.1671341,-0.2540124,1.170762,0.3186881,-0.2523014,1.177608,0.1037937,0.2775878,1.47539,-0.2089847,-0.2339503,1.174357,0.3573125,-0.2356394,1.164255,0.08480835,-0.1638504,1.462295,0.08125185,-0.4675388,1.430071,-0.07781149,0.01891624,1.437438,0.01032033,-0.4563068,1.394175,-0.1182141,-0.1927911,1.419718,0.2619644,-0.2040099,1.448768,NA,NA,Open,Open,
0.3979492,-0.2875977,0.859375,0.2729492,-0.08398438,0.9804688,-5,1,-7,7,0,-3,-10,-8,1,14,3,2,-2,4,-12,-14,-33.8125,-33.8125,-33.8125,23.0625,23.0625,23.0625,4.122997,4.451384,9.96687,5.14715,4.525259,0.4032192,-0.1490933,-0.2455496,1.158176,0.3123092,-0.2396693,1.162941,0.1037269,0.2775089,1.475335,-0.1904755,-0.2315542,1.1494,0.3470235,-0.2235704,1.149047,0.0846498,-0.1639338,1.462428,0.08114199,-0.467639,1.43033,-0.07772034,0.0191971,1.43743,0.01018667,-0.4564201,1.394371,-0.1178777,-0.1925592,1.420525,0.2629731,-0.2036793,1.440431,NA,NA,Open,Open,
0.4130859,-0.3920898,0.7817383,0.3774414,0.03076172,0.934082,-3,10,-19,-2,-2,2,7,3,2,-5,-6,2,-4,-7,1,2,-35.3125,-35.3125,-35.3125,38.625,38.625,38.625,4.125704,4.45707,9.79273,5.155679,4.566675,0.5942519,-0.1100244,-0.245179,1.148817,0.2838433,-0.2297848,1.145523,0.1037081,0.2774127,1.475375,-0.1612341,-0.2342959,1.11555,0.3295977,-0.2156986,1.123455,0.08443873,-0.1640509,1.462777,0.08098217,-0.4678776,1.430653,-0.07764097,0.01895889,1.437035,0.009992311,-0.4566912,1.394776,-0.1181131,-0.1926777,1.414149,0.2705562,-0.203092,1.419816,NA,NA,Unknown,Unknown,
0.5117188,-0.5825195,0.6450195,0.4770508,0.1831055,0.8276367,-3,-1,0,-10,-2,8,-13,-13,-2,-18,-1,1,-4,-3,-5,-4,-24.875,-24.875,-24.875,34.625,34.625,34.625,4.120019,4.429224,9.64852,5.184846,4.544414,0.745594,-0.0791751,-0.2522922,1.149689,0.2476553,-0.2286312,1.137731,0.1037045,0.2770968,1.475664,-0.1216728,-0.2404412,1.123771,0.2913226,-0.2138624,1.1164,0.08442202,-0.1642087,1.463035,0.08095847,-0.4679299,1.430729,-0.07745253,0.01875904,1.436601,0.009987569,-0.4567179,1.394826,-0.07567484,-0.2181887,1.373188,0.2778606,-0.2009838,1.400117,NA,NA,Unknown,Unknown,
0.4946289,-0.6010742,0.7016602,0.4545898,0.2353516,0.8735352,-5,-5,-11,5,-1,1,2,7,2,7,4,1,-8,2,4,3,-15.125,-15.125,-15.125,5.9375,5.9375,5.9375,4.099993,4.357097,9.533327,5.19445,4.506604,0.844979,-0.06458803,-0.2622832,1.155697,0.2226157,-0.2326112,1.137541,0.1038144,0.2768094,1.475967,-0.1073514,-0.2530049,1.118074,0.2632633,-0.2209161,1.101417,0.08441422,-0.1643153,1.463215,0.08098073,-0.467954,1.430748,-0.07734448,0.01857713,1.436277,0.01004126,-0.456733,1.39483,-0.09661545,-0.1937595,1.386911,0.2696947,-0.2036178,1.350558,NA,NA,Unknown,Unknown,
0.5234375,-0.5004883,0.7299805,0.3964844,0.2182617,0.9116211,-2,-2,-15,0,-3,0,-6,-5,-2,2,0,3,1,4,6,0,-15.5625,-15.5625,-15.5625,5.5,5.5,5.5,4.090059,4.299054,9.48804,5.200408,4.446827,0.8962913,-0.05644505,-0.2717196,1.164184,0.2082224,-0.2407803,1.143345,0.1038834,0.2766539,1.476216,-0.09947856,-0.2607062,1.121875,0.2531199,-0.2280617,1.103045,0.08440639,-0.1643535,1.463331,0.08104258,-0.4679515,1.430751,-0.07731354,0.01858117,1.436188,0.01018835,-0.4566975,1.394799,-0.09896228,-0.193924,1.389563,0.2704466,-0.2042853,1.350503,NA,NA,Open,Unknown,
0.3813477,-0.5131836,0.7514648,0.362793,0.1386719,0.9350586,1,7,0,1,-2,2,7,0,-1,1,-5,-4,-10,-5,-2,-2,5.1875,5.1875,5.1875,11.75,11.75,11.75,4.090853,4.260943,9.477316,5.213429,4.387369,0.9188011,-0.05631608,-0.2814813,1.172207,0.2026016,-0.2534642,1.152794,0.1040037,0.2766442,1.476392,-0.1090496,-0.2723486,1.122333,0.2448218,-0.2366776,1.105778,0.08444831,-0.1643896,1.463394,0.08111704,-0.467975,1.43076,-0.07730528,0.01858279,1.436112,0.01035048,-0.4567144,1.39479,-0.1006822,-0.1941884,1.392913,0.2729017,-0.2059908,1.353338,NA,NA,Open,Unknown,
0.4575195,-0.4853516,0.7456055,0.3666992,0.09863281,0.9511719,-3,-4,-1,0,-2,-2,1,-3,-2,0,-1,0,-5,-2,0,-1,-7.125,-7.125,-7.125,-0.25,-0.25,-0.25,4.073558,4.195987,9.481526,5.20809,4.305329,0.9236127,-0.06026442,-0.2948117,1.179457,0.2003503,-0.2703688,1.164379,0.1039992,0.2765292,1.476434,-0.108483,-0.2854512,1.131564,0.2428866,-0.2496693,1.1248,0.08445684,-0.1644792,1.463375,0.081287,-0.4680501,1.430662,-0.0773428,0.01852027,1.436152,0.01065637,-0.4568296,1.394634,-0.1036731,-0.1946289,1.399801,0.2885744,-0.2022,1.402895,NA,NA,Unknown,Unknown,
0.456543,-0.4770508,0.7026367,0.4555664,0.1508789,0.918457,-2,-3,-5,-1,-2,-1,-3,0,0,2,0,-1,-1,-2,0,-1,-29.5625,-29.5625,-29.5625,16,16,16,4.039623,4.136052,9.488302,5.240082,4.234488,0.910244,-0.0588753,-0.3115914,1.182198,0.2014665,-0.2854969,1.170937,0.1039566,0.2764603,1.476389,-0.1024678,-0.2949983,1.129445,0.2427342,-0.262583,1.11975,0.08437638,-0.1645345,1.463301,0.08129007,-0.4680803,1.430563,-0.07762011,0.01840943,1.436322,0.01071334,-0.4568799,1.394555,-0.1054749,-0.1949068,1.404655,0.2906552,-0.2025245,1.406978,NA,NA,Unknown,Unknown,
0.4833984,-0.4619141,0.6391602,0.4277344,0.08203125,0.8681641,1,-10,-1,-1,-3,-5,-4,-2,1,-5,-2,-9,-1,-1,0,0,-43.5625,-43.5625,-43.5625,50,50,50,3.9685,4.053125,9.502919,5.297053,4.154577,0.887677,-0.05173285,-0.3395293,1.187372,0.1949591,-0.3069164,1.182037,0.1038783,0.2764212,1.47625,-0.0879492,-0.3111237,1.137833,0.231716,-0.2727574,1.145318,0.0842898,-0.1646019,1.463237,0.08121293,-0.4681697,1.430502,-0.07775347,0.01829842,1.436407,0.01066764,-0.4569458,1.394507,-0.1084062,-0.1948927,1.409688,0.2936387,-0.2026376,1.414044,NA,NA,Open,Unknown,
0.6035156,-0.5087891,0.6367188,0.5605469,0.2587891,0.7905273,-3,4,4,3,0,0,-1,-23,-76,7,-3,-5,-6,-3,-1,3,-73.875,-73.875,-73.875,61.9375,61.9375,61.9375,3.84966,3.946941,9.534238,5.424003,4.052243,0.8621098,-0.04807937,-0.3694248,1.20516,0.1916041,-0.3397644,1.187179,0.1037816,0.2764173,1.47604,-0.06898113,-0.3294096,1.160808,0.2098525,-0.2991491,1.143354,0.08427083,-0.1646814,1.463186,0.08120897,-0.4683408,1.430477,-0.07786218,0.01821555,1.436587,0.01067747,-0.4571575,1.394494,-0.111722,-0.1963417,1.415159,0.2770249,-0.2059786,1.415936,NA,NA,Unknown,Unknown,
0.6337891,-0.5048828,0.5913086,0.6513672,0.1879883,0.7509766,-5,-9,0,2,-3,-4,-4,11,37,-1,0,0,-2,-1,2,-21,-33.9375,-33.9375,-33.9375,58.5625,58.5625,58.5625,3.758317,3.847818,9.558118,5.546205,3.885871,0.8433416,-0.05503798,-0.387768,1.218149,0.1925138,-0.3680611,1.198837,0.1036175,0.2764036,1.475416,-0.05425277,-0.3563138,1.178479,0.1905801,-0.3307573,1.158238,0.08419097,-0.1647751,1.46294,0.08124655,-0.4684831,1.430345,-0.07815716,0.01802647,1.436579,0.01066797,-0.4574103,1.394379,-0.1148978,-0.1976176,1.418319,0.2729819,-0.2066067,1.416935,NA,NA,Unknown,Unknown,
0.7216797,-0.4946289,0.512207,0.5893555,0.2802734,0.6660156,2,7,0,-6,-2,-2,-4,-1,-71,-26,-1,-4,-5,-8,-3,-4,-69.9375,-69.9375,-69.9375,63.6875,63.6875,63.6875,3.649943,3.728232,9.579707,5.650229,3.742365,0.8398555,-0.05773957,-0.415103,1.238691,0.1948824,-0.3963512,1.213281,0.1036012,0.2763817,1.475053,-0.04015727,-0.3948578,1.195313,0.1833699,-0.3780347,1.181723,0.08400457,-0.1649874,1.462475,0.08119746,-0.4688173,1.429882,-0.07866523,0.01766796,1.436549,0.0104383,-0.4578842,1.393864,-0.1142414,-0.2052958,1.419932,0.2706194,-0.208407,1.419104,NA,NA,Lasso,Lasso,
0.8637695,-0.5170898,0.390625,0.8076172,0.2666016,0.5668945,4,19,0,-2,1,-1,-1,-2,3,11,0,1,-2,0,1,1,-30.4375,-30.4375,-30.4375,42.0625,42.0625,42.0625,3.491637,3.515009,9.649762,5.732897,3.55972,0.838589,-0.06546263,-0.4390737,1.261015,0.2029552,-0.4322004,1.244738,0.1034701,0.276455,1.474904,-0.03923695,-0.4204755,1.230453,0.2335347,-0.4459604,1.248562,0.08361974,-0.1652158,1.462001,0.08099147,-0.4692318,1.429365,-0.07917377,0.01715911,1.436363,0.01003004,-0.4583493,1.393414,-0.1125949,-0.2142102,1.420407,0.268315,-0.216074,1.4188,NA,NA,Lasso,Lasso,
0.8662109,-0.4658203,0.2553711,0.9335938,0.2563477,0.3911133,-8,-13,0,0,1,0,1,-4,0,4,0,0,-1,-2,1,-1,-41.3125,-41.3125,-41.3125,12.8125,12.8125,12.8125,3.395727,3.381567,9.692912,5.819455,3.305104,0.8141358,-0.0734252,-0.4633925,1.290122,0.2139305,-0.462076,1.275715,0.1032935,0.2765921,1.474758,-0.0393406,-0.4453121,1.27602,0.2437832,-0.4688805,1.269378,0.08349885,-0.1653251,1.461737,0.08075452,-0.4694777,1.429117,-0.0799455,0.01645794,1.436178,0.009655782,-0.45859,1.393166,-0.1115884,-0.219963,1.419805,0.267071,-0.2222377,1.418586,NA,NA,Unknown,Unknown,
0.9638672,-0.3808594,0.1552734,0.9628906,0.2368164,0.2939453,0,-12,-3,-3,-2,-1,-2,-2,2,-10,-1,0,-1,0,0,1,-73.25,-73.25,-73.25,8.5625,8.5625,8.5625,3.2427,3.236693,9.74942,5.897432,3.13571,0.7514762,-0.08753295,-0.4688335,1.322548,0.2246538,-0.485909,1.30361,0.1029985,0.27695,1.474694,-0.05120167,-0.4520004,1.31337,0.2607301,-0.478459,1.304704,0.0832473,-0.165326,1.461597,0.08032557,-0.469697,1.429035,-0.08065657,0.01560267,1.435715,0.009163198,-0.4588489,1.393069,-0.1114328,-0.2274978,1.417731,0.2659151,-0.2289223,1.417424,NA,NA,Unknown,Lasso,
0.9707031,-0.3974609,0.08837891,1.027832,0.2475586,0.1796875,0,0,0,-2,-1,0,-1,-5,-3,-3,-1,-3,-2,-1,-3,-2,-22,-22,-22,-26.75,-26.75,-26.75,2.984858,3.082309,9.90253,6.023148,3.010467,0.5969451,-0.1004358,-0.4763649,1.345513,0.236428,-0.4962997,1.327924,0.1019916,0.277641,1.47509,-0.0631585,-0.4666574,1.328929,0.2732351,-0.4901949,1.327154,0.08301406,-0.1653394,1.461592,0.07941525,-0.4701397,1.429681,-0.08140425,0.01470016,1.435244,0.008429977,-0.4592167,1.393695,-0.1123385,-0.2349071,1.417014,0.2646928,-0.2365941,1.418135,NA,NA,NotTracked,Unknown,
0.9785156,-0.3662109,0.05566406,1.005371,0.2016602,0.2265625,-1,-2,-2,0,0,-1,0,-2,3,-3,-2,0,0,0,0,-1,8.625,8.625,8.625,-38.4375,-38.4375,-38.4375,2.814203,3.012204,0.08483818,6.160266,2.946895,0.3695057,-0.1104061,-0.4826702,1.356393,0.2457078,-0.5011126,1.337747,0.1011574,0.2784813,1.474957,-0.07191853,-0.4808442,1.335698,0.2822244,-0.4985261,1.335591,0.0828874,-0.165396,1.461528,0.07860659,-0.4707168,1.430409,-0.08166548,0.013765,1.434019,0.007787407,-0.4597493,1.394547,-0.1144598,-0.239304,1.418243,0.2654681,-0.2426305,1.419933,NA,NA,NotTracked,NotTracked,
0.9545898,-0.3037109,0.06982422,0.9355469,0.1435547,0.2680664,3,-2,-2,0,-1,-1,0,-2,1,-2,-3,-3,0,-1,-2,-2,-4.3125,-4.3125,-4.3125,-6.75,-6.75,-6.75,2.718261,2.985925,0.189181,6.175114,2.944104,0.3174535,-0.1175196,-0.4865595,1.363331,0.2527698,-0.4990063,1.342642,0.1003747,0.2794084,1.474922,-0.07845817,-0.4839918,1.346222,0.2890867,-0.5034233,1.339692,0.0828776,-0.1653992,1.461523,0.07842559,-0.4711099,1.431216,-0.08166055,0.01363319,1.433545,0.007729157,-0.4600831,1.395258,-0.1173155,-0.2403778,1.420016,0.2668771,-0.246364,1.422614,NA,NA,NotTracked,NotTracked,
0.9311523,-0.3579102,0.1289063,0.9316406,0.1865234,0.2661133,0,3,-3,-1,-1,-3,-1,-2,1,0,0,-2,-1,0,-2,-2,-2.8125,-2.8125,-2.8125,8.75,8.75,8.75,2.690129,2.98557,0.2084181,6.210624,2.953191,0.2896686,-0.1221991,-0.4877391,1.36454,0.2571217,-0.5028162,1.341711,0.1001069,0.2802607,1.474683,-0.08309019,-0.4901092,1.346596,0.2976257,-0.4887157,1.345333,0.08287759,-0.1653944,1.461504,0.07840507,-0.4713956,1.431956,-0.08169033,0.0136819,1.43337,0.007800217,-0.4602882,1.395926,-0.1206881,-0.2401123,1.422537,0.2687249,-0.2484634,1.425075,NA,NA,NotTracked,NotTracked,
