ALX,ALY,ALZ,ARX,ARY,ARZ,EMG0L,EMG1L,EMG2L,EMG3L,EMG4L,EMG5L,EMG6L,EMG7L,EMG0R,EMG1R,EMG2R,EMG3R,EMG4R,EMG5R,EMG6R,EMG7R,GLX,GLY,GLZ,GRX,GRY,GRZ,ORL,OPL,OYL,ORR,OPR,OYR,LHNX,LHNY,LHNZ,RHNX,RHNY,RHNZ,HX,HY,HZ,LTX,LTY,LTZ,RTX,RTY,RTZ,SpineMidX,SpineMidY,SpineMidZ,SpineBaseX,SpineBaseY,SpineBaseZ,ShoulderLeftX,ShoulderLeftY,ShoulderLeftZ,ShoulderRightX,ShoulderRightY,ShoulderRightZ,ElbowLeftX,ElbowLeftY,ElbowLeftZ,ElbowRightX,ElbowRightY,ElbowRightZ,Myo_Pose_left,Myo_Pose_Right,Kinect_pose_left,Kinect_pose_right
0.7792969,-0.6035156,0.230957,0.9267578,0.3007813,0.215332,-1,-2,-1,-1,-2,4,0,-3,-2,-2,-1,-2,0,-1,-1,-1,-97.3125,-97.3125,-97.3125,22.0625,22.0625,22.0625,3.023793,3.286757,0.3404849,6.286432,3.031294,0.01550503,-0.02053903,-0.4373392,1.231917,0.2803034,-0.4787686,1.258789,0.1155874,0.2618272,1.387517,-0.04061784,-0.4620923,1.220719,0.3189457,-0.4744735,1.263247,0.1056661,-0.1706425,1.39826,0.1103892,-0.4718605,1.372831,-0.06093258,0.01532329,1.373808,0.03788893,-0.4634762,1.338691,-0.0853862,-0.2156589,1.342721,0.2954427,-0.2358129,1.357799,NA,NA,Unknown,NotTracked,
0.7583008,-0.5961914,0.3393555,0.9682617,0.3432617,0.2338867,-4,-1,-13,-3,-2,-3,0,-1,-3,-2,1,1,0,-1,1,0,-90.625,-90.625,-90.625,42.0625,42.0625,42.0625,3.106313,3.416348,0.073301,6.355871,3.047531,0.006314015,0.02859303,-0.4291495,1.212784,0.2836586,-0.478511,1.256676,0.1156323,0.2621865,1.387729,0.001354669,-0.445243,1.212259,0.3224342,-0.4736027,1.257488,0.1056895,-0.1705826,1.398427,0.1099149,-0.4718876,1.374059,-0.06035283,0.01521815,1.369993,0.03758226,-0.4632631,1.339329,-0.08326697,-0.2063829,1.328415,0.2959301,-0.235734,1.358,NA,NA,Unknown,Unknown,
0.7983398,-0.605957,0.3076172,0.9946289,0.3857422,0.3598633,44,5,2,4,6,11,-8,7,6,4,-2,1,0,6,0,11,-168.0625,-168.0625,-168.0625,17.25,17.25,17.25,3.084402,3.582004,9.721277,6.396763,3.141635,0.02610293,0.1046088,-0.4276467,1.213034,0.28676,-0.4746727,1.249029,0.1153806,0.2626091,1.388062,0.06206349,-0.4581447,1.233546,0.3259471,-0.4740384,1.246966,0.1039751,-0.1706617,1.399884,0.1047039,-0.4729079,1.378833,-0.05991691,0.01524071,1.362375,0.03380254,-0.4635137,1.342283,-0.07763345,-0.2017483,1.309026,0.2983111,-0.2349698,1.357268,NA,NA,Unknown,NotTracked,
0.8476563,-0.5102539,0.3276367,1.000977,0.4799805,0.4746094,71,-1,-44,-9,-7,-42,-18,-12,-4,-3,0,19,-17,-7,2,5,-185.3125,-185.3125,-185.3125,42.5,42.5,42.5,2.983677,3.692387,9.4677,6.371654,3.300239,0.1172063,0.1480592,-0.3920648,1.220915,0.2820517,-0.4684654,1.217629,0.1147123,0.2630547,1.388331,0.1163261,-0.4336358,1.236357,0.3260628,-0.4620585,1.225308,0.10263,-0.1707687,1.400658,0.10123,-0.4734075,1.381028,-0.05768,0.01451535,1.360319,0.0309472,-0.4635031,1.343686,-0.05936088,-0.1969848,1.278582,0.3044613,-0.2262886,1.352582,NA,NA,NotTracked,NotTracked,
0.7324219,-0.5722656,0.284668,0.9555664,0.4399414,0.6845703,-74,-45,-1,-5,-17,-6,2,-8,-4,-13,-16,-56,-34,-2,-6,-31,-133.375,-133.375,-133.375,53.5,53.5,53.5,2.886911,3.761129,9.235109,6.3061,3.540624,0.285511,0.1542931,-0.3778359,1.235572,0.2679091,-0.4269333,1.179769,0.112966,0.2643668,1.388772,0.1260122,-0.4234744,1.25051,0.3174518,-0.4553449,1.200286,0.09976713,-0.1700394,1.401422,0.09734716,-0.472333,1.382753,-0.05323372,0.01415396,1.346946,0.02764131,-0.4624493,1.344007,-0.04097418,-0.1979617,1.263572,0.3115464,-0.2108077,1.343696,NA,NA,NotTracked,NotTracked,
0.7407227,-0.5366211,0.2202148,0.6464844,0.5336914,0.828125,-13,-3,-36,-9,4,-26,0,9,-8,0,-1,14,-11,1,-1,-11,-29.4375,-29.4375,-29.4375,88,88,88,2.922249,3.813581,9.060036,6.240481,3.999832,0.6436018,0.1737752,-0.3489791,1.226026,0.2175846,-0.3653932,1.132814,0.1107048,0.265337,1.389007,0.1504661,-0.3731128,1.228,0.250056,-0.3800247,1.120373,0.0959917,-0.1689688,1.401629,0.08965228,-0.4700896,1.383448,-0.0521501,0.01383671,1.343038,0.0194075,-0.4589771,1.342637,-0.02551013,-0.1998354,1.25586,0.3229716,-0.1897083,1.325446,NA,NA,NotTracked,NotTracked,
0.7402344,-0.4902344,0.2197266,0.3447266,0.5317383,0.8491211,-61,-5,33,-1,6,6,-12,1,-3,-20,-4,-26,-11,-11,-8,-6,-39.1875,-39.1875,-39.1875,66.5625,66.5625,66.5625,2.943237,3.816618,8.980082,6.222355,4.400105,0.9405026,0.1541608,-0.2853445,1.111067,0.1589449,-0.2667829,1.117621,0.1086357,0.2664766,1.388764,0.1413926,-0.314288,1.109375,0.169316,-0.3083157,1.126555,0.09377525,-0.1680952,1.401831,0.08729359,-0.4685532,1.384528,-0.05195398,0.01378584,1.343511,0.017581,-0.4573556,1.342507,-0.01659061,-0.198985,1.252942,0.3270033,-0.1789408,1.301482,NA,NA,NotTracked,NotTracked,
0.7509766,-0.6733398,0.1811523,0.1196289,0.5258789,0.7871094,103,-3,7,9,1,-8,8,19,-17,-20,-3,-1,14,3,1,1,-33.8125,-33.8125,-33.8125,67.625,67.625,67.625,2.92512,3.798416,8.8341,6.249859,4.790921,1.247428,0.1884586,-0.1480936,1.160992,0.08413935,-0.1681961,1.127995,0.106732,0.2668939,1.388146,0.1936536,-0.1621681,1.142273,0.07336172,-0.2249289,1.15695,0.09384445,-0.16749,1.401873,0.08900833,-0.4660066,1.385882,-0.04767172,0.01440457,1.335374,0.01932393,-0.4551456,1.342791,-0.01688146,-0.1887858,1.249231,0.3313907,-0.1562706,1.266491,NA,NA,NotTracked,NotTracked,
0.7197266,-0.6791992,0.2080078,0.008300781,0.4389648,0.6591797,20,2,30,-1,-2,-13,-12,7,-7,-7,2,2,-5,1,3,0,-12.4375,-12.4375,-12.4375,72.625,72.625,72.625,2.935917,3.773696,8.755397,6.351135,5.111784,1.537913,0.2266089,-0.08045389,1.18712,-0.008866985,-0.0822232,1.165322,0.1056706,0.2680246,1.3872,0.2255354,-0.08121435,1.15225,-0.0129217,-0.06245393,1.126218,0.09405343,-0.1666597,1.401641,0.09001273,-0.4633472,1.387619,-0.04807068,0.01504943,1.334926,0.02029432,-0.4531248,1.343355,0.001000007,-0.1780734,1.225048,0.2744233,-0.1360371,1.216091,NA,NA,NotTracked,NotTracked,
0.7041016,-0.7319336,0.2060547,0.1020508,0.4760742,0.5610352,-20,6,55,19,6,-13,-12,15,-4,5,1,-4,-43,-32,2,28,-0.25,-0.25,-0.25,20.75,20.75,20.75,2.950863,3.763157,8.725363,6.483581,5.340425,1.875455,0.1970008,-0.05766634,1.18252,-0.02933067,-0.04638295,1.204181,0.1052936,0.2680742,1.386618,0.1956126,-0.07379857,1.145909,-0.0114751,0.001181922,1.167122,0.09417917,-0.1662833,1.401755,0.09071952,-0.4624749,1.388824,-0.04687098,0.01558488,1.328798,0.02083146,-0.452677,1.343583,0.00942811,-0.2029587,1.246486,0.2529102,-0.121436,1.200529,NA,NA,NotTracked,NotTracked,
0.7216797,-0.6899414,0.2089844,0.08007813,0.7412109,0.4760742,-10,-22,30,5,-13,-19,6,16,-1,27,-2,-2,1,-8,-6,-16,-2.0625,-2.0625,-2.0625,14.125,14.125,14.125,2.957001,3.766761,8.718626,6.568964,5.382119,2.056421,0.1956152,-0.05158609,1.187462,-0.03730655,-0.01933475,1.221192,0.1051401,0.2682626,1.385473,0.2241439,-0.07561283,1.167444,-0.03096308,0.03288854,1.203408,0.09425236,-0.1660691,1.401732,0.09137824,-0.4621481,1.38978,-0.04400979,0.01353559,1.315781,0.02140673,-0.4526011,1.343893,0.009419043,-0.2028069,1.246546,0.2294448,-0.1078517,1.189295,NA,NA,NotTracked,NotTracked,
0.7363281,-0.6762695,0.2480469,-0.01464844,0.9633789,0.3134766,-20,14,8,2,3,9,-2,-25,-2,11,5,9,0,-14,10,-18,2.625,2.625,2.625,26,26,26,2.959055,3.776031,8.717832,6.619378,5.312611,2.19128,0.1974164,-0.04772783,1.196414,-0.03951028,-0.01949288,1.231104,0.1049197,0.2681148,1.384169,0.2237441,-0.07342516,1.172316,-0.02310864,0.03500787,1.233222,0.09430864,-0.1659561,1.401627,0.0917731,-0.4619087,1.390217,-0.04362745,0.01301441,1.312128,0.0218609,-0.4525046,1.34417,0.009365843,-0.2024552,1.246464,0.2125153,-0.100247,1.184891,NA,NA,NotTracked,NotTracked,
0.6484375,-0.6660156,0.2104492,0.175293,0.5771484,0.7963867,44,5,-21,7,15,24,4,38,-15,-10,-4,2,24,39,16,-24,15.1875,15.1875,15.1875,-36,-36,-36,2.966739,3.785151,8.734865,6.585952,5.263902,2.181305,0.1982973,-0.04736841,1.198514,-0.04019305,-0.01881894,1.231695,0.1045467,0.2681074,1.382428,0.2236473,-0.07267147,1.172354,-0.02681957,0.03388244,1.237895,0.0942769,-0.1657403,1.401434,0.09196372,-0.4616954,1.390565,-0.04363203,0.01258135,1.310909,0.02212321,-0.4524211,1.344518,0.009212056,-0.202336,1.246449,0.2088016,-0.09865691,1.184203,NA,NA,NotTracked,NotTracked,
0.7280273,-0.7236328,0.2348633,-0.2197266,0.824707,0.5556641,74,15,-9,15,2,-26,11,5,4,6,0,1,-42,28,0,-2,11.25,11.25,11.25,21.875,21.875,21.875,2.985379,3.790438,8.740397,6.589165,5.287099,2.17743,0.1978794,-0.04610762,1.196954,-0.04312998,-0.01749104,1.239432,0.1036354,0.2679598,1.381087,0.2227708,-0.07192445,1.170064,-0.03114923,0.04201968,1.24375,0.09423059,-0.165611,1.401349,0.09226442,-0.4615727,1.390965,-0.04354941,0.01226391,1.310379,0.02251629,-0.452462,1.345112,0.007844149,-0.2017374,1.246863,0.2074481,-0.09804668,1.184051,NA,NA,NotTracked,NotTracked,
0.6606445,-0.7055664,0.2651367,-0.2304688,0.831543,0.6323242,-42,8,54,10,-2,-19,-6,-21,2,7,3,-2,22,24,4,-4,7.75,7.75,7.75,4.9375,4.9375,4.9375,3.012333,3.798593,8.739361,6.58657,5.267495,2.154497,0.2032593,-0.04778939,1.194454,-0.03913962,-0.01492325,1.241917,0.1019452,0.2675653,1.379774,0.2317113,-0.07500043,1.1671,-0.02978236,0.0462483,1.246163,0.09423774,-0.1655674,1.401358,0.09253774,-0.4616177,1.391702,-0.04334096,0.01196049,1.309955,0.02278774,-0.4526238,1.345758,0.006043269,-0.2011119,1.247484,0.2082358,-0.09811747,1.184013,NA,NA,NotTracked,NotTracked,
0.6835938,-0.7138672,0.2851563,0.04345703,0.8203125,0.6362305,63,7,7,-1,1,12,19,32,-2,-9,-4,-25,-15,29,1,2,5.375,5.375,5.375,19.4375,19.4375,19.4375,3.021277,3.801006,8.735286,6.595782,5.244489,2.113924,0.1961834,-0.03849816,1.194502,-0.0319193,-0.01517738,1.243979,0.09972753,0.2668034,1.378499,0.2038414,-0.05707977,1.154735,-0.02256688,0.04554151,1.24375,0.09425752,-0.1656027,1.401527,0.09282506,-0.4617925,1.392617,-0.04288575,0.01161575,1.30963,0.02305503,-0.4528483,1.346238,0.001329143,-0.195507,1.248714,0.2182594,-0.09985793,1.184092,NA,NA,NotTracked,NotTracked,
0.6782227,-0.7016602,0.2338867,-0.02197266,0.8349609,0.6069336,-12,35,22,5,5,37,49,19,0,-2,2,-28,-15,73,15,-7,8.75,8.75,8.75,-5.0625,-5.0625,-5.0625,3.032964,3.80624,8.739507,6.601313,5.199834,2.070256,0.2427635,-0.0347043,1.208486,-0.02100073,-0.01619041,1.250121,0.09707088,0.2656792,1.376875,0.2587709,-0.05495581,1.176,-0.003108917,0.04216878,1.244766,0.09417595,-0.1657147,1.401664,0.09299581,-0.4620971,1.393258,-0.03994684,0.009850257,1.307485,0.0232533,-0.4531643,1.346514,0.0004268186,-0.1984859,1.248726,0.2368103,-0.1025376,1.185815,NA,NA,NotTracked,NotTracked,
0.6708984,-0.6923828,0.2216797,-0.1347656,0.8193359,0.6157227,33,-3,-19,4,3,15,9,1,-1,-12,5,10,37,-27,-38,-3,0.3125,0.3125,0.3125,13.5,13.5,13.5,3.032465,3.806176,8.749451,6.598508,5.156825,2.009128,0.172262,-0.0171099,1.213517,-0.007226529,-0.009129023,1.257068,0.09404034,0.2643683,1.375921,0.2305382,-0.02670893,1.172286,0.01739664,0.0409649,1.258111,0.09395361,-0.1661839,1.402113,0.0932664,-0.4628459,1.394411,-0.03850291,0.009236527,1.307702,0.02354506,-0.4539595,1.347196,0.003307873,-0.2070802,1.250979,0.275762,-0.106879,1.193542,NA,NA,NotTracked,NotTracked,
0.6674805,-0.7163086,0.2714844,-0.4746094,0.8271484,0.5390625,22,5,41,-6,-12,-17,9,3,22,34,1,3,-5,-8,21,11,10.125,10.125,10.125,16.1875,16.1875,16.1875,3.036953,3.81199,8.762859,6.612411,5.15328,1.924734,0.1772928,-0.009629254,1.223287,0.05042948,-0.009823293,1.255971,0.0900427,0.2635844,1.374354,0.1795055,0.006037631,1.2696,0.07593409,0.035281,1.271319,0.09393916,-0.1662361,1.402146,0.09302533,-0.4632002,1.395366,-0.03822136,0.009235845,1.309514,0.02331337,-0.4542525,1.347677,-0.0002655683,-0.2071332,1.254553,0.3057882,-0.1040313,1.199863,NA,NA,NotTracked,NotTracked,
0.6357422,-0.7294922,0.265625,-0.4848633,0.8833008,0.4824219,66,8,4,-5,-11,-27,-35,1,21,12,-1,-8,10,10,10,-3,13.1875,13.1875,13.1875,21.75,21.75,21.75,3.05671,3.815816,8.769666,6.653671,5.158552,1.916636,0.1844706,-0.008532614,1.224706,0.07628148,-0.005094474,1.262014,0.08635944,0.2613378,1.373133,0.1845628,0.008497171,1.238833,0.1180621,0.0326845,1.298765,0.0934003,-0.1668114,1.402647,0.09284922,-0.463392,1.396131,-0.03925893,0.009456411,1.311647,0.0230811,-0.4544483,1.348484,-0.01516412,-0.2016282,1.254426,0.3339865,-0.09713126,1.206549,NA,NA,NotTracked,NotTracked,
0.6733398,-0.7373047,0.2612305,-0.2861328,0.9521484,0.3774414,28,0,14,15,21,48,-10,0,-7,7,3,1,3,-27,-2,-11,-5.1875,-5.1875,-5.1875,33.3125,33.3125,33.3125,3.058458,3.818695,8.764054,6.719591,5.164811,1.909933,0.1849475,-0.00420814,1.221282,0.08069799,-0.01156178,1.263733,0.08407216,0.2602738,1.372863,0.1686022,0.0170121,1.226333,0.114233,0.03475111,1.294313,0.09303924,-0.1673096,1.403128,0.09254448,-0.4637193,1.396951,-0.04072022,0.009180686,1.313908,0.02259115,-0.4548818,1.349633,-0.01637253,-0.2015339,1.255039,0.3460234,-0.08705059,1.204454,NA,NA,NotTracked,NotTracked,
0.6777344,-0.7211914,0.2460938,-0.3847656,1.08252,0.4619141,51,24,74,15,-4,-1,0,5,-18,1,7,-11,-10,-40,-15,-6,-21.5,-21.5,-21.5,44.3125,44.3125,44.3125,3.036546,3.817423,8.753834,6.816576,5.220879,1.872957,0.1259326,0.01643477,1.218481,0.09964179,0.004452206,1.227054,0.08233862,0.260224,1.374011,0.09792562,0.03627406,1.226625,0.08359151,-0.02349157,1.207702,0.09290873,-0.1676856,1.40393,0.09265666,-0.4640862,1.398157,-0.0399829,0.008596272,1.315342,0.02265916,-0.4551901,1.350511,-0.01605961,-0.201808,1.254824,0.3481927,-0.07770799,1.199297,NA,NA,NotTracked,NotTracked,
0.7001953,-0.7158203,0.2304688,-0.2861328,0.831543,0.6635742,36,7,1,8,10,48,9,16,-45,-5,-6,-12,-13,-23,-37,-33,-16.1875,-16.1875,-16.1875,7.25,7.25,7.25,3.019373,3.809155,8.738305,6.856333,5.262884,1.874337,0.2473417,0.02070167,1.186426,0.08520369,0.0179708,1.214093,0.08140182,0.2608614,1.375201,0.2648284,0.03518614,1.211667,0.09929408,-0.01934935,1.253071,0.09277803,-0.1676878,1.404663,0.09259658,-0.4644047,1.39902,-0.03988112,0.008914177,1.315529,0.02250214,-0.4554206,1.351499,0.003521719,-0.2047185,1.257159,0.3411321,-0.05904121,1.18328,NA,NA,NotTracked,NotTracked,
0.6621094,-0.7080078,0.2324219,-0.1132813,0.5834961,0.5229492,15,11,-14,0,5,1,-9,15,-128,-19,2,-2,0,-14,-7,-31,-12.25,-12.25,-12.25,-69.6875,-69.6875,-69.6875,3.008296,3.80049,8.717505,6.733926,5.230215,1.953828,0.1405171,0.04873151,1.18146,0.05703912,0.03316361,1.205353,0.08094631,0.2640419,1.376781,0.1093471,0.05560333,1.1624,0.08821882,-0.0003010751,1.258286,0.09271441,-0.1667252,1.405587,0.09275547,-0.4643657,1.400091,-0.03976304,0.009330244,1.31562,0.02255145,-0.4552581,1.352423,0.00581592,-0.2052797,1.256659,0.3134849,-0.03962139,1.163733,NA,NA,NotTracked,NotTracked,
0.6582031,-0.6962891,0.2587891,0.1005859,0.2885742,0.4648438,3,-8,-21,1,-1,45,-23,-2,-76,-13,-10,-12,-13,23,-17,-25,-12.5,-12.5,-12.5,-150.5625,-150.5625,-150.5625,3.007423,3.802964,8.681171,6.509918,5.222895,2.035882,0.0248192,0.04881722,1.186219,0.03309717,0.04569338,1.185445,0.08160722,0.2668172,1.378543,-0.01788203,0.05950652,1.18125,0.02323137,0.01450138,1.195369,0.09409469,-0.1649647,1.40686,0.09385893,-0.4637078,1.401775,-0.03982783,0.009481479,1.315637,0.02334142,-0.4546184,1.353316,0.007813242,-0.2067169,1.256356,0.2794631,-0.0301965,1.154175,NA,NA,NotTracked,NotTracked,
0.6879883,-0.6557617,0.222168,0.3530273,0.7299805,0.6479492,-1,2,4,-6,-4,-42,13,9,13,-10,-4,1,0,16,-4,6,-9.8125,-9.8125,-9.8125,-111.9375,-111.9375,-111.9375,3.010432,3.801525,8.652932,6.356487,5.2132,2.116434,0.2020296,0.01763322,1.167456,-0.001424657,0.04643016,1.197046,0.08237255,0.2668156,1.37965,0.1997917,0.03628181,1.182846,-0.005158365,0.01294606,1.223687,0.09521425,-0.1638797,1.407644,0.09592938,-0.4619296,1.403944,-0.04015889,0.009538787,1.315038,0.02545551,-0.4532123,1.355054,0.003699754,-0.1973873,1.253153,0.2575837,-0.03348118,1.158714,NA,NA,NotTracked,NotTracked,
0.6894531,-0.659668,0.2783203,0.1303711,0.6992188,0.6772461,4,0,-39,2,1,1,16,8,76,-82,9,8,32,-34,18,-7,-1.5,-1.5,-1.5,-81.8125,-81.8125,-81.8125,3.023312,3.813516,8.621933,6.193182,5.163282,2.186871,0.1982331,0.002050436,1.178442,-0.01783569,0.03396994,1.204451,0.08244911,0.2666208,1.379455,0.1872561,0.01915113,1.196067,-0.0336969,0.005811946,1.21985,0.09626275,-0.1631007,1.407935,0.09783661,-0.4592742,1.405802,-0.04069864,0.009709408,1.313795,0.02770842,-0.4506499,1.357685,-0.0002761805,-0.1977774,1.251288,0.2472378,-0.04426815,1.163623,NA,NA,NotTracked,NotTracked,
0.6850586,-0.6621094,0.2543945,0.2006836,0.6074219,0.9174805,-14,-18,-38,3,7,-16,-1,-1,-24,14,12,-1,-1,-17,-6,40,9.4375,9.4375,9.4375,-60.25,-60.25,-60.25,3.043194,3.821373,8.6088,6.060067,5.000107,2.20889,0.1690819,-0.01646852,1.178818,-0.02204638,-0.008291459,1.224312,0.08189996,0.2652563,1.376464,0.1719942,0.001775084,1.2024,-0.04958135,-0.05730478,1.22925,0.0969116,-0.1626633,1.408204,0.09910616,-0.4570217,1.407534,-0.04125589,0.009552903,1.312701,0.02935577,-0.4485959,1.361334,-0.001082604,-0.1982794,1.251512,0.2362782,-0.05958548,1.170447,NA,NA,NotTracked,NotTracked,
0.6787109,-0.7270508,0.2607422,0.2592773,0.6923828,0.8710938,-41,-7,32,5,-6,-38,11,-2,-10,-14,-3,1,-5,0,-4,-4,13.375,13.375,13.375,-47.5625,-47.5625,-47.5625,3.070774,3.833087,8.598973,5.989686,4.888028,2.207278,0.177331,-0.02739329,1.182632,-0.02077336,-0.01951214,1.225793,0.07943887,0.2621381,1.368978,0.1481225,-0.01550354,1.2212,0.01195622,0.01035328,1.258961,0.0970093,-0.1623982,1.408216,0.09965886,-0.4549155,1.409409,-0.04171201,0.009637226,1.312563,0.03001745,-0.4465729,1.364918,6.431642E-05,-0.1990815,1.257255,0.2322358,-0.07091157,1.177198,NA,NA,NotTracked,NotTracked,
0.6391602,-0.6870117,0.3164063,0.2172852,0.5253906,0.8466797,21,17,97,2,-21,-23,2,13,16,4,9,1,12,-4,16,-18,13.625,13.625,13.625,-20.3125,-20.3125,-20.3125,3.11464,3.854235,8.582674,5.944268,4.768524,2.200289,0.1882754,-0.03835722,1.181593,0.003202838,-0.05574255,1.208089,0.07591621,0.2580666,1.360711,0.1676483,-0.02393984,1.1944,0.000305281,-0.110041,1.231073,0.09732606,-0.1621155,1.40772,0.1000177,-0.4537647,1.410644,-0.04226125,0.009840201,1.312491,0.03036089,-0.4457254,1.366749,0.0002681596,-0.1988061,1.257577,0.2325618,-0.07702538,1.179332,NA,NA,NotTracked,NotTracked,
0.6728516,-0.7084961,0.3076172,0.300293,0.519043,0.8583984,36,4,-24,-3,-3,-1,38,9,-30,11,8,13,11,6,38,1,17.9375,17.9375,17.9375,-9.8125,-9.8125,-9.8125,3.134523,3.860376,8.580354,5.928328,4.60013,2.172392,0.2238603,-0.03408709,1.200911,-0.01929814,-0.08539415,1.216811,0.07308458,0.2544371,1.353562,0.2171455,0.008819527,1.223104,-0.01709122,-0.1342055,1.22559,0.09787828,-0.1620946,1.406784,0.1002573,-0.4531629,1.411679,-0.04319245,0.01016557,1.312599,0.03053993,-0.4454088,1.36798,-0.0005830866,-0.1871666,1.219019,0.2345502,-0.08221803,1.180703,NA,NA,NotTracked,NotTracked,
0.6601563,-0.7416992,0.3022461,0.6621094,0.434082,0.8720703,31,8,27,-5,-8,18,-11,-27,-4,17,-7,-3,-4,-7,-43,-13,25.5625,25.5625,25.5625,10.6875,10.6875,10.6875,3.178977,3.876391,8.589764,5.948173,4.324861,2.142223,0.2548557,-0.004938405,1.224588,-0.002751322,-0.1216971,1.200742,0.07107726,0.2509873,1.348211,0.2352873,0.04585357,1.234308,-0.001945575,-0.1665867,1.219603,0.0983787,-0.1620991,1.405867,0.1005046,-0.4525075,1.412417,-0.04568781,0.009496323,1.311932,0.03079166,-0.4449805,1.368874,0.04191091,-0.1460377,1.175082,0.2383892,-0.08757158,1.183105,NA,NA,NotTracked,Closed,
0.6499023,-0.7734375,0.2827148,0.7666016,0.465332,0.9726563,-7,12,-8,-7,-10,-30,0,7,39,8,11,3,-11,-29,-18,5,16.1875,16.1875,16.1875,4.5625,4.5625,4.5625,3.200067,3.887644,8.598786,5.96852,4.193554,2.115742,0.214031,-0.07832379,1.179708,-0.01891262,-0.1426101,1.209082,0.06919709,0.2488377,1.34352,0.2174244,-0.02520249,1.207639,-0.002847192,-0.1930898,1.217654,0.09838559,-0.162788,1.403695,0.1006033,-0.4523887,1.412616,-0.04701429,0.008632616,1.311699,0.03085379,-0.4449653,1.369221,-0.01954412,-0.1979418,1.237437,0.2421128,-0.09774859,1.180243,NA,NA,NotTracked,NotTracked,
0.6933594,-0.7158203,0.3134766,0.487793,0.5356445,0.6660156,-4,3,-40,-15,-15,-7,68,-2,41,12,1,0,12,27,-38,3,-4.5625,-4.5625,-4.5625,-4,-4,-4,3.203541,3.899215,8.59553,5.955948,4.185308,2.093267,0.2087126,-0.09025896,1.177425,0.009780261,-0.1603178,1.194375,0.06720399,0.2477874,1.339113,0.2123091,-0.03826112,1.196269,0.02202401,-0.2042432,1.21587,0.09816889,-0.1633252,1.401355,0.1006327,-0.4523776,1.412712,-0.04847647,0.006432532,1.31048,0.03085823,-0.4450504,1.369507,-0.02704154,-0.2001872,1.234044,0.2440226,-0.1027367,1.180234,NA,NA,NotTracked,NotTracked,
0.6420898,-0.6860352,0.3359375,0.5898438,0.519043,0.6884766,-69,31,115,21,-4,-39,-30,-36,-3,-7,-14,-10,-2,-7,6,-26,0.6875,0.6875,0.6875,0.6875,0.6875,0.6875,3.202521,3.903774,8.596066,5.961502,4.17603,2.087631,0.2117417,-0.08929688,1.177729,-0.003124823,-0.1586549,1.198494,0.06573974,0.2469512,1.336177,0.2138658,-0.0358506,1.196937,0.01147764,-0.2014467,1.215824,0.09802371,-0.1636733,1.399573,0.1006533,-0.4523708,1.412723,-0.04846453,0.006413118,1.310456,0.03086393,-0.4450876,1.369615,-0.02433066,-0.1997321,1.233408,0.2438426,-0.1065968,1.18181,NA,NA,NotTracked,NotTracked,
0.644043,-0.7119141,0.3769531,0.5620117,0.4726563,0.7734375,-3,-13,-32,-15,-4,-21,37,25,26,6,2,3,-6,-10,8,1,0.625,0.625,0.625,5.125,5.125,5.125,3.206035,3.907048,8.593749,5.968207,4.17554,2.089858,0.2102703,-0.08968956,1.173118,0.005176863,-0.1583324,1.189839,0.06512649,0.2458603,1.334605,0.1958162,-0.05160001,1.16258,0.01372724,-0.1984537,1.21329,0.09799412,-0.1641278,1.398349,0.1006976,-0.4523657,1.412639,-0.04849464,0.006387282,1.31037,0.03086589,-0.4450991,1.369603,-0.02689882,-0.1974542,1.225362,0.2441941,-0.1077145,1.181283,NA,NA,NotTracked,NotTracked,
0.6367188,-0.7216797,0.3535156,0.5483398,0.4389648,0.7583008,21,-28,-70,6,3,2,-2,16,-27,-5,1,2,1,63,105,23,-6.875,-6.875,-6.875,2.0625,2.0625,2.0625,3.196596,3.910059,8.59659,5.97003,4.181025,2.084441,0.2351911,-0.06999419,1.184806,0.003895046,-0.1587348,1.189582,0.06436535,0.246397,1.333123,0.2408556,-0.006402286,1.194063,0.01235501,-0.1988176,1.211856,0.09759473,-0.1640598,1.396538,0.1006807,-0.4522964,1.412115,-0.0485386,0.006362782,1.310245,0.03081239,-0.4451085,1.369254,-0.005463212,-0.1827942,1.199214,0.2440162,-0.1077032,1.180651,NA,NA,NotTracked,NotTracked,
0.6479492,-0.690918,0.3339844,0.5273438,0.4853516,0.7456055,-46,-13,-60,-9,-2,-14,-26,7,6,-8,3,0,0,8,39,23,-2.25,-2.25,-2.25,-2.5,-2.5,-2.5,3.192225,3.908894,8.598217,5.968284,4.180493,2.083687,0.2211743,-0.08351018,1.176109,0.004955913,-0.1614505,1.190768,0.06406774,0.2467891,1.332677,0.2199073,-0.03487422,1.188143,0.01435822,-0.2028175,1.210858,0.09732102,-0.1639926,1.395678,0.1006377,-0.4522379,1.411685,-0.0485819,0.006353119,1.310064,0.03072396,-0.4451352,1.368893,-0.01626849,-0.1935415,1.218151,0.2431325,-0.1080018,1.180189,NA,NA,NotTracked,NotTracked,
0.6274414,-0.7119141,0.3413086,0.5263672,0.5029297,0.7280273,50,8,-1,-11,-25,-42,-50,-4,-51,13,-9,-3,-2,0,-17,-7,2.375,2.375,2.375,4.25,4.25,4.25,3.193249,3.909522,8.603519,5.972814,4.183565,2.081784,0.208729,-0.08991752,1.170534,0.007754819,-0.159557,1.187183,0.06377161,0.2474004,1.332183,0.2089639,-0.04083885,1.1855,0.01941215,-0.2030768,1.209613,0.09692867,-0.1637987,1.394695,0.1005521,-0.4521494,1.4108,-0.04862571,0.006370436,1.309942,0.0305959,-0.4451516,1.3681,-0.03181703,-0.1949404,1.216896,0.2421965,-0.1080406,1.179756,NA,NA,NotTracked,NotTracked,
0.644043,-0.7211914,0.3447266,0.515625,0.4853516,0.7392578,47,6,49,7,5,12,0,6,-21,19,-6,-4,-7,8,15,-6,-2.5,-2.5,-2.5,1.8125,1.8125,1.8125,3.188309,3.910197,8.611138,5.976765,4.190074,2.078854,0.2116819,-0.08613869,1.172247,0.005536004,-0.1563996,1.186169,0.06350382,0.2478631,1.332121,0.2106472,-0.03450883,1.1915,0.01357542,-0.2007791,1.20909,0.0967441,-0.1636457,1.394234,0.1004939,-0.4520335,1.410002,-0.04872782,0.006402175,1.309844,0.03052023,-0.4451053,1.367503,-0.02983809,-0.19332,1.213313,0.2417895,-0.1079882,1.179615,NA,NA,NotTracked,NotTracked,
0.6401367,-0.6918945,0.3417969,0.5239258,0.5,0.7285156,-29,10,24,1,7,-14,-2,-1,2,3,5,7,10,21,-12,-3,-2.875,-2.875,-2.875,5.125,5.125,5.125,3.178756,3.909577,8.6115,5.98661,4.191758,2.075514,0.2114776,-0.08653118,1.16973,-0.02121637,-0.1458542,1.194838,0.06329451,0.2482925,1.332252,0.1932682,-0.0495328,1.159909,-0.00161063,-0.1932344,1.207085,0.09653841,-0.1635573,1.393386,0.1003447,-0.4519076,1.40871,-0.04886771,0.006500438,1.309579,0.03036993,-0.4450285,1.366311,-0.02574511,-0.1952537,1.219251,0.240854,-0.1075949,1.178927,NA,NA,NotTracked,NotTracked,
0.6313477,-0.7143555,0.328125,0.4916992,0.4931641,0.706543,-34,-10,-12,2,-5,3,-13,-14,-2,-18,4,1,-2,-13,-16,19,-1,-1,-1,1.5625,1.5625,1.5625,3.175373,3.90886,8.615401,5.988707,4.195494,2.074795,0.2125531,-0.08452591,1.170536,-0.02222965,-0.1459193,1.194248,0.06285562,0.2493451,1.333047,0.1951826,-0.05027521,1.155793,-0.0009882671,-0.1941297,1.207624,0.09610476,-0.163322,1.392872,0.100167,-0.4516929,1.407913,-0.04899373,0.006594931,1.309503,0.03020967,-0.4448716,1.365728,-0.02408607,-0.1944435,1.217847,0.240023,-0.1073606,1.178531,NA,NA,NotTracked,NotTracked,
0.6274414,-0.7128906,0.340332,0.4511719,0.4912109,0.7338867,27,-18,-20,-10,2,-3,-30,-19,-6,-5,-5,-3,1,-7,-20,-6,-3.375,-3.375,-3.375,-3.125,-3.125,-3.125,3.170255,3.908244,8.617277,5.985023,4.198939,2.072196,0.2126799,-0.08429971,1.171182,-0.01965483,-0.1563974,1.195921,0.06266584,0.2499986,1.334079,0.2127692,-0.03495194,1.18682,-0.003850804,-0.2033556,1.208386,0.09571836,-0.1632401,1.392636,0.0998187,-0.4515508,1.407073,-0.04916506,0.006749297,1.309363,0.02987421,-0.4447302,1.364947,-0.02588232,-0.1932152,1.214509,0.2389652,-0.1069636,1.178074,NA,NA,NotTracked,NotTracked,
0.6430664,-0.7050781,0.3256836,0.4902344,0.5117188,0.7363281,16,0,-65,-19,-6,6,15,-8,15,18,-1,1,0,26,-2,13,0.0625,0.0625,0.0625,-0.9375,-0.9375,-0.9375,3.167565,3.907517,8.620161,5.985491,4.20567,2.066207,0.2074996,-0.0859575,1.168266,-0.01915177,-0.1598871,1.196693,0.06258447,0.2508509,1.335225,0.2086319,-0.03825371,1.172015,-0.004411159,-0.2102755,1.205472,0.09519205,-0.1631072,1.392407,0.09951781,-0.4514166,1.406271,-0.05186209,0.006276552,1.307383,0.0295692,-0.4445714,1.364121,-0.03052252,-0.1950178,1.215328,0.2384797,-0.106718,1.177879,NA,NA,NotTracked,NotTracked,
0.6308594,-0.722168,0.3330078,0.4555664,0.519043,0.703125,1,-15,-32,6,1,6,-2,19,-5,-5,-1,-1,-1,11,16,-2,0.0625,0.0625,0.0625,0.5,0.5,0.5,3.16574,3.905267,8.623765,5.989812,4.211613,2.059789,0.2094397,-0.08390694,1.170161,-0.02396748,-0.1428457,1.190932,0.06244143,0.2521418,1.336782,0.2108692,-0.03342385,1.189487,-0.001636112,-0.1898447,1.204365,0.09477703,-0.1627538,1.392188,0.09910475,-0.4510048,1.405423,-0.05181053,0.006506197,1.307363,0.02916299,-0.4441423,1.363313,-0.0279719,-0.1951281,1.216899,0.2376003,-0.1061363,1.177354,NA,NA,NotTracked,NotTracked,
