ALX,ALY,ALZ,ARX,ARY,ARZ,EMG0L,EMG1L,EMG2L,EMG3L,EMG4L,EMG5L,EMG6L,EMG7L,EMG0R,EMG1R,EMG2R,EMG3R,EMG4R,EMG5R,EMG6R,EMG7R,GLX,GLY,GLZ,GRX,GRY,GRZ,ORL,OPL,OYL,ORR,OPR,OYR,LHNX,LHNY,LHNZ,RHNX,RHNY,RHNZ,HX,HY,HZ,LTX,LTY,LTZ,RTX,RTY,RTZ,SpineMidX,SpineMidY,SpineMidZ,SpineBaseX,SpineBaseY,SpineBaseZ,ShoulderLeftX,ShoulderLeftY,ShoulderLeftZ,ShoulderRightX,ShoulderRightY,ShoulderRightZ,ElbowLeftX,ElbowLeftY,ElbowLeftZ,ElbowRightX,ElbowRightY,ElbowRightZ,Myo_Pose_left,Myo_Pose_Right,Kinect_pose_left,Kinect_pose_right
0.9570313,-0.2983398,0.06787109,0.9404297,0.1831055,0.2026367,-2,-1,-2,0,-2,0,2,2,-1,1,0,1,0,1,-2,0,1.5625,1.5625,1.5625,3.125,3.125,3.125,2.866557,2.992095,1.654716,6.127718,2.93033,9.54529,-0.1220809,-0.481895,1.321009,0.2369466,-0.504146,1.286462,0.09147528,0.2847475,1.435056,-0.08227535,-0.4740279,1.302777,0.2003554,-0.4940643,1.266251,0.07458957,-0.1644765,1.419611,0.06838278,-0.4721271,1.398334,-0.09079279,0.01571901,1.398057,-0.001965844,-0.4623275,1.366513,-0.1266152,-0.2405005,1.39039,0.2579422,-0.2410627,1.373535,NA,NA,NotTracked,NotTracked,
0.9526367,-0.2973633,0.06396484,0.9492188,0.1630859,0.1826172,-5,-2,-6,-2,-3,-3,1,-7,-4,-5,-1,-2,0,1,1,-1,-0.0625,-0.0625,-0.0625,0.75,0.75,0.75,2.865381,2.991559,1.65559,6.126138,2.927791,9.544886,-0.1226922,-0.481543,1.321279,0.2360442,-0.5023733,1.287316,0.09078228,0.2846317,1.435143,-0.08175613,-0.472584,1.306286,0.2006874,-0.4950956,1.265519,0.07419971,-0.1645404,1.419754,0.06807714,-0.47216,1.398294,-0.09143709,0.01553193,1.39841,-0.002245175,-0.4623983,1.366518,-0.1273187,-0.2406057,1.390795,0.2573873,-0.2412717,1.373773,NA,NA,NotTracked,NotTracked,
0.9443359,-0.3007813,0.07617188,0.9399414,0.1757813,0.2143555,-2,-1,0,-1,-2,-2,-1,-2,-8,-1,-1,-1,-2,-9,-2,-3,-0.3125,-0.3125,-0.3125,0.75,0.75,0.75,2.855827,2.994115,1.663142,6.112309,2.929667,9.556688,-0.1233069,-0.4809827,1.321369,0.2357239,-0.5023098,1.286696,0.09013784,0.2845713,1.435287,-0.08239847,-0.4745864,1.30436,0.1997102,-0.4944469,1.266202,0.07367539,-0.1645718,1.419898,0.06766845,-0.4721178,1.398309,-0.0920756,0.01550062,1.398835,-0.002607248,-0.4623919,1.366549,-0.1279965,-0.2406429,1.390921,0.2568548,-0.2413717,1.374129,NA,NA,NotTracked,NotTracked,
0.9516602,-0.2797852,0.06835938,0.9448242,0.1982422,0.2197266,-2,1,-1,-1,0,-3,5,2,-10,-8,-2,-2,-1,2,0,-1,0.75,0.75,0.75,3,3,3,2.851353,2.995816,1.670919,6.106062,2.940245,9.569327,-0.1237892,-0.4811388,1.320254,0.233726,-0.5013896,1.283937,0.08960935,0.2845259,1.435331,-0.08313631,-0.4763659,1.303154,0.1982484,-0.4928359,1.264218,0.07311777,-0.1646703,1.419886,0.06713765,-0.4721633,1.398188,-0.09259043,0.01544163,1.399035,-0.00310476,-0.4624872,1.366478,-0.1286064,-0.240619,1.391101,0.2561818,-0.2412052,1.374407,NA,NA,NotTracked,NotTracked,
0.953125,-0.2861328,0.07519531,0.9663086,0.1650391,0.2080078,-1,-2,-2,0,-1,-2,0,3,3,18,1,-16,-3,-26,-6,-2,0.625,0.625,0.625,-3.9375,-3.9375,-3.9375,2.849327,2.996024,1.672181,6.063967,2.963378,9.601475,-0.1247714,-0.4811346,1.320165,0.2318253,-0.4998382,1.280882,0.08912802,0.2844468,1.435368,-0.08309437,-0.4746622,1.304645,0.1952628,-0.4917904,1.262121,0.07258691,-0.1647569,1.41991,0.06639557,-0.4722351,1.398076,-0.09292901,0.01535102,1.399179,-0.003816137,-0.4626061,1.366389,-0.1289995,-0.2407066,1.391043,0.2556307,-0.2411202,1.374282,NA,NA,NotTracked,NotTracked,
0.949707,-0.2954102,0.08105469,1.080566,0.1445313,0.2504883,-1,-2,2,0,-1,-2,-4,-7,-9,-5,-1,-24,-3,-19,-10,-3,0.25,0.25,0.25,19.9375,19.9375,19.9375,2.852542,2.99585,1.669982,5.982379,3.01036,9.70948,-0.1246914,-0.4831029,1.319551,0.2270581,-0.4957591,1.2734,0.0886415,0.2843449,1.435371,-0.08309123,-0.4756418,1.303969,0.190411,-0.4873416,1.251135,0.0719918,-0.1648954,1.419982,0.06560437,-0.4722851,1.397924,-0.09358611,0.01512035,1.399445,-0.004582308,-0.4627382,1.366403,-0.129274,-0.2407306,1.391045,0.2551308,-0.2409918,1.374122,NA,NA,NotTracked,NotTracked,
0.9472656,-0.2880859,0.07080078,1.094727,0.2993164,0.4140625,-2,-3,-1,-1,-1,-3,-1,0,-1,-33,-3,23,-13,-81,-24,-4,1.1875,1.1875,1.1875,1,1,1,2.85997,2.996386,1.665228,5.863908,3.170412,9.861477,-0.1248569,-0.4828583,1.320591,0.2087938,-0.4769264,1.253747,0.08784413,0.2841445,1.435251,-0.08283772,-0.475087,1.304442,0.1792242,-0.458414,1.230987,0.07077315,-0.1649984,1.420042,0.06366667,-0.4721319,1.397534,-0.09384165,0.01499662,1.399661,-0.00652731,-0.4626105,1.36626,-0.129471,-0.2407835,1.391065,0.2545348,-0.2391167,1.37413,NA,NA,NotTracked,Unknown,
0.9375,-0.3041992,0.07421875,0.8842773,0.4311523,0.7050781,-1,-4,0,-2,-3,-1,4,-3,-29,-26,-4,-35,18,62,20,7,-2.4375,-2.4375,-2.4375,-29.375,-29.375,-29.375,2.8628,2.995843,1.660498,5.650158,3.591413,0.04918538,-0.1250937,-0.4835094,1.321874,0.1668786,-0.440675,1.21153,0.08685052,0.2836003,1.435004,-0.08371168,-0.4752365,1.304257,0.1493715,-0.4172457,1.191867,0.06931677,-0.165159,1.420141,0.05981581,-0.4717372,1.397121,-0.09428777,0.01490732,1.400032,-0.01057464,-0.4617259,1.366142,-0.1297019,-0.2408852,1.391117,0.2544902,-0.2330008,1.374966,NA,NA,NotTracked,Unknown,
0.9545898,-0.3051758,0.08007813,0.703125,0.2709961,0.8706055,-4,-5,-5,-2,-2,-3,-6,-10,15,-6,-16,-1,1,53,5,1,-8,-8,-8,-66,-66,-66,2.860669,2.9933,1.651324,5.491864,4.02607,0.1328488,-0.1245387,-0.4821477,1.322429,0.1309856,-0.3655175,1.185438,0.08568062,0.2828335,1.43422,-0.08467905,-0.4754381,1.303499,0.1298065,-0.3358714,1.151305,0.06880034,-0.1653901,1.420454,0.05941777,-0.4718518,1.397251,-0.09467429,0.01473505,1.400365,-0.01091604,-0.4616695,1.366336,-0.1298817,-0.2410622,1.391311,0.2545211,-0.2246373,1.372706,NA,NA,NotTracked,Lasso,
0.9550781,-0.3022461,0.06298828,0.3989258,0.206543,0.9423828,-1,-3,-3,-1,-2,0,-3,-3,11,3,37,25,1,9,4,3,-4,-4,-4,-39.375,-39.375,-39.375,2.855559,2.993633,1.64652,5.39599,4.51661,0.1739882,-0.1248365,-0.4827012,1.323455,0.1022675,-0.2681551,1.143213,0.08479062,0.281988,1.433315,-0.08394513,-0.4755428,1.304249,0.1128137,-0.2402703,1.118663,0.06872801,-0.1656798,1.421251,0.05983824,-0.4718226,1.39786,-0.09511765,0.01442896,1.401035,-0.0101753,-0.4616862,1.366964,-0.1299761,-0.2412895,1.391577,0.2515817,-0.2088161,1.362729,NA,NA,NotTracked,Unknown,
0.9682617,-0.2895508,0.06005859,0.04394531,0.2685547,0.9560547,-3,-4,1,0,1,-1,-5,-2,2,-17,-40,-49,-15,-47,7,8,-5.8125,-5.8125,-5.8125,15.4375,15.4375,15.4375,2.8487,2.995875,1.645104,5.404861,5.191532,0.2259819,-0.1244568,-0.4815637,1.320846,0.09587026,-0.1570645,1.137641,0.0838294,0.2801372,1.431616,-0.08426487,-0.475002,1.302501,0.1153961,-0.1369856,1.102517,0.06860854,-0.1660013,1.422011,0.06025252,-0.4715141,1.398413,-0.09499805,0.01410239,1.401475,-0.009552452,-0.4614975,1.367751,-0.1299173,-0.241654,1.391614,0.2449751,-0.2050986,1.327844,NA,NA,NotTracked,Unknown,
0.9423828,-0.293457,0.06445313,-0.3691406,0.2573242,0.8989258,-1,4,2,-2,-2,0,-5,-2,53,21,41,17,-2,-18,-13,4,1.4375,1.4375,1.4375,35.5625,35.5625,35.5625,2.848084,3.011195,1.643309,5.465774,5.688878,0.2734357,-0.1248341,-0.4809787,1.320221,0.1056278,-0.05042337,1.154755,0.08320529,0.276518,1.430959,-0.0846469,-0.475064,1.301215,0.1229998,-0.02975361,1.114613,0.06920923,-0.1669414,1.423769,0.06060259,-0.4714806,1.399181,-0.09483823,0.01363088,1.402784,-0.009036261,-0.4619307,1.368872,-0.1299092,-0.241749,1.391656,0.2611579,-0.2031756,1.298301,NA,NA,NotTracked,Unknown,
0.9365234,-0.2973633,0.06298828,-0.5463867,0.2270508,0.6713867,-1,-10,1,0,-2,-1,5,1,-118,-29,7,-17,10,2,-6,-16,2.5,2.5,2.5,56.3125,56.3125,56.3125,2.847193,3.013854,1.645113,5.600041,6.158476,0.3485066,-0.1251578,-0.4815391,1.320944,0.1246994,0.04395664,1.186157,0.08179252,0.2738761,1.429426,-0.084332,-0.4746904,1.302468,0.1470659,0.06723552,1.172825,0.06862781,-0.1687698,1.424892,0.06060491,-0.4734913,1.400031,-0.09602659,0.01370383,1.40546,-0.009313625,-0.4659341,1.373826,-0.1297897,-0.2425432,1.392052,0.2326977,-0.1838146,1.266255,NA,NA,NotTracked,Unknown,
0.9487305,-0.2944336,0.07617188,-0.7675781,0.2333984,0.4379883,-1,-4,-6,-2,-1,-1,-8,-3,48,4,-4,-6,9,22,10,6,0.875,0.875,0.875,70.8125,70.8125,70.8125,2.844717,3.01575,1.660253,5.836321,6.550714,0.5187733,-0.1246367,-0.4822626,1.322746,0.1512548,0.0873477,1.229297,0.07913937,0.2730956,1.427398,-0.0844651,-0.4761083,1.30233,0.1809635,0.1102637,1.214766,0.06870326,-0.1690648,1.425277,0.06045858,-0.4740711,1.400599,-0.09698793,0.01401874,1.407777,-0.009795224,-0.4667288,1.376677,-0.1297253,-0.2427867,1.39263,0.2350026,-0.1819887,1.260466,NA,NA,NotTracked,Unknown,
0.9443359,-0.3007813,0.07666016,-0.7753906,0.2075195,0.2919922,-1,7,-1,0,0,-1,2,1,-6,-16,10,18,-36,-49,-1,-5,1.125,1.125,1.125,35.5,35.5,35.5,2.840682,3.006378,1.666064,6.236073,6.841327,0.8538515,-0.1253188,-0.4831929,1.326839,0.1648342,0.1026441,1.255877,0.0768968,0.2721239,1.424426,-0.08549762,-0.474316,1.306904,0.2039377,0.117481,1.254,0.06942868,-0.1686204,1.426032,0.06046717,-0.4736198,1.401372,-0.09686881,0.01407723,1.408607,-0.009875684,-0.465915,1.378283,-0.1295501,-0.2423783,1.393737,0.2366984,-0.1716798,1.247443,NA,NA,NotTracked,Unknown,
0.9521484,-0.3129883,0.07519531,-0.7900391,0.2192383,0.3085938,1,-2,-1,-2,-1,-1,4,4,-4,55,70,-16,-14,-8,-7,-5,-1.5625,-1.5625,-1.5625,10.25,10.25,10.25,2.835094,2.989816,1.670182,6.372174,6.906904,0.9857051,-0.1239344,-0.4829872,1.331013,0.1677857,0.1101313,1.26583,0.07595055,0.2722284,1.42181,-0.08620119,-0.4763337,1.311971,0.2037162,0.1279472,1.265905,0.07013864,-0.1678752,1.426549,0.06057593,-0.4730546,1.402191,-0.09644873,0.01390697,1.409279,-0.0097559,-0.4651015,1.379488,-0.129522,-0.2410369,1.396086,0.2375211,-0.1651498,1.239359,NA,NA,NotTracked,Unknown,
0.9428711,-0.3251953,0.06738281,-0.96875,0.2666016,0.2275391,-1,-3,7,0,-1,-3,-5,-7,-90,11,12,-3,0,-28,0,12,1.1875,1.1875,1.1875,-13.9375,-13.9375,-13.9375,2.833489,2.983587,1.672703,6.404041,6.941035,1.033691,-0.1237583,-0.4839456,1.333063,0.1676655,0.1140299,1.26948,0.07521635,0.2721143,1.419677,-0.08606397,-0.4780549,1.311647,0.2025813,0.1298048,1.2682,0.07075374,-0.1673383,1.426935,0.06063423,-0.4725702,1.402972,-0.09634182,0.01372032,1.410264,-0.009654747,-0.4645735,1.380532,-0.1290272,-0.2407577,1.397802,0.2365006,-0.1625439,1.236733,NA,NA,NotTracked,NotTracked,
0.9545898,-0.3183594,0.06494141,-0.953125,0.2861328,0.2353516,1,2,1,0,-1,1,5,5,-14,-9,1,23,1,-6,-2,1,-0.3125,-0.3125,-0.3125,-9.25,-9.25,-9.25,2.83286,2.983215,1.673968,6.385472,6.96286,1.0307,-0.1241947,-0.4838383,1.333388,0.1667682,0.1152556,1.271181,0.07523844,0.2711688,1.417912,-0.0857566,-0.4777329,1.311721,0.1811766,0.1365809,1.244609,0.07130168,-0.1670578,1.427164,0.06075874,-0.472311,1.403581,-0.09612398,0.01375074,1.410589,-0.009509726,-0.4643006,1.381218,-0.1288271,-0.2401733,1.399014,0.233803,-0.1605426,1.234033,NA,NA,NotTracked,NotTracked,
0.953125,-0.2910156,0.05615234,-0.9580078,0.2680664,0.2841797,-2,2,5,-1,-4,-1,2,1,-25,-35,-11,-21,-14,-9,-2,-12,-1.6875,-1.6875,-1.6875,-10.875,-10.875,-10.875,2.831274,2.984764,1.672889,6.438956,6.981605,1.11976,-0.1235576,-0.4833337,1.332541,0.164981,0.1170171,1.273808,0.07599048,0.269878,1.416021,-0.08522895,-0.4763872,1.309724,0.2011912,0.1336747,1.278227,0.07168064,-0.1670776,1.427465,0.06103369,-0.4721248,1.403993,-0.09591176,0.01361369,1.410893,-0.009127566,-0.4641073,1.38194,-0.1286476,-0.2400177,1.399522,0.2303896,-0.1587548,1.232285,NA,NA,NotTracked,NotTracked,
0.9477539,-0.2915039,0.06005859,-0.9785156,0.2602539,0.2133789,-1,-6,-8,-1,-1,-3,-4,-3,0,-8,-22,-26,24,-28,1,-33,-4.4375,-4.4375,-4.4375,-14,-14,-14,2.81823,2.985929,1.678165,6.716026,7.022786,1.447761,-0.1238226,-0.4838029,1.332074,0.1621366,0.1219327,1.282996,0.07731881,0.2684373,1.413978,-0.08470295,-0.4753039,1.311027,0.2077935,0.1218635,1.3005,0.07214725,-0.1671857,1.427707,0.06138756,-0.4720588,1.404557,-0.09561127,0.01357638,1.411011,-0.00871688,-0.464041,1.38275,-0.128446,-0.2398793,1.399727,0.2265206,-0.1553925,1.229439,NA,NA,NotTracked,NotTracked,
0.9594727,-0.2905273,0.06152344,-0.8911133,0.3198242,0.04541016,-2,-7,-6,-3,0,0,0,-2,12,12,68,17,-42,-24,-10,15,-1.625,-1.625,-1.625,-9.3125,-9.3125,-9.3125,2.803228,2.986069,1.690954,7.054144,7.041309,1.825576,-0.1236016,-0.4829356,1.332267,0.1518243,0.1525447,1.305141,0.07884528,0.2674988,1.412344,-0.08468769,-0.4753105,1.310828,0.1121978,0.2269859,1.2924,0.07276237,-0.1671329,1.42728,0.06164259,-0.4720228,1.40508,-0.09491733,0.01363783,1.41107,-0.008450427,-0.4639662,1.383527,-0.1283548,-0.2396249,1.399905,0.223826,-0.1534405,1.227957,NA,NA,NotTracked,NotTracked,
0.9516602,-0.2739258,0.04931641,-0.8847656,0.2470703,0.1870117,-1,-1,-5,-1,-2,-2,-5,-5,-25,-46,7,-2,-2,7,5,-2,-2,-2,-2,-4.8125,-4.8125,-4.8125,2.798941,2.984402,1.693875,6.929629,7.031234,1.705939,-0.1236323,-0.4836639,1.331872,0.1593419,0.1243074,1.293836,0.08080264,0.2664481,1.410675,-0.0845437,-0.4762945,1.309748,0.131948,0.1127097,1.272334,0.07339797,-0.1672916,1.426574,0.06184889,-0.4720868,1.40535,-0.09432817,0.01385605,1.41113,-0.008168424,-0.4640052,1.384206,-0.1281684,-0.2395201,1.399848,0.2212562,-0.1518969,1.225856,NA,NA,NotTracked,NotTracked,
0.9511719,-0.2871094,0.05761719,-0.9868164,0.2954102,0.09765625,0,-1,-3,-2,-2,-1,-3,-1,9,-7,-31,0,-25,-39,-6,22,2.75,2.75,2.75,-2.4375,-2.4375,-2.4375,2.778708,2.979025,1.710269,6.79892,7.037412,1.568586,-0.1233978,-0.4830599,1.331593,0.1634234,0.1102042,1.288109,0.08201195,0.266222,1.409613,-0.08476631,-0.4761792,1.30995,0.1622996,0.0615497,1.3295,0.07386531,-0.1673391,1.426037,0.06197605,-0.4721248,1.40554,-0.09372515,0.01398099,1.411029,-0.008030477,-0.4640202,1.384607,-0.1278066,-0.2394668,1.400071,0.219486,-0.1508018,1.224972,NA,NA,NotTracked,NotTracked,
0.9526367,-0.2871094,0.05126953,-0.934082,0.2651367,0.2128906,-1,1,-2,1,1,-1,0,-2,-1,-25,6,-4,2,0,-1,8,0.5625,0.5625,0.5625,5.1875,5.1875,5.1875,2.771966,2.9757,1.720126,6.572051,7.012844,1.328034,-0.1236419,-0.4838755,1.333322,0.1645058,0.112229,1.284423,0.08313853,0.2659486,1.408952,-0.08454137,-0.4766622,1.31128,0.1542618,0.08007452,1.325833,0.07442569,-0.1672898,1.425681,0.06217158,-0.4721738,1.405792,-0.0929329,0.01419994,1.41099,-0.007833959,-0.4640676,1.38506,-0.1274728,-0.2396713,1.400194,0.2185266,-0.1505613,1.224663,NA,NA,NotTracked,NotTracked,
0.9487305,-0.2958984,0.0546875,-0.9995117,0.234375,0.2138672,1,0,2,0,0,-2,-1,0,6,-19,-15,-26,-16,-16,-12,-17,3.5625,3.5625,3.5625,3.5625,3.5625,3.5625,2.771438,2.977332,1.726387,6.384706,6.99453,1.121399,-0.1236014,-0.4838934,1.333546,0.166094,0.1071162,1.274469,0.08411615,0.2656277,1.408458,-0.08448313,-0.4759779,1.311629,0.1424897,0.07941666,1.305667,0.07472777,-0.1675267,1.426077,0.0623506,-0.4722945,1.405999,-0.0919856,0.01433695,1.411173,-0.00772813,-0.4641386,1.385234,-0.1271637,-0.2395225,1.400563,0.2180713,-0.150428,1.224563,NA,NA,NotTracked,NotTracked,
0.9453125,-0.2973633,0.06347656,-0.9975586,0.1962891,0.2666016,-3,-6,-2,-2,-3,0,-2,-3,-5,-6,-11,-16,-10,-45,-18,-9,2.3125,2.3125,2.3125,1.875,1.875,1.875,2.7725,2.978511,1.728999,6.248402,6.979439,0.9772574,-0.1231874,-0.4838177,1.333261,0.1522635,0.1496872,1.283925,0.08499838,0.2655142,1.408079,-0.08408995,-0.4774442,1.311419,0.09351312,0.141271,1.3144,0.07507118,-0.1676232,1.42634,0.06259498,-0.4723045,1.406111,-0.09095187,0.01448843,1.41113,-0.007512561,-0.4641264,1.38539,-0.1270244,-0.2393612,1.400752,0.2177977,-0.1503672,1.224689,NA,NA,NotTracked,NotTracked,
0.9584961,-0.2944336,0.05175781,-1.008789,0.2202148,0.2631836,-1,-3,-6,-1,0,-1,-5,-4,20,-36,-30,-14,3,-37,-21,-45,0,0,0,-5.0625,-5.0625,-5.0625,2.76635,2.980264,1.738721,6.23384,6.985959,0.9709061,-0.123043,-0.4834234,1.333226,0.1537922,0.1462381,1.282525,0.08577417,0.2654071,1.407992,-0.08416189,-0.4766287,1.312003,0.1081199,0.1242902,1.307667,0.07535129,-0.1677599,1.426534,0.06287597,-0.4724001,1.406164,-0.09030299,0.01451957,1.411214,-0.007315448,-0.4641675,1.385439,-0.1267142,-0.2394693,1.400868,0.2172837,-0.1498156,1.22449,NA,NA,NotTracked,NotTracked,
0.9467773,-0.2910156,0.05566406,-1.098633,0.2758789,0.2480469,-2,0,-5,-1,-1,-4,-12,-9,6,61,84,32,8,-64,10,19,3.3125,3.3125,3.3125,-9.5625,-9.5625,-9.5625,2.764197,2.982503,1.742973,6.46968,7.020267,1.237484,-0.1233285,-0.4830644,1.332096,0.1575952,0.1317027,1.283682,0.08681066,0.265361,1.407887,-0.083969,-0.4761773,1.311896,0.1350805,0.1167169,1.253914,0.07565621,-0.1678945,1.426574,0.06327315,-0.472535,1.405972,-0.08960405,0.01457672,1.411162,-0.0069812,-0.4642411,1.385299,-0.1263953,-0.2394726,1.400817,0.2168858,-0.1495281,1.224206,NA,NA,NotTracked,NotTracked,
0.953125,-0.2807617,0.06005859,-0.9086914,0.2895508,0.04345703,-2,-9,-8,-2,-3,-2,-2,-5,-62,4,7,-28,-44,-104,-27,52,1.5,1.5,1.5,-11.9375,-11.9375,-11.9375,2.761947,2.983714,1.750708,6.979982,7.060012,1.790507,-0.1230582,-0.4838567,1.332444,0.1522305,0.1486922,1.304804,0.08794947,0.2653407,1.408088,-0.08409056,-0.4767849,1.311403,0.1079683,0.1414396,1.327875,0.07629884,-0.1680993,1.425929,0.0635697,-0.472626,1.40583,-0.08943265,0.01459199,1.411171,-0.006722135,-0.4642965,1.385351,-0.1256673,-0.2397769,1.400795,0.214939,-0.1481895,1.222478,NA,NA,NotTracked,NotTracked,
0.9580078,-0.2641602,0.04052734,-0.9101563,0.265625,0.2270508,-1,-2,-2,-1,0,-2,2,1,7,21,15,26,9,8,-1,-4,6.75,6.75,6.75,8.0625,8.0625,8.0625,2.745131,2.975695,1.777282,6.903301,7.057074,1.705873,-0.1226724,-0.4846589,1.335284,0.1516946,0.1494538,1.304704,0.08927673,0.2654404,1.408487,-0.08368307,-0.4768884,1.316434,0.1120316,0.1406039,1.3388,0.07682292,-0.1682557,1.425234,0.06378799,-0.4727312,1.405624,-0.08925509,0.01456791,1.411158,-0.006486813,-0.4643549,1.385277,-0.1251372,-0.2400214,1.400661,0.2131211,-0.1472669,1.221355,NA,NA,NotTracked,NotTracked,
0.9770508,-0.2856445,0.01123047,-1.030273,0.2646484,0.03759766,-2,-4,-13,-1,-1,-1,5,1,-13,12,-5,7,-11,-15,-2,8,9.1875,9.1875,9.1875,14.4375,14.4375,14.4375,2.683478,2.952764,1.854435,6.9754,7.079182,1.755493,-0.122642,-0.4857112,1.337885,0.1552458,0.1496924,1.304933,0.0901916,0.2657148,1.409098,-0.08459532,-0.4802099,1.317802,0.1049659,0.1841156,1.295955,0.07728925,-0.1682382,1.42463,0.06398893,-0.4728449,1.405317,-0.08909123,0.01451635,1.411124,-0.006309901,-0.4644062,1.385116,-0.1240812,-0.2409461,1.400493,0.2120413,-0.1467787,1.220046,NA,NA,NotTracked,NotTracked,
0.9873047,-0.2851563,0.02490234,-0.9213867,0.2495117,0.1303711,-1,1,1,-2,-2,0,-2,-2,11,-31,-21,-42,-11,19,-1,-8,6.375,6.375,6.375,14.5625,14.5625,14.5625,2.675977,2.950604,1.86647,6.780547,7.074374,1.522217,-0.1233217,-0.4862534,1.340331,0.1577155,0.1494724,1.302327,0.09093927,0.2659849,1.409816,-0.08348768,-0.4713836,1.327185,0.1077927,0.1388503,1.315246,0.07790793,-0.1681961,1.424358,0.06424294,-0.4729877,1.405065,-0.08798903,0.01417973,1.411283,-0.006110397,-0.4644972,1.385055,-0.1236241,-0.2412673,1.400777,0.2118924,-0.1468046,1.219322,NA,NA,NotTracked,NotTracked,
0.9580078,-0.3051758,0.02783203,-1.003418,0.1948242,0.1625977,-1,1,2,-1,-1,-1,0,-1,18,-31,-52,-37,-20,-12,-11,-29,2.125,2.125,2.125,10.3125,10.3125,10.3125,2.661417,2.947422,1.8852,6.578589,7.062242,1.299453,-0.1244083,-0.4865452,1.340865,0.1597433,0.1482043,1.294977,0.0916471,0.2662052,1.410523,-0.08516578,-0.480343,1.321857,0.0995793,0.1425808,1.314381,0.07844312,-0.1680286,1.424114,0.06453156,-0.4730452,1.404794,-0.08706387,0.01400675,1.411414,-0.005812992,-0.4645062,1.384913,-0.1234351,-0.2414263,1.400938,0.2113851,-0.1449583,1.217023,NA,NA,NotTracked,NotTracked,
0.9575195,-0.2773438,0.03027344,-0.9604492,0.2089844,0.1918945,-2,0,0,-2,-2,-1,0,-3,-3,12,15,7,6,7,5,8,1.875,1.875,1.875,-2.9375,-2.9375,-2.9375,2.623534,2.948718,1.930046,6.351183,7.040688,1.057574,-0.1258291,-0.4868105,1.340573,0.1617835,0.1454477,1.284403,0.09192833,0.2664541,1.410864,-0.08474046,-0.4767603,1.323336,0.1366124,0.1257842,1.264975,0.07856376,-0.167995,1.42419,0.06465713,-0.4731069,1.404509,-0.0866404,0.01391084,1.411463,-0.005673309,-0.464554,1.384568,-0.1233093,-0.2415343,1.401025,0.2115817,-0.1438221,1.215716,NA,NA,NotTracked,NotTracked,
0.965332,-0.2661133,0.02050781,-0.9970703,0.2255859,0.2250977,-2,-2,2,0,1,-1,-2,-4,10,10,1,-22,-20,-49,-5,3,-2.3125,-2.3125,-2.3125,0.0625,0.0625,0.0625,2.613471,2.947377,1.939236,6.182445,7.020001,0.8707606,-0.1267859,-0.4872623,1.341049,0.1650515,0.1423678,1.276222,0.09225927,0.2666377,1.411289,-0.08513422,-0.482176,1.32544,0.1423917,0.115264,1.252952,0.07858022,-0.1680444,1.424478,0.06477425,-0.4730665,1.404289,-0.08663352,0.01392901,1.411424,-0.005556708,-0.4644789,1.384376,-0.1232304,-0.2415757,1.400985,0.2115116,-0.1433052,1.21518,NA,NA,NotTracked,NotTracked,
0.9599609,-0.2661133,0.01904297,-0.9970703,0.1645508,0.2822266,0,0,-1,-1,-2,0,-5,0,-17,-27,3,-4,12,-41,-5,-8,-0.75,-0.75,-0.75,-1.375,-1.375,-1.375,2.612599,2.946976,1.937745,6.078743,7.009267,0.7599358,-0.1259574,-0.4873894,1.3417,0.1669434,0.1408185,1.272329,0.09249887,0.2667383,1.411478,-0.08643561,-0.4805481,1.323264,0.1448505,0.1107569,1.24858,0.07860912,-0.1680939,1.424806,0.06487535,-0.4730715,1.404214,-0.086616,0.01394547,1.411417,-0.005466587,-0.4644426,1.384295,-0.1231876,-0.2415836,1.401081,0.2113842,-0.1432972,1.214652,NA,NA,NotTracked,NotTracked,
0.9624023,-0.2631836,0.01953125,-1.085449,0.1791992,0.2470703,-2,-3,-1,-1,-2,-2,-4,-5,-13,10,32,-10,0,-1,-11,-3,-1.875,-1.875,-1.875,-4.1875,-4.1875,-4.1875,2.610959,2.945486,1.937567,6.210843,7.036461,0.9086829,-0.1266844,-0.4873691,1.341246,0.165367,0.1403922,1.275943,0.09281503,0.2667703,1.411541,-0.08602858,-0.4823427,1.322915,0.1410602,0.1227238,1.247272,0.07869463,-0.1680841,1.424896,0.06490877,-0.4731135,1.404146,-0.08603692,0.01398412,1.411422,-0.005410794,-0.4644306,1.384207,-0.123135,-0.2415836,1.401114,0.2111927,-0.1430048,1.214227,NA,NA,NotTracked,NotTracked,
0.9628906,-0.2700195,0.02441406,-1.084961,0.2329102,0.1547852,-2,-2,-6,-2,-2,1,2,3,8,12,64,17,14,-3,14,8,-2.0625,-2.0625,-2.0625,-28.25,-28.25,-28.25,2.611495,2.94299,1.935,6.735112,7.099556,1.485208,-0.1265659,-0.4871594,1.342229,0.1633453,0.1382898,1.292017,0.09316533,0.2667347,1.411226,-0.08631666,-0.4838886,1.323716,0.1352097,0.1302608,1.269091,0.07867759,-0.1681305,1.424963,0.06491923,-0.4731294,1.404065,-0.08570713,0.01399724,1.411371,-0.005395751,-0.4644338,1.384151,-0.1231512,-0.2416508,1.401105,0.210189,-0.1418685,1.212999,NA,NA,NotTracked,NotTracked,
0.9619141,-0.2734375,0.006835938,-0.8862305,0.3227539,0.09179688,-1,-2,-7,-1,-2,-2,-5,-2,-55,-56,-15,-3,36,-1,-4,-35,-1.1875,-1.1875,-1.1875,-26.875,-26.875,-26.875,2.596749,2.937721,1.94645,7.042611,7.096392,1.836622,-0.1263706,-0.4872581,1.343094,0.1509571,0.1616747,1.306721,0.0936096,0.2666682,1.41098,-0.08637358,-0.4832645,1.323728,0.1073203,0.1440686,1.319467,0.07880326,-0.1682873,1.424721,0.0649357,-0.4731719,1.404005,-0.08518708,0.01397651,1.411187,-0.005373087,-0.46446,1.384139,-0.1231711,-0.241694,1.401122,0.2082248,-0.1403627,1.211263,NA,NA,NotTracked,NotTracked,
0.9550781,-0.277832,0.004394531,-0.9741211,0.2036133,0.1123047,-1,-2,-3,-1,-1,-1,2,2,-21,4,11,-4,-14,-33,-1,-3,1.1875,1.1875,1.1875,5,5,5,2.572152,2.936004,1.965134,6.99095,7.104393,1.777283,-0.1278072,-0.4874363,1.343255,0.1562953,0.1492563,1.299975,0.09382782,0.2666465,1.410629,-0.08645335,-0.4831497,1.32495,0.110356,0.133705,1.308923,0.07899975,-0.1683321,1.424171,0.06491645,-0.4731904,1.403943,-0.0851552,0.01402884,1.411109,-0.005381265,-0.4644722,1.384132,-0.1232434,-0.2418714,1.401144,0.2065614,-0.1389937,1.210032,NA,NA,NotTracked,NotTracked,
0.9638672,-0.2700195,0.02441406,-1.022461,0.2363281,0.06738281,0,0,-2,-2,-1,0,5,3,2,7,-12,-44,-28,-26,2,-15,2.4375,2.4375,2.4375,-3.5625,-3.5625,-3.5625,2.574627,2.937186,1.967355,7.027745,7.108355,1.816126,-0.1280548,-0.4870523,1.34384,0.1552504,0.1512179,1.301977,0.0939021,0.2666683,1.410461,-0.08673682,-0.4828766,1.324925,0.1106718,0.1384826,1.31805,0.07908418,-0.1683488,1.423878,0.06491215,-0.473187,1.403941,-0.08520707,0.01409299,1.411115,-0.005373207,-0.4644705,1.384166,-0.123399,-0.24178,1.401204,0.2062212,-0.1391592,1.210145,NA,NA,NotTracked,NotTracked,
0.9545898,-0.2592773,0.01953125,-0.9873047,0.2470703,0.0703125,-2,2,-2,1,0,1,-1,-4,5,54,20,-5,-5,13,17,27,-1.9375,-1.9375,-1.9375,0.25,0.25,0.25,2.574325,2.935483,1.967137,7.019433,7.102866,1.806898,-0.1282694,-0.4869741,1.34365,0.1559904,0.1491284,1.300835,0.09394051,0.2666432,1.410278,-0.08690333,-0.4837393,1.325269,0.1046658,0.1689052,1.297494,0.07889819,-0.1684833,1.424077,0.06486697,-0.473211,1.403857,-0.08531898,0.01417228,1.411052,-0.005384854,-0.464499,1.384146,-0.1233859,-0.241896,1.401213,0.2055911,-0.1392361,1.209916,NA,NA,NotTracked,NotTracked,
0.9594727,-0.2661133,0.01416016,-0.9848633,0.2299805,0.1123047,0,-2,-1,-1,-1,0,3,2,3,13,20,29,38,4,13,3,1.875,1.875,1.875,1,1,1,2.577314,2.93473,1.961077,6.981798,7.095126,1.770363,-0.1288849,-0.4871877,1.344126,0.1548757,0.1542154,1.302763,0.09390499,0.2666585,1.410052,-0.08680487,-0.4838041,1.325384,0.1128454,0.1427201,1.322459,0.0789874,-0.1684969,1.42363,0.06484146,-0.4732228,1.40375,-0.08532257,0.0141826,1.410964,-0.005395711,-0.4645159,1.384096,-0.1234128,-0.241962,1.401167,0.2051713,-0.1391884,1.209901,NA,NA,NotTracked,NotTracked,
0.9550781,-0.277832,0.01318359,-0.9824219,0.2324219,0.0859375,0,0,0,-1,1,-1,0,2,-23,-29,9,-10,13,2,-3,-1,-1.375,-1.375,-1.375,3.25,3.25,3.25,2.590193,2.937208,1.948112,6.983804,7.094722,1.766869,-0.1281377,-0.485592,1.344398,0.1676448,0.1015923,1.283617,0.09390125,0.2666566,1.410028,-0.08685845,-0.4828606,1.324073,0.1318962,0.1296527,1.276806,0.07891797,-0.1685612,1.423669,0.06483594,-0.4732362,1.403713,-0.08533169,0.01416575,1.410968,-0.005393869,-0.4645271,1.384088,-0.1235919,-0.2420292,1.401237,0.2040318,-0.1380168,1.208712,NA,NA,NotTracked,NotTracked,
0.9599609,-0.2714844,0.01855469,-0.9692383,0.2578125,0.09960938,1,0,-3,-1,-2,-1,0,2,0,-14,-12,-19,-5,-39,-11,-13,1.4375,1.4375,1.4375,0.0625,0.0625,0.0625,2.602926,2.940899,1.937203,6.964101,7.092713,1.749051,-0.1282784,-0.4853837,1.343739,0.1555179,0.1510917,1.302452,0.09387745,0.2666695,1.410069,-0.08685718,-0.4808019,1.325199,0.114613,0.135607,1.3265,0.07886458,-0.1685676,1.423774,0.06483679,-0.4732565,1.40371,-0.08538115,0.01416787,1.41103,-0.005384051,-0.4645512,1.384079,-0.1236337,-0.2422697,1.401381,0.2033001,-0.1369143,1.207645,NA,NA,NotTracked,NotTracked,
