ALX,ALY,ALZ,ARX,ARY,ARZ,EMG0L,EMG1L,EMG2L,EMG3L,EMG4L,EMG5L,EMG6L,EMG7L,EMG0R,EMG1R,EMG2R,EMG3R,EMG4R,EMG5R,EMG6R,EMG7R,GLX,GLY,GLZ,GRX,GRY,GRZ,ORL,OPL,OYL,ORR,OPR,OYR,LHNX,LHNY,LHNZ,RHNX,RHNY,RHNZ,HX,HY,HZ,LTX,LTY,LTZ,RTX,RTY,RTZ,SpineMidX,SpineMidY,SpineMidZ,SpineBaseX,SpineBaseY,SpineBaseZ,ShoulderLeftX,ShoulderLeftY,ShoulderLeftZ,ShoulderRightX,ShoulderRightY,ShoulderRightZ,ElbowLeftX,ElbowLeftY,ElbowLeftZ,ElbowRightX,ElbowRightY,ElbowRightZ,Myo_Pose_left,Myo_Pose_Right,Kinect_pose_left,Kinect_pose_right
0.9345703,-0.3295898,0.1074219,0.9448242,0.2563477,0.1416016,0,-2,0,1,0,-1,0,-2,-1,4,2,0,-3,-7,-1,-1,-1,-1,-1,-0.5625,-0.5625,-0.5625,3.067531,3.072519,4.465815,6.918527,2.974946,1.06261,-0.08975271,-0.4273183,1.632259,0.2923963,-0.4366179,1.608611,0.1316872,0.4040307,1.704534,-0.13305,-0.4316172,1.635,0.3289502,-0.4071779,1.6132,0.1147782,-0.06479327,1.713272,0.1029215,-0.3931454,1.6966,-0.05934683,0.1333153,1.705714,0.01703921,-0.3838229,1.665747,-0.1001697,-0.1418501,1.724695,0.3331724,-0.1297897,1.687567,NA,NA,NotTracked,NotTracked,
0.934082,-0.331543,0.1152344,0.9223633,0.2529297,0.1186523,-1,-1,4,0,-2,0,-1,2,-3,-1,-1,-6,-4,-4,4,-2,-1.0625,-1.0625,-1.0625,-20.8125,-20.8125,-20.8125,3.06578,3.071926,4.466389,6.926201,2.972825,1.026763,-0.08996564,-0.4264318,1.632192,0.2924964,-0.4376301,1.608792,0.1317252,0.4040017,1.704482,-0.1322594,-0.4172131,1.638008,0.3248545,-0.4358685,1.611273,0.1147005,-0.06480666,1.7131,0.1028186,-0.3931103,1.696455,-0.05941745,0.133339,1.705484,0.01691566,-0.3837843,1.665622,-0.1001503,-0.1417262,1.724524,0.3329857,-0.1298579,1.687401,NA,NA,NotTracked,NotTracked,
0.9257813,-0.3256836,0.109375,0.9614258,0.2734375,0.1328125,-3,-1,-1,-1,-2,-2,-1,-2,1,-1,-2,-1,-4,-2,-2,2,-0.625,-0.625,-0.625,1.9375,1.9375,1.9375,3.065811,3.072436,4.467091,6.938763,2.960381,1.005511,-0.09005846,-0.4266097,1.631149,0.2929475,-0.4379192,1.608474,0.1318592,0.4040049,1.704126,-0.1343803,-0.4166901,1.641377,0.3226118,-0.4550894,1.6013,0.1146376,-0.06480591,1.712989,0.1027277,-0.3931139,1.696388,-0.05943798,0.133428,1.705349,0.01684816,-0.3837696,1.665577,-0.1000356,-0.1423375,1.723952,0.3329783,-0.1297394,1.687264,NA,NA,NotTracked,NotTracked,
0.925293,-0.3129883,0.1245117,0.9355469,0.2094727,0.1103516,-1,1,1,-4,-3,-3,0,-2,0,1,2,0,0,-2,0,-3,-1.4375,-1.4375,-1.4375,-20,-20,-20,3.065969,3.071112,4.465899,6.925185,2.954008,0.9855776,-0.08999978,-0.4272333,1.631863,0.2931843,-0.438742,1.610273,0.1319233,0.4040066,1.703958,-0.1354139,-0.4431714,1.646,0.3251466,-0.4426396,1.608072,0.114601,-0.064775,1.712811,0.1026265,-0.3930879,1.69617,-0.0594392,0.1335647,1.704981,0.01671437,-0.3837399,1.665253,-0.1000554,-0.1423831,1.723699,0.3325469,-0.13034,1.687336,NA,NA,NotTracked,NotTracked,
0.9472656,-0.3349609,0.1162109,0.9350586,0.4506836,0.05224609,-2,-2,-3,-1,-2,-2,0,-1,5,-7,-8,-7,-11,1,0,4,2.8125,2.8125,2.8125,-1.375,-1.375,-1.375,3.065467,3.069374,4.46973,6.958403,2.961569,0.9688632,-0.09009078,-0.4267613,1.631401,0.2929698,-0.437948,1.60976,0.1320175,0.4039429,1.703572,-0.1328364,-0.4240338,1.633818,0.3240407,-0.4431231,1.606,0.1145825,-0.06475174,1.712552,0.1025782,-0.393075,1.695996,-0.05945594,0.1335734,1.70472,0.01666864,-0.3837173,1.665122,-0.1000003,-0.1423933,1.723555,0.3321215,-0.130565,1.687405,NA,NA,NotTracked,NotTracked,
0.9296875,-0.3408203,0.1147461,1.166992,0.4428711,0.1074219,-2,-2,-3,-2,-1,-1,-1,0,-2,6,31,3,9,1,11,16,-0.5625,-0.5625,-0.5625,-107.375,-107.375,-107.375,3.06214,3.06718,4.473789,6.782139,3.124399,0.984468,-0.08933973,-0.4331483,1.631003,0.2925292,-0.436864,1.604941,0.132066,0.4039623,1.703373,-0.1342057,-0.4222398,1.642429,0.3298046,-0.4026681,1.606,0.1145437,-0.064748,1.712348,0.1024993,-0.3930786,1.6959,-0.05945808,0.1335472,1.704154,0.01657837,-0.383695,1.664966,-0.1000495,-0.1424443,1.723424,0.3321952,-0.130583,1.687316,NA,NA,NotTracked,NotTracked,
0.9418945,-0.3398438,0.1264648,0.8686523,0.7001953,0.4267578,-2,2,-1,-4,-1,-1,-1,0,-13,-12,-12,18,-2,-5,10,2,3.25,3.25,3.25,93.125,93.125,93.125,3.063288,3.069785,4.474895,6.728646,3.400575,1.049809,-0.09011296,-0.4287609,1.629907,0.2743375,-0.4297816,1.561318,0.1321684,0.4038743,1.702844,-0.1333593,-0.4242411,1.633077,0.3109615,-0.4095294,1.546931,0.1141732,-0.06473029,1.711755,0.1019848,-0.3930974,1.695422,-0.0596749,0.1334931,1.703448,0.01582469,-0.3834965,1.663978,-0.1001133,-0.1426685,1.722972,0.3387979,-0.1265398,1.685021,NA,NA,NotTracked,NotTracked,
0.9169922,-0.3515625,0.1289063,0.512207,0.8876953,0.5209961,-3,-7,-1,-1,-2,1,-1,-1,7,-1,-25,8,-2,-8,1,1,-17.625,-17.625,-17.625,-30.625,-30.625,-30.625,3.062501,3.059033,4.456233,6.790989,4.010927,1.106249,-0.08998082,-0.429597,1.630243,0.222647,-0.3561153,1.491357,0.1322553,0.4038225,1.702335,-0.1335963,-0.4184366,1.638982,0.2382718,-0.3539127,1.451124,0.1117086,-0.06472047,1.710952,0.0942969,-0.3928797,1.694311,-0.05959026,0.1334895,1.702664,0.007773161,-0.381653,1.662612,-0.1002805,-0.1421847,1.722516,0.3540184,-0.09813537,1.676051,NA,NA,NotTracked,Unknown,
0.9213867,-0.3574219,0.1538086,0.2216797,0.7006836,0.496582,-1,2,-6,-1,-1,0,0,-1,9,7,-6,-7,13,22,7,12,-16.9375,-16.9375,-16.9375,46.4375,46.4375,46.4375,3.056652,3.057185,4.442055,6.747476,4.489913,1.230748,-0.09006339,-0.4264698,1.629279,0.1508688,-0.2497941,1.452634,0.1322764,0.403807,1.702285,-0.1339059,-0.4180123,1.639168,0.1580788,-0.2273186,1.404658,0.1112775,-0.06464098,1.710794,0.09355012,-0.3928331,1.694099,-0.0594689,0.133246,1.701825,0.007089302,-0.3812818,1.662489,-0.1003572,-0.1402048,1.721638,0.3624995,-0.1130492,1.633722,NA,NA,NotTracked,Unknown,
0.9614258,-0.2617188,0.1254883,0.078125,0.9125977,0.5458984,-2,-3,-7,-2,0,0,0,0,-11,-4,4,-17,-17,3,-17,-33,4.5625,4.5625,4.5625,18.25,18.25,18.25,3.086318,3.073897,4.411312,6.774623,4.897747,1.38107,-0.08857015,-0.4245703,1.625902,0.1183501,-0.1261124,1.443288,0.1323125,0.4038039,1.702325,-0.1272905,-0.4386446,1.6222,0.1134164,-0.1765471,1.513654,0.111421,-0.0643397,1.710915,0.09444141,-0.3920594,1.69415,-0.05830722,0.1330551,1.700759,0.008035159,-0.3809043,1.662817,-0.1001139,-0.1388505,1.720689,0.3625591,-0.0892463,1.633128,NA,NA,NotTracked,Unknown,
0.9677734,-0.2739258,0.109375,-0.08300781,0.7841797,0.5141602,0,1,0,0,-3,-2,-1,-2,-20,4,11,4,0,-1,6,-2,3.625,3.625,3.625,34.8125,34.8125,34.8125,3.090097,3.075833,4.409009,6.808248,5.20319,1.542276,-0.08698915,-0.4276448,1.624634,0.07173119,-0.02648894,1.436572,0.1325007,0.4037673,1.702999,-0.1304642,-0.4209833,1.639445,0.02835401,-0.009285552,1.5062,0.1115815,-0.06366406,1.711312,0.0953491,-0.3902241,1.694469,-0.0562938,0.1341871,1.700629,0.009590349,-0.3795398,1.663392,-0.09948929,-0.1375178,1.720368,0.3622956,-0.08626696,1.576989,NA,NA,NotTracked,Unknown,
0.9399414,-0.315918,0.07177734,-0.1772461,0.737793,0.4257813,0,-1,0,-2,0,-3,1,-2,-14,-16,-2,12,42,-8,4,-21,5.625,5.625,5.625,35.625,35.625,35.625,3.077559,3.075541,4.435953,6.940472,5.453475,1.751006,-0.08682528,-0.4286717,1.626029,0.05672231,0.03807726,1.445293,0.1329798,0.4038908,1.703842,-0.1291726,-0.4440355,1.633,0.004912922,0.005488274,1.49975,0.1115595,-0.06288615,1.711722,0.09569926,-0.3883655,1.694533,-0.05701319,0.1350677,1.702788,0.01048532,-0.377913,1.664744,-0.0993149,-0.1368888,1.720623,0.3200013,-0.06448155,1.537425,NA,NA,NotTracked,Unknown,
0.9262695,-0.3300781,0.1474609,-0.2231445,0.7143555,0.3730469,0,-3,-45,-6,-3,-3,-1,-2,33,-2,-1,6,18,10,18,17,8.875,8.875,8.875,30.875,30.875,30.875,3.062096,3.073333,4.473057,7.01452,5.54493,1.860131,-0.08750685,-0.4285886,1.629026,0.0514647,0.07615498,1.449513,0.1335672,0.4040031,1.704824,-0.1297312,-0.4227061,1.630539,0.01186744,0.05070923,1.476125,0.1116466,-0.06258473,1.71202,0.09576517,-0.3880234,1.694628,-0.05807334,0.1362635,1.705705,0.01072722,-0.3776867,1.665812,-0.09928237,-0.1367022,1.721428,0.3106474,-0.05057646,1.518012,NA,NA,NotTracked,Unknown,
0.9243164,-0.3535156,0.1523438,-0.2773438,0.7744141,0.3061523,0,2,1,0,-1,-1,1,-1,-79,-27,-11,2,21,-6,29,25,11.9375,11.9375,11.9375,20.375,20.375,20.375,3.064156,3.075317,4.49131,7.069132,5.59261,1.924806,-0.08770551,-0.4263929,1.632135,0.04843151,0.09614281,1.450089,0.1339749,0.4041508,1.706015,-0.1310169,-0.4019925,1.642133,-0.009963094,0.08374989,1.4588,0.1117512,-0.0625183,1.712197,0.09578037,-0.3881809,1.694592,-0.058187,0.135872,1.706707,0.01073444,-0.3782115,1.666348,-0.09887536,-0.1361077,1.723081,0.3047482,-0.04231127,1.508661,NA,NA,NotTracked,Unknown,
0.9213867,-0.3725586,0.1186523,-0.3144531,0.8837891,0.215332,-2,1,9,1,-1,-1,-2,0,29,2,-3,-2,-30,-3,-9,5,8.125,8.125,8.125,15.625,15.625,15.625,3.070504,3.080404,4.502118,7.126161,5.616684,1.969033,-0.08791572,-0.4227017,1.634875,0.04175233,0.1045322,1.450547,0.1344122,0.404351,1.707237,-0.1298832,-0.4116609,1.638867,-0.01725051,0.09278069,1.457208,0.1119377,-0.06273194,1.712541,0.09594559,-0.389089,1.694756,-0.05820045,0.1344802,1.70753,0.01080502,-0.3798026,1.667316,-0.09824182,-0.1355815,1.72502,0.2994066,-0.03636443,1.50252,NA,NA,NotTracked,Unknown,
0.9262695,-0.3525391,0.09765625,-0.3198242,0.9116211,0.2636719,0,0,12,-3,0,-2,1,-3,45,6,4,5,-5,8,18,22,2.4375,2.4375,2.4375,6.375,6.375,6.375,3.064888,3.083079,4.51339,7.138576,5.627379,1.983388,-0.08770896,-0.4228977,1.635741,0.01843554,0.1174131,1.454653,0.1346983,0.4042104,1.707829,-0.130303,-0.4409457,1.6379,-0.01637689,0.09003172,1.508182,0.1121319,-0.06285198,1.712725,0.09621686,-0.3896505,1.694775,-0.05770832,0.1319649,1.708031,0.01099742,-0.3808764,1.668046,-0.09785195,-0.1350738,1.726567,0.2945057,-0.03127679,1.497788,NA,NA,NotTracked,Unknown,
0.9384766,-0.3564453,0.1352539,-0.3203125,0.8823242,0.1645508,-1,-4,-43,-6,-1,-2,-2,-1,-29,15,-5,-8,-4,-7,-41,-12,-5,-5,-5,8.6875,8.6875,8.6875,3.059025,3.083784,4.511375,7.140079,5.658458,1.985972,-0.08806584,-0.4215691,1.635149,0.01366062,0.1257115,1.458303,0.1349985,0.4041776,1.708161,-0.1303705,-0.3983828,1.644294,-0.02329957,0.09850056,1.504079,0.1123045,-0.06304737,1.712958,0.09665948,-0.3905331,1.69488,-0.0573859,0.1295971,1.707999,0.01125003,-0.3820697,1.668462,-0.09755808,-0.1346667,1.727399,0.2921088,-0.02868648,1.49586,NA,NA,NotTracked,Lasso,
0.9135742,-0.3374023,0.1376953,-0.269043,0.8964844,0.1679688,-1,-3,2,-2,-2,0,0,-2,8,3,8,5,25,-4,-21,6,-6.1875,-6.1875,-6.1875,-1.75,-1.75,-1.75,3.066827,3.082975,4.496899,7.128378,5.667077,1.952149,-0.08741698,-0.4228398,1.635699,0.009867023,0.1324687,1.462851,0.1355866,0.404128,1.708568,-0.1316845,-0.4047432,1.654294,-0.02298437,0.1074653,1.531538,0.1124811,-0.06331792,1.713198,0.0970349,-0.3914882,1.69503,-0.05749982,0.1272605,1.707453,0.01127411,-0.3831678,1.668855,-0.09767826,-0.1344164,1.727758,0.2906214,-0.0271907,1.49521,NA,NA,NotTracked,Unknown,
0.9331055,-0.3344727,0.1230469,-0.2148438,0.9189453,0.1396484,-4,-3,5,0,-1,0,-1,-3,-15,-7,-7,0,10,-9,-6,0,0.0625,0.0625,0.0625,2.875,2.875,2.875,3.070496,3.084758,4.48734,7.09516,5.673352,1.843702,-0.08748531,-0.4198061,1.634093,0.04704423,0.1274592,1.448732,0.1360166,0.4041511,1.708834,-0.1301786,-0.415245,1.641884,-0.004790116,0.1140669,1.458408,0.1126437,-0.06370327,1.713289,0.09732363,-0.3924228,1.695029,-0.05737371,0.1269944,1.707451,0.0113099,-0.3841937,1.66867,-0.09764002,-0.1346614,1.727998,0.2906378,-0.02720634,1.496066,NA,NA,NotTracked,Unknown,
0.9438477,-0.3193359,0.1166992,-0.5224609,0.878418,0.3208008,1,-2,12,0,-1,-2,-1,-1,-30,19,5,-24,-31,-12,-1,-8,6.1875,6.1875,6.1875,10.5625,10.5625,10.5625,3.073708,3.088699,4.490092,7.005287,5.682351,1.577299,-0.08712048,-0.4226874,1.633893,0.05564418,0.1330618,1.437781,0.1363223,0.4041507,1.709278,-0.1307657,-0.414284,1.647864,0.01429649,0.1109347,1.4767,0.1129716,-0.06441857,1.713486,0.09768497,-0.3946344,1.695055,-0.05676034,0.1274306,1.707606,0.01130721,-0.3864407,1.668359,-0.09767655,-0.1345972,1.727998,0.2950143,-0.02921735,1.498958,NA,NA,NotTracked,Unknown,
0.925293,-0.3237305,0.1157227,-0.4980469,0.9311523,0.4321289,-2,-1,-1,-1,-1,-1,2,-1,-24,-7,-11,-12,14,17,-17,21,-5.9375,-5.9375,-5.9375,37.25,37.25,37.25,3.069967,3.082306,4.496397,6.968746,5.663163,1.35428,-0.0868516,-0.4260081,1.633645,0.1092994,0.1198124,1.414083,0.1364921,0.404157,1.709687,-0.1296021,-0.4112513,1.6403,0.05461443,0.1025065,1.443,0.113574,-0.06701562,1.713817,0.09754381,-0.3962716,1.695445,-0.05609529,0.1290243,1.708613,0.01089058,-0.3879427,1.668497,-0.09767245,-0.1346975,1.727998,0.3159077,-0.03570853,1.511682,NA,NA,NotTracked,Unknown,
0.9282227,-0.3525391,0.1347656,-0.4140625,0.7949219,0.4082031,0,0,-3,-3,0,1,-2,0,-65,-2,-7,19,19,-8,-9,7,3.375,3.375,3.375,33.875,33.875,33.875,3.055805,3.076592,4.504678,6.922589,5.665498,1.12739,-0.08771338,-0.4239917,1.635585,0.14664,0.1173796,1.398241,0.1365997,0.4040694,1.709862,-0.1302262,-0.407312,1.641252,0.09990336,0.09886187,1.420637,0.1134713,-0.06813782,1.713762,0.09679877,-0.3976016,1.695478,-0.05547597,0.131754,1.709633,0.009999125,-0.3889465,1.668666,-0.09780641,-0.1349036,1.727834,0.3279385,-0.03531995,1.513574,NA,NA,NotTracked,Unknown,
0.9165039,-0.3798828,0.1635742,-0.4575195,0.8085938,0.4174805,-3,-1,5,2,1,0,-2,-3,26,-1,1,9,1,-2,9,18,0.125,0.125,0.125,34.6875,34.6875,34.6875,3.048133,3.076173,4.492926,6.8913,5.683742,0.9175997,-0.08742325,-0.4236964,1.634731,0.1852853,0.1202578,1.390628,0.1369918,0.4039518,1.710061,-0.129772,-0.4075855,1.641869,0.1446863,0.1019058,1.402607,0.1129551,-0.06973986,1.713733,0.09548894,-0.4001498,1.6956,-0.05504958,0.1321935,1.709202,0.008476505,-0.3910385,1.669284,-0.09809982,-0.1353194,1.72712,0.3502127,-0.0371703,1.519096,NA,NA,NotTracked,Unknown,
0.9365234,-0.3066406,0.1225586,-0.5444336,0.7226563,0.4404297,-4,-2,-13,-4,-1,-2,-2,-2,-49,-65,-27,-12,-5,-22,-49,-50,-10.4375,-10.4375,-10.4375,40.75,40.75,40.75,3.05938,3.07913,4.479997,6.858594,5.69627,0.6406589,-0.08647332,-0.4256622,1.630951,0.2360667,0.1165393,1.388596,0.1375472,0.4038847,1.710007,-0.1306117,-0.4219199,1.641308,0.1867049,0.1018334,1.393,0.1128929,-0.06976528,1.713704,0.09525709,-0.4009628,1.69553,-0.05335945,0.132249,1.707379,0.008152488,-0.3914689,1.669184,-0.09791181,-0.1357712,1.726521,0.3751954,-0.04480651,1.531007,NA,NA,NotTracked,Unknown,
0.9287109,-0.2875977,0.09716797,-0.5844727,0.7099609,0.4868164,-2,-3,6,0,-1,0,2,0,54,6,4,2,4,5,17,45,0.625,0.625,0.625,32.625,32.625,32.625,3.067677,3.080464,4.471236,6.82483,5.71618,0.4610348,-0.08536958,-0.4282472,1.630428,0.2749268,0.1187752,1.388701,0.1380855,0.4039972,1.709888,-0.1302048,-0.4070725,1.648769,0.2516829,0.09391961,1.383314,0.1129236,-0.0697751,1.713686,0.09501534,-0.4012203,1.695366,-0.05258134,0.1322922,1.706445,0.007750924,-0.3915189,1.668553,-0.09732848,-0.1360493,1.725331,0.4072048,-0.05621582,1.559121,NA,NA,NotTracked,Unknown,
0.9614258,-0.3359375,0.1000977,-0.6044922,0.684082,0.5058594,-3,0,10,2,-5,-3,-2,0,-18,8,1,-2,-2,15,4,13,1,1,1,31.0625,31.0625,31.0625,3.052306,3.075108,4.47959,6.80691,5.726964,0.3432902,-0.08401928,-0.4261421,1.630458,0.301269,0.1160803,1.388218,0.1389937,0.4039582,1.709847,-0.1252724,-0.4300269,1.630072,0.2734692,0.09346321,1.384559,0.1131909,-0.0696168,1.713756,0.09511119,-0.4011365,1.695381,-0.05198579,0.1322055,1.705802,0.008005908,-0.391046,1.667778,-0.0967131,-0.1360701,1.724733,0.4126145,-0.05873924,1.569833,NA,NA,NotTracked,Closed,
0.9316406,-0.3461914,0.1191406,-0.5634766,0.7138672,0.4736328,-1,-2,-6,0,-2,-2,-4,-3,34,-2,3,3,28,-19,-18,29,-5.5,-5.5,-5.5,1.75,1.75,1.75,3.046988,3.070156,4.478039,6.774376,5.741838,0.2739156,-0.0836006,-0.4257933,1.63057,0.3113357,0.1153162,1.388544,0.1400003,0.4039597,1.709769,-0.1241285,-0.4413732,1.629833,0.2570428,0.1115461,1.365902,0.1135737,-0.06934289,1.71386,0.09528261,-0.4009105,1.695429,-0.05122602,0.1321088,1.705163,0.008292166,-0.3905527,1.667148,-0.09619564,-0.1364319,1.724188,0.4479239,-0.081656,1.575022,NA,NA,NotTracked,Closed,
0.9243164,-0.3393555,0.1245117,-0.4907227,0.7910156,0.4248047,-2,-3,-32,-5,0,0,2,-2,14,-1,-4,-31,-46,4,-1,6,-8.625,-8.625,-8.625,-3.625,-3.625,-3.625,3.041094,3.067588,4.471478,6.758927,5.755539,0.2611069,-0.08274636,-0.4250489,1.631495,0.3156937,0.1145193,1.390417,0.1412769,0.4039265,1.710106,-0.1249117,-0.418085,1.635786,0.2914432,0.09095939,1.381767,0.114149,-0.0690816,1.71422,0.09576962,-0.4007142,1.695653,-0.05063432,0.1321687,1.70486,0.00885289,-0.3902099,1.666682,-0.09578484,-0.1367693,1.723792,0.4216546,-0.05931326,1.58874,NA,NA,NotTracked,Closed,
0.9516602,-0.3051758,0.1025391,-0.4697266,0.8466797,0.40625,-2,-2,2,-2,-1,0,-2,-1,-73,-18,-13,-12,-23,-18,-40,-62,2.75,2.75,2.75,-0.875,-0.875,-0.875,3.048448,3.072774,4.46638,6.754194,5.758682,0.2680266,-0.08229756,-0.4243549,1.630834,0.314725,0.1144572,1.38911,0.142503,0.4037978,1.710064,-0.1255928,-0.4055403,1.64076,0.2913201,0.09029955,1.382449,0.11468,-0.06894004,1.714472,0.09638253,-0.4005596,1.695805,-0.04982245,0.1320493,1.704696,0.009417837,-0.3900152,1.666346,-0.09517425,-0.1371471,1.723518,0.4212889,-0.05944778,1.588451,NA,NA,NotTracked,Closed,
0.9448242,-0.3154297,0.08251953,-0.5063477,0.793457,0.3994141,-1,0,-4,-4,-2,-1,-2,-1,63,31,2,-2,-1,3,5,7,4.625,4.625,4.625,3.75,3.75,3.75,3.04477,3.070525,4.47848,6.760032,5.759003,0.2756562,-0.08193818,-0.4251778,1.633282,0.3135433,0.1138291,1.390302,0.1434449,0.403748,1.710295,-0.1263594,-0.4152619,1.648583,0.2973031,0.08979429,1.372217,0.1152195,-0.06877819,1.715024,0.09688453,-0.4004434,1.696285,-0.04946516,0.1321193,1.704835,0.009813157,-0.3898989,1.666358,-0.09471428,-0.1371142,1.723596,0.4181579,-0.06093294,1.585845,NA,NA,NotTracked,Closed,
0.9331055,-0.3408203,0.09570313,-0.4926758,0.7734375,0.4321289,1,2,18,-2,-2,-2,-2,-1,38,-15,-2,-18,0,5,-4,24,3.8125,3.8125,3.8125,0.5625,0.5625,0.5625,3.029835,3.066582,4.50126,6.756351,5.753597,0.2770995,-0.08235818,-0.4240855,1.634441,0.311616,0.1131932,1.389154,0.1440754,0.4035891,1.710623,-0.1267548,-0.4199312,1.649,0.3031657,0.08561338,1.373642,0.1155781,-0.06859539,1.715455,0.0970503,-0.4002813,1.696507,-0.04877959,0.1322892,1.705353,0.009905957,-0.3897612,1.666368,-0.09419805,-0.1376837,1.724257,0.4487675,-0.08624949,1.580135,NA,NA,NotTracked,Closed,
0.921875,-0.3413086,0.1376953,-0.4067383,0.7700195,0.4487305,-3,-5,-39,-4,-2,0,1,0,-27,-5,-1,-2,4,2,0,-31,3.6875,3.6875,3.6875,-2.8125,-2.8125,-2.8125,3.026114,3.068088,4.516962,6.750835,5.73916,0.2759777,-0.08285362,-0.4216885,1.636149,0.3117201,0.1107769,1.388147,0.1444375,0.40349,1.71102,-0.1269316,-0.388115,1.650474,0.3090571,0.08490207,1.364961,0.1158106,-0.06848184,1.715739,0.0971666,-0.4000922,1.696714,-0.04844525,0.1323685,1.705747,0.01000452,-0.3895877,1.666445,-0.09402008,-0.1383594,1.724848,0.4155395,-0.06132994,1.582656,NA,NA,NotTracked,Closed,
0.918457,-0.3540039,0.1293945,-0.3427734,0.706543,0.4433594,-1,-3,-31,-6,-3,0,-3,-1,8,-6,3,-2,-24,3,5,13,5,5,5,18.125,18.125,18.125,3.030399,3.073179,4.519531,6.761472,5.675687,0.2914467,-0.08332843,-0.4225737,1.636892,0.3073873,0.1003388,1.384696,0.1446113,0.4033662,1.711409,-0.1259183,-0.4164525,1.642539,0.2459545,0.09516709,1.395067,0.1159608,-0.06833184,1.716243,0.09719038,-0.3998877,1.697037,-0.04820625,0.1324109,1.706302,0.01001612,-0.3894164,1.66666,-0.09365407,-0.1383592,1.725491,0.4414068,-0.09094656,1.58183,NA,NA,NotTracked,Unknown,
0.9375,-0.3535156,0.1088867,-0.2568359,0.7304688,0.4140625,-2,-1,-3,-2,0,-1,-3,1,-47,-1,-1,5,5,2,4,-45,1.5,1.5,1.5,41.8125,41.8125,41.8125,3.030066,3.078113,4.524493,6.824549,5.558905,0.3224546,-0.08281686,-0.4233449,1.636505,0.2999226,0.06924236,1.374319,0.1447639,0.4033988,1.712323,-0.1247503,-0.4169428,1.638105,0.2372839,0.05633856,1.3766,0.116212,-0.06806245,1.716783,0.09735516,-0.3994008,1.697545,-0.04790728,0.1324235,1.707267,0.0101233,-0.3890451,1.667078,-0.09338919,-0.1378375,1.726379,0.44021,-0.09198129,1.579482,NA,NA,NotTracked,Closed,
0.9277344,-0.3300781,0.1113281,-0.2167969,0.7407227,0.3984375,-2,-1,-4,-2,-3,1,0,-1,6,-3,2,-14,5,-1,-16,7,0,0,0,34.8125,34.8125,34.8125,3.030884,3.081505,4.523993,6.904634,5.370791,0.4036714,-0.08332761,-0.422765,1.637595,0.2917258,0.01134035,1.366442,0.1444055,0.403756,1.713992,-0.1257794,-0.3943344,1.646625,0.2593844,-0.02105801,1.367286,0.1163871,-0.06751487,1.717689,0.09761493,-0.3983847,1.698322,-0.04788573,0.1324208,1.708206,0.01055025,-0.3881264,1.668211,-0.09306324,-0.1377559,1.727081,0.3969957,-0.07221321,1.601539,NA,NA,NotTracked,Open,
0.9262695,-0.3359375,0.1206055,-0.04980469,0.7456055,0.4716797,-2,-4,11,1,2,-1,-2,-3,12,-1,6,5,0,-1,3,13,-0.75,-0.75,-0.75,7.875,7.875,7.875,3.035753,3.082526,4.519361,6.952079,4.978327,0.5540603,-0.08316984,-0.4225588,1.636841,0.2692823,-0.06695373,1.358392,0.1439261,0.4040605,1.71553,-0.1261561,-0.4095342,1.645273,0.2487984,-0.1055775,1.354286,0.1165162,-0.06693739,1.718346,0.09795791,-0.3971362,1.698826,-0.04827342,0.1324839,1.709348,0.01115924,-0.3869881,1.669005,-0.09287924,-0.137632,1.727556,0.4093895,-0.06591263,1.62741,NA,NA,NotTracked,Unknown,
0.9311523,-0.3417969,0.1298828,0.2319336,1.055176,0.2543945,-1,0,5,-1,-3,-1,-2,0,-30,-2,-16,-12,-5,6,12,-11,1,1,1,-0.5,-0.5,-0.5,3.038877,3.083406,4.516996,6.960825,4.574513,0.6605892,-0.08269446,-0.4236193,1.636466,0.262275,-0.1595646,1.368331,0.143067,0.4039543,1.716706,-0.126348,-0.3956066,1.648698,0.2625412,-0.1967981,1.361071,0.1166636,-0.06643903,1.718925,0.09824646,-0.3963344,1.699246,-0.0486296,0.1323368,1.71002,0.01154278,-0.3862442,1.669448,-0.09274848,-0.137873,1.727955,0.4224647,-0.06454572,1.642926,NA,NA,NotTracked,Unknown,
0.9404297,-0.3310547,0.1259766,0.3452148,0.9145508,0.203125,-1,0,8,0,0,-1,-1,-1,-24,-3,-2,2,0,-2,-1,-6,3.375,3.375,3.375,2.1875,2.1875,2.1875,3.048115,3.086426,4.514094,6.916888,4.195872,0.73423,-0.08261287,-0.4238434,1.636436,0.2606423,-0.2530088,1.406775,0.1419648,0.4041156,1.717949,-0.1257705,-0.4218015,1.639706,0.2425665,-0.3112679,1.387,0.1166171,-0.06610489,1.719119,0.09810767,-0.395375,1.699328,-0.04905673,0.1322635,1.710888,0.01155492,-0.38532,1.669427,-0.09253234,-0.1380982,1.72853,0.4049854,-0.08093727,1.660794,NA,NA,NotTracked,Unknown,
0.9243164,-0.3222656,0.1083984,0.7167969,0.8544922,0.2104492,-3,1,5,0,-1,-3,0,0,-5,0,3,1,-3,-3,3,23,4.5625,4.5625,4.5625,-77.875,-77.875,-77.875,3.05505,3.091723,4.523287,6.836457,3.734952,0.7574297,-0.08238147,-0.4240739,1.635581,0.2672301,-0.3385662,1.45144,0.1409824,0.4043684,1.718612,-0.125107,-0.3976299,1.645314,0.2441595,-0.3455354,1.558,0.1165433,-0.06584619,1.71927,0.09793395,-0.3948505,1.699374,-0.04980887,0.1324104,1.711822,0.01142359,-0.3846745,1.66933,-0.0921005,-0.1396327,1.728946,0.3641063,-0.08927309,1.681852,NA,NA,NotTracked,Unknown,
0.9335938,-0.3818359,0.1298828,0.9042969,0.7719727,0.1748047,-1,1,2,0,-2,-1,1,-2,-54,-23,-3,-1,0,-5,4,-7,-1.125,-1.125,-1.125,-8.375,-8.375,-8.375,3.043408,3.090662,4.531703,6.809902,3.473311,0.7436997,-0.0829756,-0.4240163,1.636279,0.2821179,-0.3927716,1.495746,0.140239,0.404434,1.718884,-0.1262618,-0.4170713,1.643053,0.3129708,-0.3994849,1.491533,0.1167252,-0.06563488,1.719405,0.09878743,-0.3944143,1.699301,-0.05035661,0.1325004,1.71254,0.0124885,-0.3842311,1.668944,-0.09202652,-0.1407964,1.729243,0.346765,-0.1149823,1.68467,NA,NA,NotTracked,Unknown,
0.9345703,-0.3662109,0.1225586,0.9677734,0.2998047,0.1674805,-4,0,-4,-1,-1,1,0,-1,13,-1,2,0,10,6,-1,6,-4.625,-4.625,-4.625,-9.75,-9.75,-9.75,3.0415,3.093203,4.529716,6.785886,3.26491,0.7274872,-0.08278379,-0.4243559,1.637358,0.2977246,-0.4294576,1.538374,0.1394679,0.4045819,1.719684,-0.1252166,-0.4069685,1.642758,0.3377487,-0.4216117,1.540715,0.1172801,-0.0655192,1.719992,0.1008005,-0.3943377,1.699812,-0.05054524,0.1322794,1.713067,0.01483455,-0.384312,1.669364,-0.09248928,-0.1424056,1.729706,0.3428285,-0.1217474,1.686611,NA,NA,NotTracked,Unknown,
0.9135742,-0.3383789,0.1206055,0.9736328,0.6494141,0.2324219,0,-1,0,1,0,-2,-2,-1,5,-1,-1,6,-3,-10,-2,-10,-2.6875,-2.6875,-2.6875,26.6875,26.6875,26.6875,3.047323,3.097649,4.517739,6.881391,3.136559,0.6943756,-0.0820448,-0.4246771,1.636452,0.3024497,-0.4498674,1.576161,0.1388052,0.4046267,1.720308,-0.1270408,-0.4183682,1.647794,0.3489418,-0.4223834,1.5703,0.1182372,-0.06533917,1.720499,0.1035751,-0.394252,1.700251,-0.05085567,0.1320053,1.713433,0.01782329,-0.384372,1.669548,-0.09262668,-0.1432052,1.729853,0.3400851,-0.1266784,1.688493,NA,NA,NotTracked,Unknown,
0.9487305,-0.3212891,0.1264648,0.9077148,0.4023438,0.08740234,1,1,4,-1,1,-1,-2,-2,-3,1,3,2,-3,8,-1,-3,-2,-2,-2,53.125,53.125,53.125,3.052423,3.097843,4.507872,6.924248,3.037538,0.6946288,-0.08185886,-0.426658,1.633468,0.3034815,-0.4614299,1.593179,0.1382181,0.404607,1.72081,-0.1262624,-0.4292877,1.642857,0.3489052,-0.4270536,1.58755,0.1188354,-0.06536252,1.720759,0.1053089,-0.3943333,1.700527,-0.05104202,0.1319381,1.713575,0.01946641,-0.3845073,1.669799,-0.09264844,-0.1432641,1.729807,0.3374584,-0.1305825,1.69015,NA,NA,NotTracked,NotTracked,
0.9199219,-0.3320313,0.1035156,0.8774414,0.2836914,0.09619141,-1,-3,-7,-3,-3,-2,-1,-1,-5,-4,-3,-1,-2,0,5,5,1.1875,1.1875,1.1875,-27.3125,-27.3125,-27.3125,3.054725,3.093879,4.506206,6.930292,3.01773,0.6762215,-0.08182298,-0.4279625,1.636358,0.3023417,-0.4570251,1.605907,0.137878,0.404713,1.721257,-0.1257312,-0.4117017,1.643125,0.3506407,-0.4296324,1.622333,0.1192495,-0.06529514,1.720995,0.106165,-0.3942415,1.700914,-0.05135204,0.1321378,1.713761,0.02028423,-0.38441,1.670139,-0.09281687,-0.1436072,1.729747,0.3352604,-0.1315827,1.69231,NA,NA,NotTracked,NotTracked,
0.9169922,-0.3500977,0.1123047,0.9677734,0.2753906,0.08837891,2,2,0,-2,2,-2,-1,-3,-3,-2,2,-3,3,1,-3,-4,-6.875,-6.875,-6.875,52.875,52.875,52.875,3.048873,3.08651,4.506417,6.892208,2.987688,0.7867308,-0.0824173,-0.4273118,1.6372,0.297133,-0.4499189,1.610415,0.1374066,0.4049006,1.721795,-0.1269686,-0.4127664,1.645658,0.3361714,-0.4634213,1.602667,0.1194631,-0.06525053,1.721213,0.1067467,-0.3940649,1.701354,-0.05159579,0.1319906,1.713977,0.02088528,-0.384306,1.670574,-0.09300823,-0.1437876,1.729719,0.332826,-0.1314153,1.694001,NA,NA,NotTracked,NotTracked,
