ALX,ALY,ALZ,ARX,ARY,ARZ,EMG0L,EMG1L,EMG2L,EMG3L,EMG4L,EMG5L,EMG6L,EMG7L,EMG0R,EMG1R,EMG2R,EMG3R,EMG4R,EMG5R,EMG6R,EMG7R,GLX,GLY,GLZ,GRX,GRY,GRZ,ORL,OPL,OYL,ORR,OPR,OYR,LHNX,LHNY,LHNZ,RHNX,RHNY,RHNZ,HX,HY,HZ,LTX,LTY,LTZ,RTX,RTY,RTZ,SpineMidX,SpineMidY,SpineMidZ,SpineBaseX,SpineBaseY,SpineBaseZ,ShoulderLeftX,ShoulderLeftY,ShoulderLeftZ,ShoulderRightX,ShoulderRightY,ShoulderRightZ,ElbowLeftX,ElbowLeftY,ElbowLeftZ,ElbowRightX,ElbowRightY,ElbowRightZ,Myo_Pose_left,Myo_Pose_Right,Kinect_pose_left,Kinect_pose_right
0.9326172,-0.3271484,0.1152344,0.9189453,0.2998047,0.1088867,-3,-3,1,-1,-1,0,1,0,11,2,-2,0,-4,2,2,3,-1.4375,-1.4375,-1.4375,2.75,2.75,2.75,3.059308,3.077189,4.664616,7.008857,2.994534,0.3768185,-0.08616684,-0.4294542,1.642309,0.3012963,-0.4632754,1.613746,0.1353571,0.404151,1.722017,-0.1305071,-0.4145788,1.649014,0.2528237,-0.452861,1.576812,0.1188971,-0.06677444,1.723705,0.1074438,-0.3955553,1.705073,-0.05638282,0.131205,1.71787,0.02182746,-0.3852797,1.673584,-0.0970313,-0.1415038,1.735188,0.3302688,-0.1347179,1.68988,NA,NA,NotTracked,NotTracked,
0.9316406,-0.3276367,0.1220703,0.9233398,0.2851563,0.1132813,0,-4,-1,-2,0,1,-3,-2,-6,-2,-3,-3,-8,-1,0,-2,2.4375,2.4375,2.4375,0.0625,0.0625,0.0625,3.060084,3.077518,4.66559,7.016137,2.993917,0.3713187,-0.08627757,-0.4295196,1.640976,0.3015741,-0.4629954,1.613118,0.1352531,0.4041135,1.721772,-0.1322163,-0.4148199,1.654529,0.2535615,-0.4661422,1.575737,0.1188722,-0.06677558,1.72368,0.1074524,-0.3955536,1.705056,-0.05639168,0.1312457,1.717736,0.0218355,-0.3852678,1.673567,-0.09704675,-0.1414144,1.735225,0.3301768,-0.1348274,1.689841,NA,NA,NotTracked,NotTracked,
0.9350586,-0.3432617,0.1196289,0.9243164,0.2861328,0.1230469,-1,1,1,-1,0,0,-1,-3,4,-1,0,3,1,-1,-2,0,0.8125,0.8125,0.8125,0.375,0.375,0.375,3.058675,3.077483,4.66548,7.012124,2.993199,0.3738275,-0.08598075,-0.4295222,1.641547,0.3010315,-0.4630108,1.613739,0.1352513,0.4041468,1.721705,-0.130826,-0.3988113,1.65468,0.253188,-0.4504963,1.577727,0.1188348,-0.06680887,1.72365,0.1074247,-0.3955919,1.705062,-0.05635474,0.1312081,1.717688,0.02181065,-0.3853038,1.673565,-0.09703613,-0.1414692,1.735251,0.3301923,-0.1348204,1.689859,NA,NA,NotTracked,NotTracked,
0.9355469,-0.3344727,0.1210938,0.9257813,0.2871094,0.1240234,0,-3,-1,-1,0,-3,-1,-2,-3,1,-2,-7,-11,0,-1,-2,-0.625,-0.625,-0.625,3,3,3,3.058751,3.076926,4.665805,7.008811,2.994269,0.3770009,-0.08637996,-0.4298831,1.641848,0.3010222,-0.4632744,1.613694,0.1352552,0.4041241,1.721596,-0.1317545,-0.412354,1.65304,0.2530454,-0.455619,1.576608,0.1187973,-0.06684154,1.723577,0.1073973,-0.3956152,1.705,-0.05643313,0.1312056,1.717692,0.02177601,-0.385347,1.673488,-0.09714155,-0.1415044,1.735176,0.3301333,-0.1349264,1.689755,NA,NA,NotTracked,NotTracked,
0.934082,-0.3266602,0.1206055,0.9335938,0.3706055,0.07666016,-2,-1,0,-2,1,1,-3,-2,-5,8,7,-5,-19,-28,-2,5,-0.375,-0.375,-0.375,-12.375,-12.375,-12.375,3.058751,3.076926,4.665805,7.017983,3.002285,0.3626922,-0.08608296,-0.4289423,1.64076,0.301212,-0.4633259,1.612452,0.1352417,0.4041124,1.721483,-0.1303912,-0.4262225,1.647231,0.2532415,-0.4527219,1.577353,0.1187662,-0.06684033,1.723486,0.107372,-0.3955981,1.70497,-0.05648839,0.1312155,1.717558,0.0217447,-0.3853296,1.673449,-0.09707424,-0.1413634,1.735183,0.3301597,-0.1348111,1.68979,NA,NA,NotTracked,NotTracked,
0.9267578,-0.3378906,0.1254883,0.9912109,0.3476563,-0.05712891,-1,3,0,-3,-1,-2,1,-3,0,5,-2,-4,-7,0,-1,1,1.0625,1.0625,1.0625,-69.125,-69.125,-69.125,3.059228,3.077661,4.666061,6.961499,3.059303,0.3193772,-0.08611746,-0.4286188,1.64068,0.3006759,-0.4643701,1.607915,0.1352659,0.4042187,1.721134,-0.1306011,-0.4179107,1.647884,0.2532921,-0.4528055,1.576652,0.118742,-0.06682797,1.723444,0.107367,-0.3955942,1.704942,-0.05648705,0.1311996,1.717506,0.02173524,-0.3853198,1.673423,-0.09710331,-0.1414212,1.735166,0.3302622,-0.134695,1.689756,NA,NA,NotTracked,NotTracked,
0.9370117,-0.324707,0.1049805,1.037109,0.6689453,0.4145508,-1,-2,-3,-1,-2,0,-1,-2,8,-9,-24,3,2,8,-5,-1,4.0625,4.0625,4.0625,-2.375,-2.375,-2.375,3.064213,3.07968,4.669527,6.849745,3.291534,0.3550457,-0.08667963,-0.4293752,1.641495,0.2899436,-0.4558763,1.586843,0.1352284,0.4042332,1.72104,-0.1299614,-0.410953,1.643386,0.244502,-0.4420337,1.567,0.1185819,-0.06679048,1.723364,0.1069884,-0.3955157,1.704888,-0.05651697,0.1311795,1.717476,0.02136303,-0.3851874,1.673275,-0.0970706,-0.1413492,1.735168,0.3313687,-0.1348771,1.690596,NA,NA,NotTracked,NotTracked,
0.9101563,-0.3413086,0.1044922,0.8452148,0.8291016,0.4985352,0,-3,-1,-2,-4,-2,1,-2,-3,7,-28,-15,12,6,-5,-5,-8.125,-8.125,-8.125,56.5625,56.5625,56.5625,3.060328,3.074964,4.666433,6.796255,3.605282,0.4916193,-0.08649912,-0.4264288,1.64131,0.2510676,-0.4132148,1.542963,0.1352151,0.4042019,1.720947,-0.1301898,-0.4106532,1.64775,0.2152134,-0.3966784,1.560279,0.1173113,-0.06643809,1.723027,0.1035209,-0.3945079,1.704362,-0.05649009,0.1314464,1.717289,0.01719844,-0.3838289,1.672467,-0.09706575,-0.1414593,1.73514,0.340726,-0.1247526,1.690237,NA,NA,NotTracked,NotTracked,
0.9326172,-0.3569336,0.1479492,0.5537109,0.8066406,0.6103516,0,2,3,0,0,-1,-3,-1,13,14,5,10,9,-5,-9,-13,-8.6875,-8.6875,-8.6875,24.625,24.625,24.625,3.051807,3.073723,4.65775,6.750628,4.026662,0.6318505,-0.08688031,-0.4295126,1.640694,0.1781535,-0.3347341,1.524208,0.1351658,0.4040984,1.720841,-0.1316926,-0.4007267,1.6543,0.2394769,-0.3805067,1.561455,0.114177,-0.06607074,1.722729,0.0955365,-0.393793,1.703797,-0.0565411,0.131292,1.716975,0.008655147,-0.3818525,1.672215,-0.09724337,-0.1406425,1.735135,0.3495526,-0.1002902,1.685434,NA,NA,NotTracked,Unknown,
0.9233398,-0.3085938,0.140625,0.1025391,0.7441406,0.4731445,-2,-3,1,0,-2,-3,-1,-2,28,3,-2,3,-12,4,23,29,-2.875,-2.875,-2.875,15.8125,15.8125,15.8125,3.06062,3.076589,4.641079,6.713871,4.459867,0.7906635,-0.08642451,-0.4296798,1.638931,0.1345647,-0.2246249,1.479915,0.1351661,0.4041041,1.720823,-0.1300764,-0.4235795,1.641131,0.1495896,-0.2789106,1.538591,0.1139816,-0.06591213,1.722789,0.09571993,-0.3934633,1.704021,-0.05653544,0.1311976,1.716654,0.009306171,-0.3816185,1.672619,-0.09718248,-0.1397954,1.734746,0.3522075,-0.09758971,1.671172,NA,NA,NotTracked,Unknown,
0.956543,-0.3242188,0.1171875,0.1049805,0.7949219,0.5146484,-1,5,-3,0,0,-2,0,-1,-20,-16,6,14,23,10,-20,-13,-5.25,-5.25,-5.25,36.125,36.125,36.125,3.063996,3.076676,4.631146,6.747488,4.927127,1.002751,-0.08560602,-0.4321589,1.63821,0.08677925,-0.1235359,1.4688,0.1352433,0.4040888,1.720848,-0.1316237,-0.4279919,1.654091,0.08631125,-0.1739612,1.541118,0.1139709,-0.06563555,1.722859,0.09606391,-0.3926677,1.704107,-0.05585958,0.1310315,1.716115,0.009744079,-0.3812414,1.673082,-0.09694671,-0.1378895,1.734043,0.3667789,-0.0948022,1.631327,NA,NA,NotTracked,Unknown,
0.9541016,-0.3198242,0.08251953,0.1523438,0.8300781,0.4599609,2,-3,-3,-3,-2,-2,-2,-2,-21,5,-16,-7,-22,-12,-6,-6,-4,-4,-4,34.6875,34.6875,34.6875,3.053489,3.074727,4.634722,6.811453,5.151996,1.141137,-0.08397438,-0.438022,1.634595,0.05737899,-0.04750967,1.46528,0.1355412,0.4040327,1.721062,-0.1275108,-0.4489914,1.6364,0.006245087,-0.08445996,1.5137,0.1141315,-0.06508053,1.723215,0.09667071,-0.3913027,1.704392,-0.05499208,0.131283,1.71576,0.01095481,-0.3802139,1.673927,-0.0975633,-0.1398082,1.732754,0.3542477,-0.09516451,1.599774,NA,NA,NotTracked,Unknown,
0.9350586,-0.3125,0.1108398,-0.1308594,0.9086914,0.3857422,-1,-2,-4,-2,0,0,1,-2,5,16,0,-2,22,-13,0,18,2.6875,2.6875,2.6875,35.25,35.25,35.25,3.045316,3.076769,4.644481,6.888901,5.304949,1.26396,-0.08416811,-0.4362087,1.635913,0.05455849,0.004325373,1.470159,0.1360105,0.4039705,1.721725,-0.1304456,-0.429857,1.647096,0.0787221,-0.03692317,1.563,0.1142669,-0.06446391,1.723575,0.09684987,-0.3898825,1.704675,-0.05568489,0.1317298,1.716298,0.01169232,-0.3790611,1.674748,-0.0977,-0.1400135,1.732618,0.3133629,-0.07665657,1.563256,NA,NA,NotTracked,Unknown,
0.9013672,-0.347168,0.1459961,-0.324707,0.84375,0.3779297,-2,0,-3,-2,0,0,0,-1,49,10,10,42,83,-40,-1,18,6.6875,6.6875,6.6875,37.125,37.125,37.125,3.050818,3.079188,4.657326,6.991036,5.445542,1.40407,-0.08661166,-0.4295818,1.639722,0.03360511,0.04431624,1.480926,0.1366724,0.4039112,1.722223,-0.1320259,-0.4173474,1.6532,0.06278972,0.001456445,1.565333,0.1142758,-0.0641003,1.723682,0.09681924,-0.3890772,1.704686,-0.05674339,0.1328507,1.716762,0.01189777,-0.378468,1.675556,-0.09761126,-0.1391686,1.732943,0.3098291,-0.06969165,1.547543,NA,NA,NotTracked,Unknown,
0.9291992,-0.3530273,0.1083984,-0.371582,0.8388672,0.3647461,-2,-2,-2,-2,1,-1,-2,-1,-42,12,6,3,1,6,31,21,5.875,5.875,5.875,26.875,26.875,26.875,3.047939,3.076576,4.675789,7.05933,5.528316,1.485883,-0.08615079,-0.4274463,1.640573,0.04353846,0.07115325,1.478445,0.1371582,0.4039106,1.722619,-0.1303085,-0.42153,1.649253,-0.005383081,0.04538033,1.5202,0.1143051,-0.063658,1.723799,0.09678181,-0.3882335,1.704752,-0.05746905,0.1342475,1.716797,0.01204179,-0.3777211,1.676549,-0.09720486,-0.1384685,1.733736,0.3075258,-0.05808074,1.531435,NA,NA,NotTracked,Unknown,
0.9228516,-0.3657227,0.1171875,-0.2705078,0.7714844,0.3032227,0,0,-6,-2,-1,-1,1,-1,36,-24,-16,-4,-35,-2,-37,-9,-4.125,-4.125,-4.125,29.1875,29.1875,29.1875,3.03807,3.078343,4.681182,7.113818,5.573234,1.55745,-0.08665143,-0.4273978,1.642144,0.02634266,0.09103587,1.487806,0.1375097,0.404013,1.722805,-0.1321027,-0.4040901,1.6595,0.04478537,0.05409991,1.5728,0.1143461,-0.06347818,1.723989,0.09677742,-0.3882222,1.704765,-0.05750019,0.1343681,1.716329,0.0120458,-0.3778779,1.677032,-0.09707886,-0.1375936,1.734447,0.3012753,-0.04906347,1.517837,NA,NA,NotTracked,Unknown,
0.9257813,-0.3398438,0.1303711,-0.2084961,0.7783203,0.2592773,0,2,-6,-1,-1,-1,-1,-2,-25,-19,-5,1,15,-33,-21,-8,-3.75,-3.75,-3.75,6.6875,6.6875,6.6875,3.041323,3.085125,4.668474,7.130398,5.586736,1.622645,-0.08610632,-0.4275294,1.639727,0.03439123,0.09884503,1.486102,0.1380184,0.4039051,1.722789,-0.1315644,-0.4012266,1.655833,0.04098101,0.06553342,1.565778,0.1144064,-0.06348047,1.72399,0.09688137,-0.3884512,1.704658,-0.05720158,0.133165,1.714941,0.0120745,-0.3785629,1.677458,-0.09708042,-0.1366409,1.734475,0.2930097,-0.04237276,1.509001,NA,NA,NotTracked,Unknown,
0.9375,-0.3168945,0.1196289,-0.2548828,0.9375,0.2036133,-1,-3,1,-2,-2,-2,-2,-1,1,-10,-23,-11,8,-26,2,-5,-2.875,-2.875,-2.875,-1.375,-1.375,-1.375,3.053267,3.086303,4.649812,7.15287,5.593547,1.656108,-0.085114,-0.4282767,1.638247,-0.002761107,0.1171824,1.506001,0.1384264,0.4037677,1.722728,-0.1287245,-0.4105571,1.6453,0.02888548,0.07090587,1.575868,0.1146042,-0.06407555,1.723655,0.09709902,-0.3887917,1.704488,-0.05720416,0.1321931,1.714213,0.0122184,-0.3793433,1.677724,-0.09721142,-0.1352907,1.73421,0.2872309,-0.03828532,1.5038,NA,NA,NotTracked,Unknown,
0.9414063,-0.3334961,0.1103516,-0.1508789,0.9580078,0.1264648,-3,0,-4,-3,-1,-2,0,-1,-18,-15,-25,-15,1,-1,-18,-28,-3.125,-3.125,-3.125,-4.375,-4.375,-4.375,3.055793,3.080842,4.635283,7.147134,5.595423,1.64063,-0.08509538,-0.4262494,1.638247,0.003033499,0.1199555,1.506568,0.1386211,0.4037066,1.722719,-0.1323167,-0.4244821,1.662667,0.03766904,0.07361595,1.577809,0.1146178,-0.06405056,1.723648,0.097263,-0.38903,1.704197,-0.05709188,0.1310548,1.712932,0.01223889,-0.379795,1.677621,-0.09708466,-0.1349558,1.734152,0.2851512,-0.03702684,1.502129,NA,NA,NotTracked,Unknown,
0.934082,-0.3149414,0.1137695,-0.1762695,0.9404297,0.1767578,-3,2,2,-2,-1,0,-1,-1,-59,-52,-31,-16,-27,-25,-11,-23,0.6875,0.6875,0.6875,6.125,6.125,6.125,3.055742,3.080403,4.633237,7.110353,5.617003,1.531824,-0.08524995,-0.4274738,1.638328,0.01486172,0.1257015,1.501043,0.1387693,0.4036852,1.722695,-0.1309576,-0.4190764,1.650637,0.03455544,0.0817015,1.578482,0.1146549,-0.06402795,1.723535,0.0974573,-0.3894309,1.703761,-0.05696726,0.1303302,1.711887,0.01221144,-0.3804582,1.677152,-0.09715722,-0.134641,1.733929,0.2856852,-0.03736509,1.502711,NA,NA,NotTracked,Closed,
0.9272461,-0.3500977,0.1420898,-0.300293,0.8706055,0.2036133,-1,-6,-42,-6,-1,0,0,-2,10,43,14,30,87,18,17,-4,-2.5,-2.5,-2.5,3.1875,3.1875,3.1875,3.053966,3.077612,4.631938,7.066959,5.625274,1.400225,-0.08593796,-0.4273894,1.638755,0.051449,0.1262526,1.479152,0.1388548,0.4036648,1.722723,-0.130591,-0.4075628,1.651527,0.03418173,0.09613556,1.554833,0.114782,-0.06425989,1.723366,0.097822,-0.3908276,1.70315,-0.05618904,0.1299387,1.710702,0.01210583,-0.3821543,1.676225,-0.09716897,-0.1343957,1.733753,0.2910746,-0.03906737,1.504933,NA,NA,NotTracked,Unknown,
0.9326172,-0.3666992,0.1303711,-0.3125,0.9414063,0.328125,-2,-1,20,-1,-3,-2,1,-2,31,9,19,4,2,1,24,17,-2.5,-2.5,-2.5,15.8125,15.8125,15.8125,3.051122,3.080024,4.636622,7.030923,5.607854,1.226916,-0.08562914,-0.4273382,1.637365,0.07008108,0.1297937,1.470847,0.1389621,0.4036145,1.722583,-0.1308911,-0.4081161,1.651792,0.03375921,0.1129136,1.540476,0.1150005,-0.06499659,1.723004,0.09779161,-0.3931421,1.702378,-0.05350896,0.1295562,1.708472,0.01149698,-0.3845755,1.674911,-0.09711514,-0.1350296,1.733288,0.3085858,-0.04408019,1.512901,NA,NA,NotTracked,Unknown,
0.9355469,-0.293457,0.09716797,-0.4970703,0.8862305,0.4404297,-1,0,-5,-2,-1,0,-2,-2,1,27,8,2,69,3,25,34,-1.1875,-1.1875,-1.1875,31.5,31.5,31.5,3.055954,3.079571,4.641613,6.982777,5.592714,0.933655,-0.08607989,-0.4263828,1.637016,0.09808964,0.1305912,1.459225,0.1390249,0.4035668,1.722484,-0.1305609,-0.4050155,1.648658,0.07292897,0.1153218,1.526353,0.1151458,-0.06650946,1.721969,0.0974875,-0.3947171,1.701894,-0.05204117,0.1304188,1.708469,0.01082902,-0.3859173,1.67431,-0.09712804,-0.1349427,1.733123,0.3296003,-0.04521402,1.520321,NA,NA,NotTracked,Unknown,
0.9199219,-0.3276367,0.1293945,-0.4360352,0.8427734,0.3920898,0,1,5,-1,-2,-1,-2,0,41,2,-1,-14,-2,-25,-1,5,-5.8125,-5.8125,-5.8125,46.75,46.75,46.75,3.042121,3.070453,4.640664,6.963368,5.585043,0.7181342,-0.08614925,-0.4275178,1.636649,0.1671333,0.1137603,1.438441,0.1390115,0.4034108,1.72204,-0.1302944,-0.4498749,1.638,0.1240532,0.1061169,1.5135,0.1146831,-0.06858654,1.72069,0.0964406,-0.3970905,1.701398,-0.05262471,0.1323401,1.709952,0.009594177,-0.3876717,1.674044,-0.09729708,-0.135159,1.73136,0.3460186,-0.0444352,1.525403,NA,NA,NotTracked,Unknown,
0.9375,-0.328125,0.1318359,-0.590332,0.7338867,0.4130859,-2,-2,-2,-1,-2,-1,0,-2,25,20,6,-13,-6,15,34,12,1,1,1,29.8125,29.8125,29.8125,3.040978,3.068437,4.63106,6.934195,5.58742,0.5068719,-0.08582408,-0.4259879,1.636603,0.2003571,0.1151583,1.43027,0.1391249,0.4033152,1.721557,-0.1311445,-0.4030907,1.650046,0.158534,0.1058014,1.486222,0.1141987,-0.06976981,1.719986,0.09584284,-0.3983175,1.701101,-0.05301636,0.1325854,1.710061,0.008730779,-0.3886749,1.673961,-0.09699927,-0.1356615,1.730177,0.3693245,-0.0435408,1.534896,NA,NA,NotTracked,Unknown,
0.9375,-0.3413086,0.1157227,-0.5283203,0.7421875,0.4536133,0,-2,0,0,1,0,-1,-2,23,-27,-11,15,47,-8,-40,25,-11.0625,-11.0625,-11.0625,17.25,17.25,17.25,3.039809,3.063769,4.615358,6.905379,5.611494,0.3364818,-0.08499069,-0.4284208,1.633737,0.2310367,0.1146963,1.42767,0.1397043,0.4034663,1.719838,-0.1317542,-0.397882,1.655,0.1961957,0.107202,1.4882,0.1142359,-0.0700731,1.71972,0.09577665,-0.3986343,1.70105,-0.05270275,0.1324509,1.709403,0.008617085,-0.3888648,1.673961,-0.09678674,-0.1352782,1.728986,0.386096,-0.04518187,1.545245,NA,NA,NotTracked,Unknown,
0.9448242,-0.2890625,0.09472656,-0.5371094,0.7192383,0.4057617,1,1,0,-1,-1,-1,3,1,-1,-8,-13,-32,-25,-21,-17,-15,-6.5,-6.5,-6.5,14.9375,14.9375,14.9375,3.036912,3.058624,4.608895,6.858863,5.628208,0.1743224,-0.08378736,-0.4297892,1.631049,0.2555883,0.1084612,1.424601,0.1407361,0.4036432,1.71849,-0.1241057,-0.4186879,1.631833,0.2077153,0.1016758,1.452182,0.1144006,-0.06988855,1.719549,0.09581801,-0.3987744,1.700976,-0.0516548,0.1321158,1.707676,0.008644747,-0.388982,1.673645,-0.09613778,-0.1347301,1.726418,0.3964342,-0.04914811,1.556334,NA,NA,NotTracked,Closed,
0.9589844,-0.2910156,0.1157227,-0.5317383,0.8139648,0.4145508,1,-3,1,0,-2,-1,-1,-2,-48,16,15,10,11,17,-14,-13,5.9375,5.9375,5.9375,-1.5,-1.5,-1.5,3.039661,3.056274,4.605453,6.82781,5.6354,0.0817834,-0.08294417,-0.4294783,1.631972,0.2734374,0.1058073,1.423973,0.1415301,0.4035792,1.717503,-0.1259715,-0.4162698,1.638614,0.2324127,0.08848912,1.431818,0.1146777,-0.06966294,1.719398,0.09604576,-0.3988248,1.700884,-0.05096546,0.1319294,1.70652,0.008992479,-0.3889478,1.673007,-0.09567903,-0.1354811,1.724843,0.4018634,-0.05063368,1.56455,NA,NA,NotTracked,Closed,
0.9501953,-0.324707,0.1064453,-0.4995117,0.8310547,0.390625,-2,1,-7,-2,0,1,-2,-1,76,19,-4,15,14,2,0,-16,-1.375,-1.375,-1.375,5.125,5.125,5.125,3.037028,3.052922,4.612241,6.81106,5.647388,0.005896845,-0.08222368,-0.4284804,1.633105,0.2846011,0.1041622,1.423584,0.1423192,0.4035504,1.716597,-0.1268762,-0.4154917,1.639922,0.2680032,0.07594743,1.421279,0.1149051,-0.06945498,1.71937,0.0963006,-0.3987556,1.700865,-0.05021673,0.1316728,1.705909,0.009350999,-0.3887314,1.672427,-0.09529505,-0.135667,1.72427,0.4053987,-0.05299421,1.573215,NA,NA,NotTracked,Unknown,
0.9272461,-0.3066406,0.09521484,-0.5595703,0.7856445,0.4389648,0,-1,0,-1,0,1,0,-1,-17,-38,-24,-14,-7,-6,-11,11,6.5,6.5,6.5,-0.3125,-0.3125,-0.3125,3.038048,3.052609,4.624321,6.80859,5.655069,9.977532,-0.08281568,-0.4249875,1.63556,0.291366,0.1028102,1.423093,0.1427954,0.4034503,1.716218,-0.1263682,-0.4274991,1.644182,0.2597215,0.07979043,1.425153,0.1152504,-0.06919005,1.719473,0.09673776,-0.3986063,1.700981,-0.04952132,0.1314475,1.705737,0.00978836,-0.3885768,1.672206,-0.09496275,-0.1358316,1.724362,0.4083683,-0.05416981,1.580623,NA,NA,NotTracked,Unknown,
0.9257813,-0.3334961,0.1254883,-0.4926758,0.8081055,0.4521484,-1,-1,5,1,-1,0,-1,-2,18,-9,3,37,5,6,-66,-37,1.8125,1.8125,1.8125,-1.5625,-1.5625,-1.5625,3.030453,3.054646,4.639236,6.800744,5.661407,9.966562,-0.08318435,-0.4253851,1.635439,0.2929456,0.1028007,1.422905,0.1430021,0.4033703,1.715896,-0.1265077,-0.4073821,1.6455,0.2691884,0.07804538,1.424515,0.1155077,-0.0690292,1.719414,0.09706261,-0.3984154,1.700952,-0.04920586,0.1313921,1.705632,0.01014921,-0.3883474,1.671851,-0.09476808,-0.1359575,1.724498,0.409451,-0.05433712,1.583219,NA,NA,NotTracked,Unknown,
0.9331055,-0.3320313,0.1044922,-0.4394531,0.7973633,0.4282227,-1,-1,-7,-1,-2,-2,-2,-1,8,-1,-8,-60,-33,5,12,21,3.1875,3.1875,3.1875,-3,-3,-3,3.029249,3.05743,4.645354,6.791292,5.668619,9.96895,-0.08262502,-0.4257623,1.636123,0.2924535,0.1022561,1.423812,0.1431673,0.4033647,1.715854,-0.1262356,-0.4130434,1.645161,0.2502635,0.08772849,1.436365,0.1157713,-0.06893703,1.719503,0.09728563,-0.3983903,1.700999,-0.04880385,0.1311893,1.705711,0.01036471,-0.388315,1.67179,-0.09467489,-0.1360382,1.724586,0.4100271,-0.05462959,1.584405,NA,NA,NotTracked,Unknown,
0.9399414,-0.3276367,0.1064453,-0.371582,0.7929688,0.4404297,-1,-2,-5,0,-1,0,0,-3,-14,-12,-2,2,3,4,12,-1,0.4375,0.4375,0.4375,-5.5625,-5.5625,-5.5625,3.029557,3.060501,4.645507,6.77361,5.658038,9.972507,-0.0827324,-0.4255435,1.635969,0.2909026,0.1003013,1.422884,0.1432736,0.4033813,1.71591,-0.1262636,-0.4295892,1.640582,0.2675312,0.0762987,1.420864,0.1159478,-0.06880817,1.719691,0.09737841,-0.398317,1.701127,-0.04870584,0.1310705,1.706034,0.01043916,-0.3882619,1.671779,-0.09432251,-0.1356934,1.724867,0.4098507,-0.05487337,1.584632,NA,NA,NotTracked,Unknown,
0.9399414,-0.3168945,0.09667969,-0.3022461,0.7246094,0.4443359,-1,-1,2,0,-2,0,0,1,3,10,6,1,-20,-9,-4,15,1.6875,1.6875,1.6875,0.9375,0.9375,0.9375,3.031128,3.062798,4.650699,6.762519,5.617781,9.97713,-0.08243915,-0.4282531,1.635396,0.2850565,0.08997902,1.418951,0.1433021,0.403407,1.715976,-0.1264908,-0.4185777,1.645625,0.2682716,0.06382547,1.412582,0.1161278,-0.06861228,1.71987,0.09753969,-0.3980087,1.701229,-0.04916358,0.1315698,1.707198,0.01058047,-0.3879422,1.671669,-0.09406365,-0.13596,1.725304,0.4078365,-0.05485706,1.583614,NA,NA,NotTracked,Unknown,
0.9287109,-0.3242188,0.1074219,-0.3178711,0.6352539,0.4501953,-2,1,17,0,-1,-4,0,-2,46,7,6,1,14,8,27,45,2.5625,2.5625,2.5625,16.5625,16.5625,16.5625,3.028549,3.063156,4.655758,6.783247,5.520531,0.005693705,-0.0830402,-0.4258894,1.636368,0.270686,0.0545944,1.409745,0.1433225,0.4034363,1.716068,-0.125484,-0.4120421,1.639583,0.2158984,0.03983357,1.414444,0.1163421,-0.06810071,1.720177,0.09812253,-0.3969705,1.701463,-0.04909585,0.1314236,1.707706,0.01107491,-0.3872196,1.671624,-0.09407417,-0.1359687,1.725721,0.3973226,-0.05330344,1.58444,NA,NA,NotTracked,Closed,
0.9335938,-0.3286133,0.121582,-0.2446289,0.7460938,0.4208984,0,0,-9,0,-3,-2,-2,-3,-11,13,2,12,2,-1,-44,-21,4.125,4.125,4.125,18.625,18.625,18.625,3.031753,3.070516,4.663145,6.83815,5.246997,0.1058488,-0.08336759,-0.4221348,1.638143,0.2473781,-0.00747821,1.394346,0.1431269,0.4034184,1.716874,-0.125148,-0.4113591,1.643988,0.2182207,-0.03537687,1.396818,0.1163986,-0.06766884,1.720603,0.09840242,-0.3960331,1.701812,-0.04916592,0.1312591,1.70863,0.0114577,-0.3862699,1.672152,-0.09384284,-0.1357841,1.726627,0.3894105,-0.06184146,1.596608,NA,NA,NotTracked,Closed,
0.940918,-0.3295898,0.1206055,-0.1391602,0.8701172,0.390625,-1,1,-8,-1,-1,-1,-1,0,15,-2,-7,5,-3,3,2,-5,7.0625,7.0625,7.0625,-3.9375,-3.9375,-3.9375,3.038969,3.07665,4.665914,6.844022,4.952986,0.1872145,-0.08342639,-0.4250188,1.637134,0.23041,-0.08806911,1.38307,0.1425668,0.4035003,1.718186,-0.1257249,-0.4185952,1.638234,0.1951821,-0.1196188,1.373417,0.1165507,-0.06720545,1.721028,0.09843168,-0.3950461,1.701935,-0.04953956,0.1308575,1.710007,0.01163055,-0.3853869,1.67262,-0.09338012,-0.1361486,1.727589,0.3888091,-0.07008698,1.631778,NA,NA,NotTracked,Unknown,
0.9414063,-0.3364258,0.1035156,0.1391602,1.014648,0.3339844,-1,1,-10,-1,1,0,-1,0,-11,-8,-12,-3,-3,-19,-5,-3,4.1875,4.1875,4.1875,10.4375,10.4375,10.4375,3.044544,3.078146,4.669273,6.860817,4.500151,0.2596805,-0.08326109,-0.4257557,1.638786,0.229503,-0.1804524,1.389588,0.1417835,0.4036344,1.719348,-0.1263996,-0.4062566,1.652357,0.2244614,-0.2147984,1.387167,0.1163431,-0.06678225,1.72154,0.09833995,-0.39449,1.702183,-0.05027636,0.1304836,1.711719,0.01168062,-0.3849688,1.672702,-0.09358787,-0.1363548,1.728703,0.4034933,-0.07134999,1.66674,NA,NA,NotTracked,Unknown,
0.9267578,-0.3496094,0.1064453,0.5200195,0.8945313,0.2885742,-1,-3,17,1,-1,0,-1,1,0,-27,-2,6,7,1,12,17,2.125,2.125,2.125,-9.4375,-9.4375,-9.4375,3.044106,3.080351,4.674087,6.85611,4.132672,0.2598577,-0.08316653,-0.4265544,1.639328,0.2409305,-0.2641745,1.41536,0.1407799,0.4037885,1.720669,-0.1262895,-0.4206657,1.644675,0.2184441,-0.323246,1.387875,0.1158886,-0.06636744,1.721957,0.09740302,-0.3939817,1.70232,-0.05080001,0.1301842,1.712858,0.01092018,-0.3841581,1.672728,-0.09363773,-0.1364966,1.729405,0.3957117,-0.08626118,1.668876,NA,NA,NotTracked,Unknown,
0.9331055,-0.3510742,0.1386719,0.7382813,0.6655273,0.3432617,1,4,-1,-1,-1,-2,-1,-3,7,-12,2,0,0,-1,-6,4,-3.875,-3.875,-3.875,-60.6875,-60.6875,-60.6875,3.0463,3.08134,4.671883,6.818474,3.798154,0.2331249,-0.08362061,-0.4246737,1.641107,0.2457174,-0.3442841,1.445525,0.1400233,0.4037676,1.722068,-0.1254638,-0.4246182,1.642607,0.2321233,-0.40066,1.447917,0.1153969,-0.06621878,1.722569,0.09695994,-0.3938807,1.702528,-0.05136245,0.1296936,1.714177,0.01043958,-0.383827,1.672771,-0.09357236,-0.136707,1.730488,0.3536237,-0.09087742,1.680336,NA,NA,NotTracked,Unknown,
0.9316406,-0.3422852,0.1088867,0.9492188,0.8237305,0.1972656,-3,-5,-5,-2,1,1,0,1,-3,11,-1,-7,-10,2,-8,20,1,1,1,-27.0625,-27.0625,-27.0625,3.047093,3.083672,4.670317,6.851024,3.511637,0.1812567,-0.08358063,-0.4254566,1.641244,0.2680191,-0.3975064,1.486805,0.1391247,0.403729,1.723341,-0.1256303,-0.4073026,1.646693,0.2801797,-0.4294488,1.478471,0.1154458,-0.06617223,1.723229,0.09727901,-0.3938725,1.702906,-0.05181905,0.1300131,1.715007,0.0107627,-0.3837658,1.672931,-0.09402407,-0.1384995,1.731743,0.3357804,-0.1109624,1.682273,NA,NA,NotTracked,Unknown,
0.934082,-0.3408203,0.1118164,1.050781,0.4228516,0.09082031,0,3,2,0,-2,-4,-1,-2,-2,-7,-9,-3,12,16,-2,-6,-1,-1,-1,54.75,54.75,54.75,3.046558,3.084184,4.668445,6.87519,3.239577,0.1453268,-0.08352111,-0.4251238,1.640583,0.2848284,-0.4351564,1.523055,0.138522,0.4035799,1.724334,-0.1253593,-0.4134617,1.641808,0.2583446,-0.4170046,1.559286,0.1159606,-0.06639385,1.724042,0.09966425,-0.3946566,1.703735,-0.05232099,0.1294523,1.716071,0.01326277,-0.3846019,1.67337,-0.09479776,-0.1413772,1.732572,0.3311399,-0.1203887,1.681323,NA,NA,NotTracked,Unknown,
0.9399414,-0.3359375,0.1235352,0.9052734,0.5703125,0.2382813,0,-3,-5,-1,-3,0,0,-1,0,-2,0,-5,-5,-22,-4,-9,0,0,0,47.75,47.75,47.75,3.046121,3.083924,4.668048,6.886243,3.147007,0.2258226,-0.08417929,-0.4286889,1.640595,0.2893292,-0.4538726,1.559787,0.1375963,0.4033863,1.724992,-0.1269739,-0.4087143,1.646198,0.2489196,-0.4298884,1.572896,0.1164104,-0.06670628,1.724645,0.1017311,-0.3953027,1.704417,-0.05272816,0.1291564,1.716759,0.01552854,-0.3852414,1.673704,-0.0955813,-0.1420305,1.732927,0.3299368,-0.1253658,1.682375,NA,NA,NotTracked,Unknown,
0.9262695,-0.3237305,0.1254883,0.9453125,0.2993164,0.1538086,1,-1,0,-3,-2,-1,-2,0,15,2,-1,1,-6,-5,-1,0,2.25,2.25,2.25,16.25,16.25,16.25,3.052329,3.082752,4.667722,6.898071,3.067525,0.2394187,-0.08306377,-0.4365609,1.639017,0.2916511,-0.4686354,1.584755,0.136589,0.4033923,1.725459,-0.1288269,-0.4208322,1.64998,0.2416844,-0.4602699,1.567437,0.1167359,-0.06682061,1.724985,0.1034305,-0.3956188,1.704821,-0.0534832,0.1290077,1.71749,0.01738159,-0.3855805,1.673881,-0.09601521,-0.1424814,1.733418,0.329005,-0.1284349,1.684292,NA,NA,NotTracked,Unknown,
0.9311523,-0.3520508,0.1118164,0.9086914,0.4604492,0.1220703,1,-1,0,0,-2,-2,4,0,-8,0,-1,-2,3,9,-1,-3,-1.9375,-1.9375,-1.9375,20.6875,20.6875,20.6875,3.053695,3.079319,4.664667,6.947587,3.014714,0.2712042,-0.08243799,-0.4393025,1.639717,0.2944473,-0.4693075,1.598844,0.1354885,0.4032581,1.725588,-0.1293325,-0.418066,1.65339,0.2438907,-0.4582233,1.568324,0.1170092,-0.0669607,1.725353,0.1044447,-0.3958497,1.705241,-0.05397147,0.1288894,1.717769,0.01839304,-0.3857958,1.674197,-0.09632906,-0.142834,1.733627,0.3269497,-0.1322959,1.686872,NA,NA,NotTracked,NotTracked,
