ALX,ALY,ALZ,ARX,ARY,ARZ,EMG0L,EMG1L,EMG2L,EMG3L,EMG4L,EMG5L,EMG6L,EMG7L,EMG0R,EMG1R,EMG2R,EMG3R,EMG4R,EMG5R,EMG6R,EMG7R,GLX,GLY,GLZ,GRX,GRY,GRZ,ORL,OPL,OYL,ORR,OPR,OYR,LHNX,LHNY,LHNZ,RHNX,RHNY,RHNZ,HX,HY,HZ,LTX,LTY,LTZ,RTX,RTY,RTZ,SpineMidX,SpineMidY,SpineMidZ,SpineBaseX,SpineBaseY,SpineBaseZ,ShoulderLeftX,ShoulderLeftY,ShoulderLeftZ,ShoulderRightX,ShoulderRightY,ShoulderRightZ,ElbowLeftX,ElbowLeftY,ElbowLeftZ,ElbowRightX,ElbowRightY,ElbowRightZ,Myo_Pose_left,Myo_Pose_Right,Kinect_pose_left,Kinect_pose_right
0.9287109,-0.3120117,0.1157227,0.8144531,0.4443359,0.309082,-6,-1,0,-2,1,1,-1,-1,5,-3,-2,-1,0,0,2,-2,44.1875,44.1875,44.1875,12.25,12.25,12.25,3.345866,3.243546,4.697894,6.566069,3.352702,9.50549,-0.07812703,-0.3805609,1.585818,0.2406234,-0.3882908,1.539098,0.1190946,0.4018139,1.6848,-0.0345162,-0.3593696,1.580878,0.2057471,-0.3673833,1.559821,0.1025092,-0.0640603,1.706196,0.09085104,-0.390327,1.689825,-0.07252382,0.1414779,1.701982,0.004866292,-0.3808559,1.659123,-0.1076232,-0.1263279,1.7052,0.3072212,-0.1147773,1.677735,NA,NA,NotTracked,NotTracked,
0.8769531,-0.4731445,0.2426758,0.8227539,0.3984375,0.3154297,-9,2,-5,-1,3,9,8,2,1,-1,0,0,0,-7,-3,-1,-5.125,-5.125,-5.125,-1.8125,-1.8125,-1.8125,3.337343,3.260243,4.700792,6.565722,3.367032,9.504432,-0.07710002,-0.3776469,1.586434,0.2411053,-0.3874236,1.536799,0.1192666,0.4017825,1.68517,-0.03246276,-0.3392581,1.583952,0.2090078,-0.3630847,1.563342,0.1024643,-0.06408813,1.706335,0.09058286,-0.390404,1.689902,-0.0719093,0.1411522,1.702141,0.004436924,-0.3809582,1.659295,-0.1068251,-0.1261519,1.706945,0.307453,-0.1136655,1.678591,NA,NA,NotTracked,NotTracked,
0.8857422,-0.3603516,0.1845703,0.8105469,0.4775391,0.3232422,2,-1,-43,-8,0,0,3,-2,6,9,0,-1,0,-6,-10,1,-20.5625,-20.5625,-20.5625,-8.0625,-8.0625,-8.0625,3.329153,3.263628,4.691209,6.581036,3.368279,9.483665,-0.07646463,-0.3755768,1.58823,0.2432734,-0.3871844,1.536573,0.1193513,0.4018939,1.685836,-0.03301185,-0.3506748,1.582087,0.2097699,-0.3663246,1.56382,0.1024375,-0.0641351,1.706626,0.09047922,-0.3904763,1.690012,-0.07166913,0.1409752,1.702625,0.004313309,-0.381106,1.65948,-0.1063416,-0.1257811,1.707971,0.3076274,-0.1136602,1.678799,NA,NA,NotTracked,NotTracked,
0.8720703,-0.480957,0.2905273,0.8520508,0.3642578,0.2836914,-11,0,-9,-7,-11,-13,-2,-4,0,-9,-4,-2,-6,-2,2,-9,-17.625,-17.625,-17.625,0.1875,0.1875,0.1875,3.290182,3.263173,4.67987,6.579807,3.352434,9.463631,-0.07603984,-0.3746956,1.587297,0.2460127,-0.38781,1.53648,0.1193377,0.4019806,1.686047,-0.03186895,-0.3526377,1.58053,0.2097701,-0.368418,1.562261,0.1024027,-0.06408668,1.70673,0.09042091,-0.3904989,1.690034,-0.07158334,0.1409737,1.702941,0.004228099,-0.3811802,1.659531,-0.1060183,-0.125544,1.708632,0.3076886,-0.1139291,1.678757,NA,NA,NotTracked,NotTracked,
0.8642578,-0.4228516,0.2167969,0.8486328,0.4418945,0.2978516,-16,-3,-12,-5,-6,-14,-19,-5,8,-8,-4,-3,-1,-1,8,8,18.9375,18.9375,18.9375,-7.75,-7.75,-7.75,3.307859,3.268183,4.681512,6.597894,3.342252,9.425541,-0.07756924,-0.3750708,1.587535,0.2500058,-0.3907299,1.537559,0.1192878,0.4020264,1.686599,-0.03231226,-0.3536468,1.582162,0.2145563,-0.3708097,1.565544,0.1024778,-0.06412405,1.707033,0.0905016,-0.3906167,1.690214,-0.07171123,0.1408648,1.703613,0.00435136,-0.381303,1.659736,-0.1059939,-0.1257783,1.708833,0.3078947,-0.1149706,1.67874,NA,NA,NotTracked,NotTracked,
0.890625,-0.4667969,0.2041016,0.9160156,0.3945313,0.277832,0,1,16,4,11,11,-7,-14,21,-4,1,-3,-1,4,19,10,10.25,10.25,10.25,-43.9375,-43.9375,-43.9375,3.299823,3.279042,4.71345,6.582801,3.351941,9.395971,-0.0795375,-0.3737363,1.584835,0.2532103,-0.3902144,1.53629,0.1193177,0.4020074,1.68679,-0.032029,-0.3574867,1.581942,0.2175375,-0.3782254,1.564358,0.1026261,-0.06415006,1.707286,0.09065188,-0.3906967,1.690385,-0.07185193,0.1407457,1.704179,0.004533212,-0.381406,1.659927,-0.1060171,-0.1257085,1.7091,0.3080797,-0.1155761,1.679075,NA,NA,NotTracked,NotTracked,
0.9887695,-0.3608398,0.1860352,0.9321289,0.4667969,0.3969727,-11,-12,1,1,18,-16,33,4,15,-28,-11,-10,-7,-7,-13,0,80.25,80.25,80.25,-27.625,-27.625,-27.625,3.352349,3.313639,4.773763,6.543565,3.412691,9.368201,-0.08467047,-0.3599026,1.575335,0.2544511,-0.3806831,1.525861,0.1192726,0.4020604,1.687158,-0.03683721,-0.3618153,1.581104,0.2112866,-0.4000501,1.539182,0.1027118,-0.06424527,1.707545,0.09072304,-0.3908552,1.690631,-0.07193598,0.1406635,1.704463,0.004665844,-0.3815967,1.660283,-0.1062417,-0.1257449,1.709772,0.308588,-0.1164519,1.6798,NA,NA,Unknown,NotTracked,
0.8974609,-0.5009766,0.3208008,0.6508789,0.628418,0.3989258,12,-9,0,2,-1,15,38,17,31,14,7,4,1,1,12,22,49.6875,49.6875,49.6875,1.3125,1.3125,1.3125,3.409793,3.421959,4.853269,6.547265,3.599152,9.338187,-0.0725724,-0.3432747,1.57012,0.2366907,-0.3630784,1.532585,0.1192636,0.4020554,1.687182,-0.05159232,-0.4098295,1.592515,0.2162987,-0.4297265,1.561382,0.1026543,-0.06425011,1.707742,0.09045199,-0.3908743,1.691212,-0.07186566,0.1406588,1.704525,0.004484463,-0.3815541,1.6607,-0.1065471,-0.1242291,1.712679,0.3105638,-0.1152668,1.683871,NA,NA,Unknown,NotTracked,
0.6889648,-0.6005859,0.4116211,0.6054688,0.574707,0.4257813,-28,-9,1,-4,-17,-7,6,-26,16,-22,2,10,0,-3,-19,46,19.1875,19.1875,19.1875,-10.5,-10.5,-10.5,3.424416,3.587044,4.899166,6.559306,3.741035,9.309332,-0.08903077,-0.3016319,1.512519,0.2310963,-0.3310348,1.523355,0.1192207,0.402023,1.687155,-0.06635296,-0.2930244,1.451714,0.1776318,-0.3615278,1.555709,0.1023968,-0.06431432,1.708124,0.08982786,-0.3908502,1.692461,-0.07160468,0.1406278,1.7044,0.004115224,-0.3813972,1.661591,-0.1055773,-0.1149823,1.719061,0.3124606,-0.1106617,1.688907,NA,NA,Unknown,Unknown,
0.6279297,-0.6118164,0.3974609,0.6601563,0.6269531,0.4042969,-6,2,2,-2,30,55,31,-23,-21,-37,-13,1,4,1,-5,22,18.4375,18.4375,18.4375,1.6875,1.6875,1.6875,3.437883,3.789569,4.924553,6.581403,3.849582,9.279722,-0.1002718,-0.2557691,1.471597,0.2305948,-0.3098999,1.519045,0.1191738,0.4019886,1.687148,-0.05466213,-0.2489954,1.459792,0.2002491,-0.2941986,1.427917,0.1021085,-0.06431893,1.708585,0.08921389,-0.3905545,1.693486,-0.07121041,0.1407991,1.70444,0.003625142,-0.3809366,1.662587,-0.1052895,-0.1059899,1.72224,0.3132141,-0.1059064,1.691275,NA,NA,Unknown,Unknown,
0.7280273,-0.5917969,0.3769531,0.6425781,0.6269531,0.4179688,9,-4,-3,-4,19,56,10,31,-31,36,14,-6,2,-1,0,8,3.25,3.25,3.25,7.375,7.375,7.375,3.452489,3.871216,4.930525,6.598505,3.928595,9.267487,-0.09574148,-0.2334342,1.467294,0.2458309,-0.2578799,1.42917,0.1190273,0.4018575,1.687274,-0.04955555,-0.230583,1.4475,0.1971214,-0.2634167,1.423238,0.1019235,-0.06435082,1.709064,0.08882796,-0.3904443,1.694086,-0.07079361,0.1407298,1.704703,0.003378559,-0.3807746,1.663091,-0.104065,-0.1022105,1.722712,0.3136744,-0.1031597,1.692373,NA,NA,Unknown,Unknown,
0.7148438,-0.5776367,0.4145508,0.590332,0.6738281,0.4521484,-7,-3,7,9,15,5,-6,5,-8,-19,-8,-1,-4,-12,-15,1,-0.8125,-0.8125,-0.8125,13.9375,13.9375,13.9375,3.464481,3.915544,4.925106,6.605569,3.995327,9.274038,-0.09362196,-0.2249891,1.470124,0.2453183,-0.2437917,1.423891,0.1188142,0.4019373,1.687805,-0.04891236,-0.2203836,1.439636,0.1947882,-0.2466402,1.417875,0.101809,-0.06430152,1.709444,0.08859042,-0.3902903,1.694463,-0.07051557,0.1407389,1.704948,0.003171718,-0.3805644,1.663585,-0.1031989,-0.09618353,1.723041,0.314103,-0.1003472,1.692841,NA,NA,Closed,Unknown,
0.6142578,-0.6591797,0.4365234,0.4921875,0.659668,0.4663086,-2,-8,-6,4,-1,1,38,-2,-26,17,11,2,2,-4,-3,4,-2.3125,-2.3125,-2.3125,5.5,5.5,5.5,3.46428,3.953782,4.91795,6.606218,4.040429,9.289521,-0.09073309,-0.2172866,1.466596,0.2437187,-0.2346903,1.425282,0.1187052,0.4020022,1.688093,-0.04603028,-0.2124898,1.447833,0.1888905,-0.2365127,1.420727,0.1017772,-0.0642027,1.709644,0.08846807,-0.3901106,1.694692,-0.07021812,0.1408384,1.705175,0.003120454,-0.3803674,1.663908,-0.1025961,-0.09303996,1.722945,0.3145506,-0.09872063,1.693308,NA,NA,Unknown,Unknown,
0.6083984,-0.6733398,0.4272461,0.5322266,0.7568359,0.4536133,-2,1,2,10,24,-5,-20,-12,8,43,8,3,-5,1,25,39,4.25,4.25,4.25,3.125,3.125,3.125,3.463845,3.965144,4.920388,6.606574,4.071358,9.297412,-0.08980506,-0.2138279,1.467556,0.2414624,-0.2291628,1.426699,0.1185948,0.4019917,1.688348,-0.04539769,-0.2072636,1.443542,0.1902338,-0.2291296,1.419438,0.1017309,-0.06411478,1.709852,0.08844174,-0.3900205,1.694783,-0.06983516,0.1408742,1.705247,0.00312515,-0.3802866,1.664032,-0.1020353,-0.09248018,1.723028,0.3148963,-0.09722226,1.693227,NA,NA,Closed,Unknown,
0.5791016,-0.6811523,0.4711914,0.484375,0.6860352,0.4428711,19,-11,-7,-5,10,28,3,-10,-5,-7,-7,-3,-4,3,14,4,-0.5625,-0.5625,-0.5625,5.25,5.25,5.25,3.458206,3.981141,4.917099,6.600667,4.089332,9.304991,-0.08830523,-0.210949,1.46708,0.2400733,-0.2215839,1.42784,0.1185023,0.4019329,1.688559,-0.07822936,-0.1779161,1.446667,0.1877901,-0.2256238,1.414,0.1017186,-0.06411427,1.71006,0.08842028,-0.3899493,1.694882,-0.06943375,0.1409886,1.705376,0.003136691,-0.3802311,1.664164,-0.1016757,-0.09028232,1.723581,0.3151214,-0.09657833,1.693092,NA,NA,Closed,Unknown,
0.546875,-0.6953125,0.4472656,0.4472656,0.715332,0.4541016,18,0,3,7,2,-7,21,6,14,3,-6,-2,3,-5,-23,-11,-0.375,-0.375,-0.375,4.1875,4.1875,4.1875,3.455937,3.999785,4.918359,6.60747,4.09739,9.307866,-0.0891474,-0.2079599,1.465232,0.2384967,-0.2207311,1.427622,0.1185122,0.4017761,1.688626,-0.04332408,-0.1991757,1.444268,0.2198132,-0.1892592,1.413243,0.1017404,-0.06410997,1.710144,0.08839411,-0.3899086,1.694953,-0.06901111,0.1409089,1.705289,0.00312488,-0.3801966,1.664259,-0.1017921,-0.08843097,1.723582,0.3152785,-0.09613018,1.693061,NA,NA,Unknown,Unknown,
0.5068359,-0.6616211,0.4404297,0.4091797,0.6806641,0.4462891,-16,-9,-3,10,16,10,8,-30,3,-12,-12,-11,-19,-31,31,7,-12.3125,-12.3125,-12.3125,16.1875,16.1875,16.1875,3.439752,4.006963,4.915399,6.612195,4.070134,9.319469,-0.08814301,-0.2102433,1.464174,0.236556,-0.2259519,1.4247,0.11845,0.4017663,1.688883,-0.04478644,-0.2117472,1.454227,0.2241189,-0.1948563,1.408496,0.1016955,-0.06410159,1.710302,0.08830589,-0.3897923,1.695149,-0.06885065,0.1410185,1.705489,0.003063365,-0.380094,1.664489,-0.1018066,-0.0877071,1.723462,0.3153421,-0.09570111,1.692608,NA,NA,Closed,Unknown,
0.5522461,-0.5976563,0.3833008,0.5878906,0.769043,0.3696289,-2,-1,85,24,1,-7,-13,-14,16,-24,-114,-58,-78,17,94,21,-29.75,-29.75,-29.75,-19.375,-19.375,-19.375,3.411205,3.970745,4.913889,6.607524,4.003564,9.350133,-0.09134371,-0.2291851,1.455753,0.2359801,-0.2493119,1.432484,0.1184561,0.4017627,1.688902,-0.05987437,-0.2141656,1.429796,0.2685699,-0.2432844,1.388445,0.1016595,-0.06410945,1.710462,0.08827267,-0.3897604,1.695262,-0.0688013,0.1409438,1.705546,0.00303034,-0.3800553,1.664633,-0.100809,-0.09022217,1.721587,0.3153029,-0.09515122,1.690981,NA,NA,Unknown,Unknown,
0.5751953,-0.699707,0.4628906,0.7036133,0.3334961,0.3774414,46,-16,72,9,12,6,8,-1,1,9,41,-20,5,-18,47,31,3.75,3.75,3.75,-0.625,-0.625,-0.625,3.388568,3.873906,4.836936,6.54528,3.916039,9.358711,-0.08069255,-0.2874874,1.478348,0.2353429,-0.2994922,1.447789,0.1184016,0.4017532,1.689077,-0.03522306,-0.2879393,1.4709,0.2622384,-0.2950069,1.397,0.1016466,-0.06417741,1.71072,0.08801268,-0.3899825,1.695496,-0.06881258,0.1408301,1.705626,0.002838946,-0.380279,1.665008,-0.1017395,-0.09073131,1.719099,0.3146628,-0.09459975,1.686684,NA,NA,Unknown,Unknown,
0.7368164,-0.4770508,0.4819336,0.8662109,0.5004883,0.4140625,43,35,52,23,37,33,-5,-37,-5,-5,-15,-4,34,3,-5,22,-21.25,-21.25,-21.25,-27.5625,-27.5625,-27.5625,3.413823,3.757843,4.738965,6.553257,3.781033,9.336473,-0.06747667,-0.3287832,1.526329,0.2321402,-0.3301918,1.486539,0.1184762,0.4019472,1.689825,-0.01219771,-0.3309237,1.574471,0.2517901,-0.3347686,1.420215,0.1017065,-0.06436795,1.710959,0.0882565,-0.3905174,1.695493,-0.06880385,0.1404948,1.705756,0.003123869,-0.3810165,1.665143,-0.1020663,-0.09307937,1.715916,0.3127998,-0.09704852,1.68271,NA,NA,Closed,Unknown,
1.121582,-0.5029297,0.4291992,0.6635742,0.6655273,0.3378906,76,39,91,5,13,1,15,73,2,0,6,0,0,11,-17,20,-18.5,-18.5,-18.5,-6.4375,-6.4375,-6.4375,3.443596,3.629303,4.738642,6.572614,3.665755,9.322241,-0.0567834,-0.3380259,1.559966,0.2279473,-0.3458619,1.516812,0.1185595,0.4021494,1.690766,-0.004411925,-0.363147,1.570082,0.265936,-0.3589543,1.448117,0.1018565,-0.06446148,1.711073,0.08873008,-0.3908888,1.695344,-0.0688867,0.1401949,1.705814,0.003523022,-0.3815424,1.66516,-0.102065,-0.09581482,1.714702,0.3116836,-0.09932248,1.681328,NA,NA,Unknown,Closed,
0.7744141,-0.6352539,0.3706055,0.7553711,0.534668,0.375,43,20,4,-15,17,23,0,11,3,6,-4,-4,-8,-3,10,-39,-5,-5,-5,14.125,14.125,14.125,3.432008,3.569096,4.743472,6.561562,3.592515,9.326136,-0.06126454,-0.3405188,1.571074,0.2280525,-0.3565731,1.53417,0.1184625,0.4023678,1.691348,-0.005920698,-0.3456404,1.571204,0.2718996,-0.3715667,1.466894,0.1018448,-0.06453313,1.711127,0.08879317,-0.3912689,1.695193,-0.0690892,0.1397257,1.705878,0.003490793,-0.3820688,1.66508,-0.1021303,-0.09944527,1.714425,0.3106636,-0.1025385,1.680614,NA,NA,Unknown,Unknown,
0.855957,-0.5541992,0.3408203,0.7695313,0.5693359,0.3808594,-15,-11,28,4,-9,-5,-29,-78,-4,-8,-5,-11,9,4,-56,-40,2.8125,2.8125,2.8125,-2.875,-2.875,-2.875,3.412035,3.531308,4.779879,6.550273,3.556533,9.319139,-0.06632528,-0.3441852,1.574476,0.2520311,-0.3611282,1.515882,0.1183507,0.4023902,1.691819,-0.008270146,-0.3501154,1.57282,0.2869098,-0.3755555,1.49021,0.1018361,-0.06458005,1.711299,0.08890709,-0.3914337,1.695202,-0.06926884,0.1395096,1.7061,0.003537728,-0.3822093,1.665104,-0.1028629,-0.1038384,1.714027,0.310296,-0.1053423,1.680611,NA,NA,Unknown,Unknown ,
0.8154297,-0.5498047,0.3461914,0.7324219,0.5371094,0.3867188,45,7,44,21,15,15,7,16,5,24,12,0,4,-9,10,-1,8.1875,8.1875,8.1875,1.875,1.875,1.875,3.399773,3.531889,4.802546,6.552916,3.57454,9.313592,-0.0684332,-0.3449299,1.573719,0.2531127,-0.3619821,1.515135,0.1182613,0.4023965,1.69214,-0.01075336,-0.3554211,1.574528,0.2816684,-0.3757874,1.480122,0.1018318,-0.06466153,1.71139,0.08898547,-0.3917394,1.695176,-0.06953127,0.1392744,1.706372,0.003578733,-0.3826471,1.665088,-0.103432,-0.1044798,1.714163,0.3099996,-0.106436,1.68113,NA,NA,Unknown,Unknown,
0.7719727,-0.4931641,0.3710938,0.7719727,0.4985352,0.3579102,36,10,66,17,14,8,15,8,-7,-7,-14,14,2,-8,4,16,-4.625,-4.625,-4.625,4.875,4.875,4.875,3.383373,3.548769,4.828604,6.560096,3.586275,9.309237,-0.07111834,-0.3451815,1.571519,0.2521549,-0.3604871,1.512198,0.1182732,0.4024959,1.692735,-0.01542058,-0.3636094,1.577679,0.2818617,-0.3771945,1.473183,0.1018261,-0.06474657,1.711566,0.0890022,-0.3918565,1.695197,-0.06968226,0.1391764,1.706635,0.00357817,-0.3827697,1.665129,-0.1042169,-0.1061487,1.713546,0.3096254,-0.1076684,1.681331,NA,NA,Unknown,Unknown,
0.8168945,-0.4931641,0.3266602,0.8168945,0.4882813,0.3540039,-7,-1,-15,8,3,5,11,12,-4,-8,2,-1,-2,-6,-8,7,-4.125,-4.125,-4.125,0.875,0.875,0.875,3.380589,3.547923,4.826127,6.558414,3.585295,9.30974,-0.07128134,-0.3445078,1.569223,0.2515074,-0.3591665,1.509343,0.1183125,0.4026518,1.69337,-0.01432735,-0.3618777,1.575769,0.2763982,-0.366366,1.468985,0.1018354,-0.06482551,1.711807,0.08892019,-0.3919872,1.695286,-0.06981107,0.1389872,1.706941,0.003436168,-0.3828396,1.665269,-0.1045365,-0.1071504,1.713008,0.309558,-0.1077756,1.681183,NA,NA,Unknown,Unknown,
0.8032227,-0.5097656,0.2973633,0.7543945,0.4750977,0.3496094,9,-8,92,41,6,4,19,-12,-6,-5,-8,-27,4,-4,61,-23,0.1875,0.1875,0.1875,-0.5,-0.5,-0.5,3.381379,3.547852,4.826451,6.553074,3.578439,9.316075,-0.07070019,-0.3449155,1.569231,0.251568,-0.3595588,1.508662,0.1183121,0.4028019,1.694026,-0.01409485,-0.3634409,1.576098,0.2799052,-0.3730226,1.470253,0.1018749,-0.06488425,1.711894,0.08895843,-0.3921217,1.695288,-0.06983424,0.1389312,1.707021,0.003455056,-0.3829472,1.665284,-0.1050167,-0.1068576,1.712864,0.309465,-0.1080348,1.681016,NA,NA,Unknown,Unknown,
0.7709961,-0.5678711,0.3037109,0.7573242,0.5117188,0.3730469,5,16,41,7,20,16,6,30,0,-4,4,1,-5,3,3,-21,-11.5625,-11.5625,-11.5625,-2.25,-2.25,-2.25,3.361887,3.546346,4.824691,6.549826,3.569715,9.317502,-0.07104322,-0.3449289,1.568514,0.2529121,-0.3602897,1.509884,0.1183083,0.4029394,1.694474,-0.01328951,-0.3595722,1.575181,0.2818785,-0.3763503,1.469133,0.1018401,-0.06492747,1.712022,0.08897762,-0.3922567,1.695325,-0.06988099,0.138764,1.707128,0.003470417,-0.3830806,1.665355,-0.10499,-0.1079289,1.712708,0.3094564,-0.1080488,1.681005,NA,NA,Unknown,Unknown,
0.7641602,-0.590332,0.3461914,0.7456055,0.5058594,0.3867188,40,17,47,9,2,13,5,33,-5,-7,-9,-13,-9,2,-12,-27,-9.6875,-9.6875,-9.6875,1.125,1.125,1.125,3.346913,3.546231,4.831964,6.544262,3.56295,9.32655,-0.07092695,-0.3457027,1.569235,0.2533074,-0.3616753,1.512742,0.1183512,0.4030616,1.695094,-0.01556197,-0.3704118,1.576505,0.2749105,-0.3747208,1.467282,0.1018832,-0.06495874,1.712305,0.08904465,-0.3923748,1.695422,-0.06995881,0.1384845,1.707519,0.003532304,-0.383191,1.665492,-0.105246,-0.1094248,1.712635,0.3095024,-0.1097213,1.681029,NA,NA,Unknown,Unknown,
0.7885742,-0.5322266,0.3339844,0.7607422,0.5151367,0.3764648,26,17,72,15,1,3,1,1,4,2,-1,5,5,-3,6,10,-5.0625,-5.0625,-5.0625,-0.4375,-0.4375,-0.4375,3.351542,3.54433,4.830329,6.539208,3.562236,9.332885,-0.07071634,-0.3463812,1.569832,0.2527834,-0.3629052,1.513545,0.1182624,0.4031363,1.695521,-0.08646744,-0.430847,1.608,0.2765076,-0.3771444,1.467518,0.1018845,-0.06502053,1.712424,0.08906769,-0.3924578,1.695405,-0.07007215,0.1383552,1.707759,0.003520478,-0.3832993,1.665487,-0.1054085,-0.1091483,1.712725,0.3096324,-0.1100006,1.680913,NA,NA,Unknown,Unknown,
0.769043,-0.5561523,0.3408203,0.7680664,0.5229492,0.3769531,15,6,18,11,-7,-7,11,41,-2,3,3,-9,5,-1,0,25,0.3125,0.3125,0.3125,-1.125,-1.125,-1.125,3.360534,3.544973,4.821751,6.533145,3.563642,9.337987,-0.0701592,-0.3464378,1.569113,0.2518043,-0.3631893,1.512725,0.118216,0.4031522,1.695875,-0.01580278,-0.3642169,1.576971,0.2690861,-0.3758374,1.463769,0.1018659,-0.06509452,1.712613,0.08909687,-0.3925667,1.695482,-0.07014497,0.1382504,1.707953,0.003533247,-0.3833954,1.665564,-0.1054835,-0.1108093,1.712807,0.3093639,-0.1110825,1.681368,NA,NA,Unknown,Unknown,
0.8208008,-0.5053711,0.2739258,0.7553711,0.5268555,0.3491211,47,30,-26,15,2,-12,7,14,4,-15,-7,5,-1,2,-2,10,4.0625,4.0625,4.0625,-16.3125,-16.3125,-16.3125,3.363065,3.543693,4.823206,6.529822,3.566991,9.327128,-0.07022359,-0.3462087,1.568011,0.2511801,-0.3627422,1.511116,0.1181397,0.4031824,1.695975,-0.01569751,-0.3688969,1.576393,0.281004,-0.4128297,1.49725,0.1018475,-0.0651052,1.712658,0.08907074,-0.392572,1.695487,-0.07016034,0.1382584,1.70799,0.003474604,-0.3833963,1.665576,-0.105499,-0.1111468,1.712673,0.3093583,-0.1109725,1.681466,NA,NA,Unknown,Unknown,
0.7949219,-0.5444336,0.3085938,0.7695313,0.4804688,0.3666992,10,-9,-37,-3,-2,-7,-17,25,6,1,-5,-2,-5,3,-14,21,-6.1875,-6.1875,-6.1875,-1.9375,-1.9375,-1.9375,3.360451,3.545006,4.81931,6.518177,3.560142,9.321637,-0.06992917,-0.3466366,1.56774,0.2520347,-0.3632048,1.511658,0.1181124,0.403188,1.696108,-0.01606909,-0.3695084,1.57646,0.2817226,-0.3813789,1.469248,0.1018549,-0.06514426,1.71276,0.08906841,-0.3926121,1.695513,-0.07042713,0.1382817,1.708293,0.003464145,-0.3834759,1.665638,-0.1055668,-0.111493,1.712555,0.3092097,-0.1119168,1.681708,NA,NA,Unknown,Unknown,
0.815918,-0.5244141,0.3183594,0.7705078,0.4697266,0.3735352,17,-17,37,4,-9,-8,-14,-39,1,0,-3,-2,1,-4,4,3,-8.5,-8.5,-8.5,0.9375,0.9375,0.9375,3.348985,3.554521,4.815709,6.511232,3.552699,9.326028,-0.07203063,-0.3464741,1.565084,0.2522877,-0.3640225,1.511955,0.1180888,0.4032153,1.696138,-0.01904911,-0.3714938,1.577051,0.2732845,-0.377555,1.461877,0.1018502,-0.06516155,1.712796,0.08901172,-0.3926438,1.695503,-0.0704573,0.1382497,1.708311,0.003374706,-0.3835239,1.665638,-0.1057315,-0.1098182,1.712752,0.3090784,-0.1126873,1.681759,NA,NA,Unknown,Closed,
0.7832031,-0.5219727,0.3066406,0.7368164,0.487793,0.3686523,1,-5,8,2,0,-1,4,-10,-4,-1,-2,2,2,-1,49,-2,-1.3125,-1.3125,-1.3125,14.0625,14.0625,14.0625,3.350876,3.550452,4.813998,6.51837,3.53367,9.341876,-0.0734635,-0.3471403,1.566117,0.2516977,-0.366198,1.513394,0.1180935,0.4032107,1.696103,-0.0194676,-0.3699755,1.577734,0.2796136,-0.3815763,1.469151,0.101876,-0.06521165,1.712801,0.08905467,-0.3927547,1.695505,-0.07050072,0.1381803,1.708345,0.00340861,-0.3836614,1.66559,-0.1056672,-0.1103391,1.71255,0.3090247,-0.1130467,1.681887,NA,NA,Unknown,Unknown,
0.7714844,-0.4750977,0.2817383,0.6894531,0.4433594,0.3999023,2,40,8,-2,6,15,12,9,17,0,-5,-3,0,0,-4,11,-12.3125,-12.3125,-12.3125,28.1875,28.1875,28.1875,3.348285,3.52471,4.805568,6.523817,3.496644,9.377979,-0.07323667,-0.3531491,1.570329,0.2505142,-0.3739361,1.517884,0.1180978,0.4032077,1.696113,-0.01970429,-0.3561164,1.579543,0.2768674,-0.3890419,1.470776,0.101844,-0.06529266,1.712912,0.0890186,-0.3928499,1.695614,-0.07054836,0.1381364,1.708364,0.003346278,-0.3837585,1.665682,-0.1060466,-0.1122716,1.712116,0.3089716,-0.1145521,1.682261,NA,NA,Unknown,Closed,
0.7368164,-0.4887695,0.3242188,0.8398438,0.3725586,0.3222656,5,0,2,4,0,-3,-13,6,-5,-1,1,-1,-2,-3,-16,-3,-28.9375,-28.9375,-28.9375,22.3125,22.3125,22.3125,3.327511,3.465343,4.78516,6.526971,3.419213,9.418474,-0.08777753,-0.3645828,1.570374,0.2486545,-0.3893558,1.528046,0.1181181,0.4032161,1.696126,-0.04349927,-0.357279,1.559054,0.2834189,-0.4233193,1.507273,0.1018793,-0.06536026,1.712907,0.08906092,-0.3929592,1.695524,-0.0706046,0.137952,1.708354,0.003346998,-0.3839081,1.66556,-0.1063067,-0.1156234,1.71156,0.308726,-0.1159106,1.681874,NA,NA,Unknown,Closed,
0.8818359,-0.4160156,0.2490234,0.8925781,0.4360352,0.315918,4,12,-10,-2,-4,0,-4,-1,2,3,3,0,1,1,-3,-1,-26.1875,-26.1875,-26.1875,18,18,18,3.312243,3.372916,4.757701,6.523592,3.297697,9.500257,-0.07757875,-0.3767383,1.586074,0.2421147,-0.402987,1.549253,0.1180743,0.4032286,1.696156,-0.0300493,-0.332653,1.581125,0.2824665,-0.4276252,1.52485,0.1018563,-0.06547741,1.712815,0.08923195,-0.3931624,1.695126,-0.07078429,0.1378057,1.708437,0.003443197,-0.3842306,1.665199,-0.1056889,-0.1174637,1.711014,0.3078614,-0.1172956,1.681428,NA,NA,Unknown,Unknown,
0.9296875,-0.5014648,0.2602539,0.9326172,0.3081055,0.1240234,-8,-8,-11,2,0,-1,-4,-5,-6,-7,-10,-42,-12,6,-10,-7,-21.25,-21.25,-21.25,39.1875,39.1875,39.1875,3.302683,3.295406,4.717647,6.53895,3.198888,9.539436,-0.06757259,-0.3897963,1.599711,0.2401598,-0.4113409,1.569245,0.1180763,0.4032577,1.696304,-0.02374126,-0.362784,1.579125,0.2859414,-0.4359771,1.562539,0.1018442,-0.06551564,1.712777,0.08924752,-0.3931457,1.694905,-0.07076164,0.1376054,1.708459,0.003430483,-0.38419,1.66498,-0.1040046,-0.1201432,1.710733,0.3064584,-0.1187907,1.681348,NA,NA,Unknown,NotTracked,
0.9082031,-0.3862305,0.0859375,0.9472656,0.4555664,0.2026367,-7,-7,5,20,4,-1,-4,-7,1,0,1,14,4,4,-2,0,-5.8125,-5.8125,-5.8125,38.75,38.75,38.75,3.291389,3.235491,4.712642,6.638726,3.156566,9.50111,-0.06544366,-0.3936697,1.598494,0.2377336,-0.4165618,1.572,0.1180354,0.4032798,1.696321,-0.0195429,-0.3825013,1.575447,0.2790185,-0.4365794,1.55843,0.1017964,-0.06564853,1.712591,0.08926688,-0.3932498,1.694533,-0.07015115,0.136801,1.707513,0.003401419,-0.3842282,1.664603,-0.1023839,-0.1221041,1.709944,0.3058635,-0.1196641,1.681306,NA,NA,NotTracked,NotTracked,
0.9482422,-0.5820313,0.1279297,0.8598633,0.3183594,0.3334961,-9,-7,0,5,0,4,12,3,0,0,-1,-3,-2,0,2,0,-25.4375,-25.4375,-25.4375,2.4375,2.4375,2.4375,3.183597,3.226272,4.765866,6.632334,3.166383,9.546064,-0.06662437,-0.393863,1.599866,0.2406253,-0.4154203,1.575109,0.1179727,0.4033333,1.696399,-0.02159392,-0.3608095,1.579606,0.2860767,-0.4224168,1.581,0.1017714,-0.06572659,1.712568,0.08931816,-0.3932907,1.694435,-0.07005072,0.1364923,1.707438,0.003413983,-0.3842558,1.664544,-0.1023833,-0.1225746,1.709589,0.3055955,-0.120329,1.681348,NA,NA,NotTracked,NotTracked,
0.8686523,-0.3647461,0.2871094,0.8857422,0.3588867,0.1704102,5,-9,-1,1,-3,1,-2,-1,-3,-3,2,5,0,-2,-1,-2,-43.0625,-43.0625,-43.0625,13.3125,13.3125,13.3125,3.185728,3.214834,4.698134,6.63275,3.166924,9.563538,-0.06615148,-0.3965948,1.599,0.2389742,-0.4161053,1.573906,0.1178897,0.4033923,1.696419,-0.02007645,-0.3833474,1.577156,0.2855193,-0.4415392,1.57825,0.1017617,-0.06576693,1.712535,0.0893511,-0.3933077,1.694352,-0.06990933,0.1362983,1.707396,0.003429567,-0.3842635,1.664465,-0.1022433,-0.1233718,1.709025,0.3055165,-0.1203666,1.681362,NA,NA,NotTracked,NotTracked,
0.9072266,-0.4106445,0.1123047,0.9086914,0.3588867,0.171875,3,24,-1,-3,-4,-2,0,3,0,0,-1,-1,-1,9,-3,-2,3.5625,3.5625,3.5625,-8.375,-8.375,-8.375,3.169243,3.205632,4.7236,6.66129,3.166211,9.538362,-0.06589577,-0.3964787,1.599452,0.2376676,-0.4166291,1.573417,0.1178023,0.4034253,1.696413,-0.02019347,-0.380894,1.577213,0.2811669,-0.417884,1.575417,0.1017128,-0.065837,1.712407,0.08936517,-0.3932519,1.694112,-0.06981814,0.1361057,1.707387,0.003372894,-0.3841825,1.664253,-0.1018727,-0.1250026,1.708139,0.3053505,-0.1205023,1.681292,NA,NA,NotTracked,NotTracked,
0.9155273,-0.3959961,0.1782227,0.8886719,0.3232422,0.2661133,-3,-14,-1,-1,-1,-3,-5,-7,-1,-1,1,2,0,-3,8,-1,7.1875,7.1875,7.1875,-1.25,-1.25,-1.25,3.173065,3.209227,4.730136,6.643531,3.164745,9.544005,-0.06613654,-0.3966879,1.598669,0.2379136,-0.41685,1.572713,0.1176864,0.4034877,1.696623,-0.02136303,-0.3725664,1.5775,0.283284,-0.434405,1.57183,0.1016528,-0.06593363,1.712367,0.08931623,-0.3932855,1.694025,-0.06979211,0.1359684,1.707559,0.003336643,-0.3841868,1.664261,-0.101796,-0.1252923,1.707882,0.3050717,-0.120992,1.681356,NA,NA,NotTracked,NotTracked,
0.8999023,-0.3686523,0.2045898,0.8847656,0.3466797,0.2202148,2,8,-8,-4,0,0,2,-2,0,1,-1,0,0,-1,1,-1,-5.5,-5.5,-5.5,2.125,2.125,2.125,3.17429,3.209068,4.724302,6.641764,3.165703,9.547585,-0.06597746,-0.3969934,1.598687,0.2374095,-0.416842,1.572262,0.1175451,0.403576,1.696696,-0.02105724,-0.3749408,1.577708,0.2761352,-0.4326534,1.557652,0.1015834,-0.06598116,1.712321,0.08930296,-0.3932582,1.69396,-0.06985417,0.1359607,1.707638,0.003313211,-0.3841438,1.664229,-0.1018068,-0.124447,1.707799,0.3049906,-0.1211198,1.681351,NA,NA,NotTracked,NotTracked,
