ALX,ALY,ALZ,ARX,ARY,ARZ,EMG0L,EMG1L,EMG2L,EMG3L,EMG4L,EMG5L,EMG6L,EMG7L,EMG0R,EMG1R,EMG2R,EMG3R,EMG4R,EMG5R,EMG6R,EMG7R,GLX,GLY,GLZ,GRX,GRY,GRZ,ORL,OPL,OYL,ORR,OPR,OYR,LHNX,LHNY,LHNZ,RHNX,RHNY,RHNZ,HX,HY,HZ,LTX,LTY,LTZ,RTX,RTY,RTZ,SpineMidX,SpineMidY,SpineMidZ,SpineBaseX,SpineBaseY,SpineBaseZ,ShoulderLeftX,ShoulderLeftY,ShoulderLeftZ,ShoulderRightX,ShoulderRightY,ShoulderRightZ,ElbowLeftX,ElbowLeftY,ElbowLeftZ,ElbowRightX,ElbowRightY,ElbowRightZ,Myo_Pose_left,Myo_Pose_Right,Kinect_pose_left,Kinect_pose_right
0.9321289,-0.3808594,0.2114258,0.8837891,0.3276367,0.2304688,-3,-6,-55,-8,-2,-3,-2,3,-3,-2,-2,-2,-2,-9,-4,0,11.6875,11.6875,11.6875,-24.625,-24.625,-24.625,3.267162,3.132389,5.020079,6.555212,3.130079,9.354905,-0.08872817,-0.4078434,1.619878,0.2442946,-0.4221256,1.57857,0.1199818,0.4079524,1.719039,-0.04313014,-0.4009174,1.591656,0.2853536,-0.4421907,1.562357,0.0993989,-0.06161369,1.714894,0.08655626,-0.390713,1.699868,-0.07246964,0.1371118,1.705345,0.0005482138,-0.3808337,1.669415,-0.1052165,-0.1381921,1.71844,0.3042494,-0.1228455,1.68509,NA,NA,NotTracked,NotTracked,
0.8876953,-0.3330078,0.1713867,0.8920898,0.2705078,0.2387695,-4,-2,18,1,-1,-1,-2,-2,4,5,3,0,-5,-5,-22,0,-3,-3,-3,1.9375,1.9375,1.9375,3.279264,3.138827,5.018159,6.530973,3.138213,9.351363,-0.0880231,-0.4073383,1.617497,0.2441121,-0.420512,1.575362,0.1197884,0.4080491,1.718562,-0.04350411,-0.3881797,1.59122,0.2862692,-0.4263622,1.562956,0.09924621,-0.06166311,1.714801,0.08651879,-0.3908286,1.699819,-0.07212148,0.1365583,1.704551,0.0005039015,-0.3809276,1.669368,-0.1052577,-0.1379113,1.718638,0.3041883,-0.1228397,1.685126,NA,NA,NotTracked,NotTracked,
0.9057617,-0.4248047,0.2709961,0.9008789,0.3525391,0.2792969,-5,-6,-29,0,-2,3,4,0,-4,-5,-3,1,-7,-3,-11,2,-2.75,-2.75,-2.75,-20.75,-20.75,-20.75,3.274187,3.142862,5.00951,6.534836,3.142085,9.345587,-0.08780915,-0.40762,1.618058,0.243639,-0.4180259,1.574414,0.1195353,0.4080011,1.717992,-0.0431846,-0.3975406,1.591277,0.2851762,-0.4302951,1.562722,0.09915049,-0.0617428,1.714657,0.08647468,-0.3910033,1.699629,-0.07190537,0.1362372,1.704082,0.000449705,-0.3810525,1.669188,-0.1051025,-0.1376228,1.71869,0.3041505,-0.1228345,1.685257,NA,NA,NotTracked,NotTracked,
0.9541016,-0.3134766,0.1835938,0.9086914,0.3330078,0.1899414,1,0,3,-2,-3,-1,-7,-10,-2,-4,-2,1,-6,-4,-8,-2,30.0625,30.0625,30.0625,-47.3125,-47.3125,-47.3125,3.278967,3.141543,5.037247,6.529032,3.137898,9.285714,-0.08890887,-0.4082483,1.617676,0.2437072,-0.4179696,1.574731,0.119287,0.4079584,1.717816,-0.04326429,-0.3928992,1.59164,0.2849179,-0.4364325,1.5485,0.0990313,-0.06180649,1.714611,0.08640509,-0.3910977,1.699569,-0.07168482,0.1358783,1.703858,0.0003766421,-0.3811388,1.66914,-0.1049864,-0.1375525,1.718841,0.3039576,-0.1234133,1.685706,NA,NA,NotTracked,NotTracked,
0.9165039,-0.2617188,0.1210938,0.8833008,0.3686523,0.2338867,3,1,8,1,-3,-1,-1,3,-36,4,12,4,1,-7,5,5,52,52,52,-8.75,-8.75,-8.75,3.316657,3.151589,5.095699,6.525581,3.148113,9.244015,-0.08903583,-0.4079153,1.615257,0.2452273,-0.4177577,1.574904,0.1191513,0.4079532,1.717713,-0.04312901,-0.393793,1.591564,0.2856178,-0.4363173,1.5446,0.09895192,-0.06193417,1.714507,0.0864295,-0.3912622,1.699476,-0.07146651,0.1356263,1.703529,0.0003693564,-0.3813618,1.668984,-0.1048212,-0.1375932,1.718896,0.3040363,-0.1236717,1.686103,NA,NA,NotTracked,NotTracked,
0.9331055,-0.4384766,0.2075195,0.9594727,0.3193359,0.1782227,-4,1,3,5,-2,-10,-1,7,2,11,7,14,3,-5,0,54,37,37,37,-62.4375,-62.4375,-62.4375,3.324169,3.179303,5.116982,6.518029,3.181029,9.16196,-0.09047131,-0.4030951,1.610227,0.249189,-0.4141075,1.571796,0.1189905,0.4079663,1.717684,-0.04377948,-0.3821822,1.593205,0.292802,-0.435094,1.542035,0.0988865,-0.0620452,1.714418,0.08651076,-0.3915005,1.699389,-0.07132941,0.1352799,1.703316,0.0004315557,-0.3815922,1.668817,-0.1046299,-0.1373636,1.719343,0.3041077,-0.1245456,1.686982,NA,NA,NotTracked,NotTracked,
1.049805,-0.315918,0.1708984,0.90625,0.5776367,0.4267578,-9,-6,-10,-6,27,-1,-30,16,-4,-9,2,4,7,-1,-3,20,56.375,56.375,56.375,-16.1875,-16.1875,-16.1875,3.414123,3.235445,5.137276,6.567843,3.382704,9.061207,-0.09537793,-0.378715,1.591091,0.254043,-0.3959777,1.549738,0.118851,0.4078744,1.717657,-0.04919197,-0.4020745,1.589325,0.2751023,-0.4043481,1.486364,0.09887391,-0.06224392,1.714269,0.08672345,-0.39205,1.69924,-0.07126756,0.1350549,1.703229,0.0006729451,-0.3823362,1.668584,-0.1049893,-0.1371743,1.720629,0.3056868,-0.126084,1.688656,NA,NA,NotTracked,NotTracked,
0.8520508,-0.6547852,0.5024414,0.7226563,0.6318359,0.4926758,-10,-1,8,9,13,25,5,18,16,16,4,4,2,-4,-7,4,-22.875,-22.875,-22.875,16.5625,16.5625,16.5625,3.447761,3.477513,5.127092,6.627867,3.629491,9.010172,-0.08236903,-0.349044,1.563887,0.2582604,-0.3543036,1.49915,0.1188232,0.4078712,1.717632,-0.04796811,-0.4135503,1.592781,0.2901475,-0.3659301,1.46131,0.09888326,-0.06232873,1.71431,0.08695665,-0.3923816,1.69954,-0.07128909,0.1350136,1.703291,0.0008992249,-0.3826602,1.668727,-0.1062661,-0.1258669,1.727134,0.3104282,-0.1221853,1.691827,NA,NA,Closed,NotTracked,
0.5898438,-0.6923828,0.5136719,0.5522461,0.5625,0.4609375,-14,-6,-56,-34,17,25,5,10,0,-14,-17,-44,2,4,-3,-1,-32.125,-32.125,-32.125,-5.5,-5.5,-5.5,3.410461,3.734308,5.099515,6.663914,3.901427,8.949515,-0.09434587,-0.2845284,1.510171,0.25055,-0.3017457,1.44717,0.1187309,0.4078757,1.717555,-0.02757183,-0.2990185,1.588539,0.2834329,-0.3036988,1.4135,0.09890005,-0.06249553,1.714603,0.08709905,-0.3927375,1.700259,-0.07118313,0.1350157,1.703295,0.001169317,-0.3830646,1.66947,-0.1062389,-0.1132054,1.729262,0.3133164,-0.1168707,1.692453,NA,NA,Unknown,Closed,
0.5615234,-0.6113281,0.347168,0.5263672,0.6518555,0.3686523,5,-2,-6,-3,-19,-7,-5,-6,0,-4,-5,-23,-30,-6,-19,11,-0.75,-0.75,-0.75,-7.8125,-7.8125,-7.8125,3.402828,4.034914,5.114316,6.702139,4.210958,8.864753,-0.1002434,-0.240041,1.446832,0.248751,-0.2461199,1.404955,0.1186845,0.4078041,1.717574,-0.05527819,-0.2381387,1.440827,0.2837374,-0.2521716,1.372667,0.09889899,-0.0625819,1.714716,0.08703108,-0.3927451,1.700527,-0.07083625,0.135058,1.70349,0.001155299,-0.3830864,1.669632,-0.1042773,-0.1061236,1.727917,0.3135673,-0.1094356,1.691673,NA,NA,Closed,Unknown,
0.5913086,-0.6650391,0.3901367,0.3613281,0.7490234,0.331543,10,10,24,34,25,16,17,23,4,1,0,2,-3,-8,-49,-20,12.25,12.25,12.25,16,16,16,3.397135,4.179175,5.129734,6.738533,4.363103,8.842067,-0.1011124,-0.2079029,1.429642,0.249129,-0.2037334,1.387713,0.1186717,0.4077956,1.717758,-0.05656754,-0.2091302,1.420821,0.2882814,-0.2105861,1.364737,0.09889394,-0.06253971,1.715149,0.08700885,-0.3926135,1.700966,-0.07045227,0.1352531,1.704086,0.001228015,-0.3829928,1.670171,-0.1030472,-0.09999111,1.726379,0.3140529,-0.1016323,1.690347,NA,NA,Closed,Unknown,
0.3901367,-0.7363281,0.4521484,0.2661133,0.7402344,0.4189453,25,6,28,-21,-6,15,13,10,5,-6,-8,-9,12,-9,-10,-12,0.875,0.875,0.875,17.8125,17.8125,17.8125,3.383931,4.291693,5.138669,6.754889,4.440321,8.850157,-0.1030288,-0.1854074,1.426565,0.2488927,-0.1842192,1.383724,0.1186836,0.4078222,1.718432,-0.05722026,-0.1840725,1.42416,0.2853986,-0.1863616,1.363143,0.09894527,-0.06239432,1.715783,0.08707834,-0.3924258,1.701276,-0.07012181,0.1354771,1.70438,0.001324164,-0.382848,1.670493,-0.1029077,-0.09392215,1.724579,0.3152512,-0.09160922,1.690068,NA,NA,Unknown,Unknown,
0.3100586,-0.7470703,0.496582,0.2446289,0.7866211,0.4448242,18,1,26,23,-8,-5,1,53,-3,-10,-3,-6,11,5,6,-10,8.5625,8.5625,8.5625,-1.0625,-1.0625,-1.0625,3.390708,4.349705,5.14252,6.75571,4.485529,8.84228,-0.1039681,-0.1746915,1.425454,0.2487778,-0.1775174,1.382743,0.1186603,0.4077714,1.719724,-0.07051941,-0.1583554,1.413604,0.2837178,-0.1719634,1.362694,0.09920468,-0.06230576,1.716386,0.08724056,-0.3922419,1.701631,-0.06945407,0.1358999,1.705036,0.001553554,-0.3826558,1.670927,-0.1037338,-0.08698682,1.723917,0.3402986,-0.09845959,1.67206,NA,NA,Closed,Closed,
0.3325195,-0.777832,0.4541016,0.3168945,0.8642578,0.4633789,-14,-4,-43,-8,-21,-16,-8,-16,17,16,14,18,-1,2,0,0,-3.3125,-3.3125,-3.3125,3.5625,3.5625,3.5625,3.387055,4.378711,5.158009,6.761254,4.493729,8.837106,-0.1053082,-0.1696252,1.423282,0.2508485,-0.1766401,1.382373,0.1186675,0.4077834,1.721138,-0.05914375,-0.1705374,1.414971,0.2859567,-0.183033,1.361522,0.09946738,-0.06219742,1.717234,0.08730647,-0.3920452,1.702239,-0.06888803,0.1362905,1.705796,0.001681598,-0.382486,1.671547,-0.1082165,-0.08473637,1.724718,0.3437893,-0.09840302,1.672693,NA,NA,Unknown,Closed,
0.3793945,-0.8227539,0.5078125,0.2851563,0.8608398,0.4648438,11,-12,-51,7,-14,11,5,-9,-9,19,11,17,50,-8,-5,-17,0.125,0.125,0.125,6.875,6.875,6.875,3.375714,4.393917,5.173151,6.75541,4.503597,8.836579,-0.1084744,-0.1659428,1.421436,0.2508934,-0.1752683,1.382268,0.1188373,0.4077479,1.721784,-0.06016476,-0.1704941,1.406488,0.2851805,-0.1874478,1.361467,0.09963495,-0.0620994,1.717715,0.08733412,-0.3919294,1.702595,-0.06844245,0.1364879,1.706089,0.001717238,-0.3823538,1.671893,-0.1064656,-0.08363754,1.724307,0.3468952,-0.09728132,1.673475,NA,NA,Closed,Closed,
0.3833008,-0.7832031,0.5039063,0.2421875,0.815918,0.4599609,-6,0,-6,-27,-6,-17,-3,4,-3,-2,0,4,-16,-5,-9,-22,5.9375,5.9375,5.9375,0,0,0,3.371078,4.409023,5.184777,6.743104,4.515883,8.846343,-0.1095768,-0.1623821,1.420025,0.2504866,-0.17191,1.380692,0.118989,0.4078305,1.722013,-0.06224485,-0.165195,1.412739,0.2857864,-0.1811455,1.361152,0.09980559,-0.06199236,1.718022,0.08738725,-0.3918192,1.702935,-0.06818092,0.1366742,1.706254,0.001762725,-0.3822761,1.672127,-0.1110923,-0.08427626,1.721739,0.348511,-0.09677941,1.671569,NA,NA,Closed,Closed,
0.3457031,-0.7626953,0.4692383,0.1748047,0.7060547,0.3774414,8,0,20,-19,-5,0,-7,-9,-4,1,3,1,1,25,-26,-11,-4.8125,-4.8125,-4.8125,-4.875,-4.875,-4.875,3.370708,4.411538,5.185229,6.728273,4.490053,8.858639,-0.10914,-0.1639993,1.419966,0.249334,-0.1751125,1.382401,0.1192211,0.4078135,1.722188,-0.06247936,-0.1664047,1.412132,0.2856764,-0.1811646,1.36147,0.10004,-0.06190139,1.718373,0.08748616,-0.3916482,1.70342,-0.06780916,0.1368719,1.706258,0.001901813,-0.3820849,1.672593,-0.1124704,-0.08410212,1.720652,0.349549,-0.09631494,1.672632,NA,NA,Closed,Unknown,
0.2841797,-0.7207031,0.440918,0.4042969,0.762207,0.3535156,10,4,17,-24,-4,0,7,20,-9,-13,-14,-7,-27,-21,6,17,-8.125,-8.125,-8.125,-3,-3,-3,3.363557,4.364172,5.176097,6.739491,4.384205,8.866083,-0.1089095,-0.1870033,1.421719,0.2484012,-0.2017552,1.385038,0.1194726,0.407669,1.722269,-0.06201303,-0.1879715,1.413095,0.2851384,-0.2187299,1.37021,0.1002072,-0.06195338,1.718554,0.08751836,-0.3916494,1.703571,-0.06749083,0.1369922,1.706194,0.001971766,-0.3820722,1.672843,-0.1079324,-0.08381956,1.720529,0.3490984,-0.100249,1.666812,NA,NA,Closed,Unknown,
0.6020508,-0.7973633,0.4174805,0.5078125,0.8007813,0.4912109,2,12,-14,-23,-37,-21,-10,-7,-2,-11,-7,-5,6,-1,1,6,-7.0625,-7.0625,-7.0625,-1.1875,-1.1875,-1.1875,3.341045,4.188468,5.182972,6.717514,4.169494,8.916018,-0.1100931,-0.230417,1.431793,0.2444577,-0.2514949,1.395933,0.1196888,0.4075642,1.722288,-0.0865183,-0.2065367,1.4035,0.2778571,-0.2387028,1.35996,0.1003031,-0.06202588,1.71861,0.08755643,-0.3916873,1.703592,-0.06743865,0.1369258,1.706169,0.002007121,-0.3820953,1.672853,-0.1079756,-0.08592435,1.720369,0.3302636,-0.0969898,1.676011,NA,NA,Closed,Unknown,
0.3725586,-0.7617188,0.3466797,0.4047852,0.6958008,0.5400391,-55,-41,-102,-46,-4,-7,-4,-1,-8,-14,-10,12,83,-1,-22,-12,4,4,4,24.3125,24.3125,24.3125,3.330576,4.062068,5.171782,6.712247,4.016389,8.954391,-0.116628,-0.2730771,1.455274,0.2520298,-0.291502,1.431665,0.1198253,0.4075061,1.722539,-0.07032903,-0.2732949,1.441711,0.2788993,-0.2868218,1.382974,0.1003447,-0.06213451,1.718696,0.08757199,-0.3919181,1.703661,-0.06738494,0.1367261,1.706064,0.002025521,-0.3822522,1.672873,-0.1059301,-0.09081781,1.717945,0.3256943,-0.09734976,1.678861,NA,NA,Unknown,Unknown,
0.5004883,-0.7353516,0.465332,0.4101563,0.6318359,0.3217773,-36,-14,86,20,-4,-8,-2,18,-9,12,-1,-6,-26,-7,80,-15,-1.6875,-1.6875,-1.6875,-13.3125,-13.3125,-13.3125,3.308879,3.899324,5.18872,6.691136,3.864616,8.970868,-0.1227469,-0.3274007,1.49407,0.2563097,-0.3295775,1.460901,0.119904,0.407572,1.722605,-0.07716446,-0.3307571,1.464206,0.2711086,-0.3628506,1.4667,0.1005178,-0.06235192,1.718828,0.08764495,-0.3923544,1.703799,-0.06731133,0.1365534,1.705703,0.002136324,-0.3826681,1.672981,-0.1068948,-0.1007989,1.711537,0.3234416,-0.1006516,1.678687,NA,NA,Closed,Unknown,
1.123535,-0.3896484,0.3300781,1.095215,0.4746094,0.3251953,6,5,-27,-9,7,1,-4,-27,3,-12,-11,9,-6,-12,-29,-8,-40.0625,-40.0625,-40.0625,-16.75,-16.75,-16.75,3.350399,3.581955,5.184089,6.633864,3.585531,8.979041,-0.1212994,-0.3614235,1.538563,0.2644653,-0.3641465,1.493162,0.119932,0.4075326,1.722824,-0.07342208,-0.3819347,1.512273,0.2199047,-0.3733633,1.495406,0.1006632,-0.06268121,1.719027,0.08783536,-0.3930724,1.703858,-0.06725307,0.1359077,1.705489,0.002249203,-0.3833156,1.67303,-0.1072295,-0.1125678,1.705436,0.3175476,-0.1142587,1.676834,NA,NA,Closed,Unknown,
1.09082,-0.6069336,0.2568359,0.8242188,0.6015625,0.3935547,6,8,51,5,-6,7,1,7,7,1,1,-29,6,6,-9,17,28.9375,28.9375,28.9375,-4.5,-4.5,-4.5,3.351392,3.476151,5.186573,6.627152,3.476514,8.974003,-0.1192819,-0.3750496,1.561781,0.2692904,-0.3829794,1.516184,0.1198731,0.4074465,1.722872,-0.0706774,-0.394542,1.534781,0.2282283,-0.3881342,1.527215,0.100763,-0.06298158,1.719005,0.0881911,-0.3935995,1.703637,-0.06747295,0.1354442,1.70533,0.002468884,-0.3838081,1.672852,-0.1068868,-0.1195304,1.70541,0.315375,-0.1184749,1.676827,NA,NA,Unknown,Unknown,
0.7763672,-0.7973633,0.3574219,0.7744141,0.5688477,0.28125,11,-5,-31,-37,-6,-7,-11,-4,14,4,-2,-6,-7,10,-1,20,-4.875,-4.875,-4.875,-8.25,-8.25,-8.25,3.300074,3.425173,5.220408,6.644988,3.444133,8.950111,-0.1199965,-0.376888,1.56699,0.2742929,-0.390201,1.528302,0.1197114,0.4073099,1.722659,-0.07298385,-0.394127,1.539975,0.2221177,-0.4095176,1.515652,0.1010203,-0.06347797,1.718949,0.08853909,-0.3940765,1.703625,-0.06774498,0.1349546,1.705328,0.002748711,-0.3843163,1.672827,-0.1073834,-0.1244845,1.7075,0.3145356,-0.1223753,1.677986,NA,NA,Closed,Unknown,
0.7797852,-0.5449219,0.3491211,0.7763672,0.4775391,0.3652344,22,13,39,0,1,-4,-8,-36,-2,6,4,0,-14,-1,11,-15,-1.5625,-1.5625,-1.5625,-11.125,-11.125,-11.125,3.2923,3.446991,5.232787,6.647234,3.455573,8.940474,-0.1223469,-0.3741331,1.562804,0.2763524,-0.3905099,1.527155,0.1195797,0.4070644,1.721409,-0.07360588,-0.39079,1.532576,0.2398857,-0.3898295,1.54945,0.1011529,-0.06369822,1.718922,0.08917768,-0.3944985,1.703713,-0.06796356,0.1348636,1.705284,0.00340039,-0.3848764,1.672909,-0.1080269,-0.1265138,1.70794,0.314675,-0.1254697,1.67896,NA,NA,Closed,Unknown,
0.7670898,-0.4770508,0.3344727,0.8266602,0.4296875,0.300293,1,-5,-37,-5,-4,0,-7,-6,-1,-8,-4,1,-6,-6,5,9,-12.375,-12.375,-12.375,5.9375,5.9375,5.9375,3.293754,3.458575,5.219214,6.630232,3.45824,8.9503,-0.1198659,-0.3723975,1.559209,0.2752284,-0.3890187,1.524274,0.1194918,0.4069323,1.719909,-0.07392649,-0.3882195,1.529353,0.2347931,-0.3937782,1.54182,0.1013179,-0.06397524,1.718813,0.08957502,-0.3949991,1.703934,-0.0680706,0.1344679,1.704601,0.003747804,-0.3853845,1.673113,-0.10822,-0.126856,1.707996,0.3148709,-0.1265934,1.679069,NA,NA,Closed,Unknown,
0.8320313,-0.4301758,0.2392578,0.7358398,0.4667969,0.2905273,2,-1,-20,-4,-2,0,-1,1,5,3,1,2,8,2,3,13,-14.8125,-14.8125,-14.8125,6.75,6.75,6.75,3.307188,3.450232,5.193067,6.623565,3.445605,8.969549,-0.1166163,-0.372972,1.559165,0.2734656,-0.391486,1.525358,0.1195957,0.4068589,1.719331,-0.0686954,-0.3874132,1.568196,0.241212,-0.3845564,1.553143,0.1015309,-0.06420879,1.718759,0.08988576,-0.3953317,1.704117,-0.06808892,0.1342959,1.704279,0.003967465,-0.3857385,1.6733,-0.108178,-0.1268582,1.70799,0.3147564,-0.1269893,1.679318,NA,NA,Closed,Unknown,
0.8046875,-0.5073242,0.2602539,0.7763672,0.4277344,0.2148438,-9,-72,-30,-3,4,2,12,-7,-16,-6,0,4,1,-6,-8,-10,7.75,7.75,7.75,-36.6875,-36.6875,-36.6875,3.293988,3.429853,5.186475,6.616012,3.402837,8.932639,-0.1132276,-0.3772199,1.562408,0.2755652,-0.4012587,1.529975,0.1201209,0.4067398,1.718553,-0.06878918,-0.391206,1.528834,0.2274457,-0.4153317,1.5078,0.1019382,-0.06456295,1.718368,0.09033175,-0.3956075,1.70396,-0.06796587,0.1339782,1.703659,0.004372599,-0.3860813,1.673122,-0.108007,-0.1271652,1.708,0.3137745,-0.1283914,1.679974,NA,NA,Closed,Unknown,
0.8208008,-0.4995117,0.1894531,0.8676758,0.4052734,0.2485352,1,13,3,4,0,3,-14,4,-10,-4,1,0,-2,-2,9,-3,33.125,33.125,33.125,-63.4375,-63.4375,-63.4375,3.271373,3.405638,5.247895,6.672166,3.270901,8.756891,-0.1132424,-0.3871464,1.567242,0.2822824,-0.4177805,1.535725,0.1207916,0.4066037,1.718277,-0.08104809,-0.3880771,1.589091,0.2561588,-0.4107332,1.5679,0.1022574,-0.06486468,1.718192,0.09093589,-0.3959654,1.703762,-0.06765218,0.1336584,1.703149,0.004914916,-0.3864675,1.672826,-0.1075335,-0.1293001,1.707856,0.3129997,-0.1300025,1.680892,NA,NA,Unknown,Closed,
0.9150391,-0.3310547,0.1801758,0.9956055,0.2387695,0.3110352,3,6,2,-2,-4,4,4,-5,0,-2,-3,-2,4,5,6,5,108.5625,108.5625,108.5625,-11.625,-11.625,-11.625,3.267115,3.309123,5.45422,6.668954,3.159218,8.665854,-0.1126936,-0.4030181,1.585489,0.2999451,-0.4361763,1.550892,0.1216624,0.4065752,1.718279,-0.1167621,-0.4016435,1.536941,0.3001046,-0.4363341,1.50963,0.1026309,-0.06512923,1.718089,0.0912873,-0.3961799,1.70378,-0.06753284,0.1335654,1.703039,0.005314627,-0.3866815,1.672724,-0.1071889,-0.1323502,1.708666,0.3120537,-0.1346494,1.682866,NA,NA,Closed,Closed,
0.8833008,-0.2319336,0.3007813,0.9980469,0.296875,0.1938477,7,-15,0,-3,-1,2,2,9,-4,-1,1,-1,0,3,-5,-26,-95.25,-95.25,-95.25,90.6875,90.6875,90.6875,3.295423,3.20694,5.395797,6.793203,3.055846,8.644294,-0.104715,-0.4204881,1.612753,0.3064875,-0.4469525,1.577491,0.1224899,0.4066863,1.718277,-0.1474273,-0.4133903,1.59968,0.3343202,-0.4382086,1.557968,0.1030035,-0.06539822,1.717934,0.09165919,-0.3965472,1.703749,-0.06738421,0.1332935,1.702839,0.005790163,-0.3869758,1.672552,-0.1066513,-0.1334516,1.709013,0.3121154,-0.1381979,1.683851,NA,NA,NotTracked,NotTracked,
1,-0.371582,0.09863281,0.9291992,0.2314453,0.1533203,-3,-19,-9,-3,-2,0,17,8,-7,-4,-5,-2,1,-6,-6,-4,-30.4375,-30.4375,-30.4375,104.9375,104.9375,104.9375,3.208615,3.118395,5.328498,6.885747,2.954172,8.75616,-0.09982787,-0.4305636,1.623487,0.3036872,-0.453872,1.598751,0.123013,0.4066952,1.718239,-0.1420747,-0.4117487,1.617558,0.3383547,-0.4681366,1.567428,0.1032527,-0.06565078,1.717731,0.09227694,-0.3969992,1.703571,-0.06743982,0.13303,1.702842,0.006465445,-0.3873616,1.672179,-0.1038482,-0.1389323,1.710717,0.3122507,-0.1405746,1.684735,NA,NA,NotTracked,NotTracked,
0.9492188,-0.2807617,0.07275391,0.9331055,0.3569336,0.1665039,6,5,45,5,-4,-7,-33,-19,-1,2,2,-1,0,-1,0,-1,-79.0625,-79.0625,-79.0625,32.625,32.625,32.625,3.207321,3.08086,5.253236,6.84338,2.925872,8.912055,-0.09083764,-0.4291738,1.627454,0.2933523,-0.4555697,1.612994,0.1231898,0.4066759,1.71811,-0.1313738,-0.412642,1.633316,0.3351778,-0.4631085,1.59625,0.1034703,-0.06587975,1.717425,0.09263166,-0.3972391,1.70334,-0.06730973,0.1327197,1.702592,0.006759498,-0.3875247,1.672018,-0.1020484,-0.13895,1.712254,0.3119797,-0.1413798,1.685575,NA,NA,NotTracked,NotTracked,
0.9042969,-0.4956055,0.1933594,0.8984375,0.3120117,0.1640625,10,64,3,1,1,-2,-21,3,-3,0,1,0,-2,6,9,-4,-13.6875,-13.6875,-13.6875,24.8125,24.8125,24.8125,3.185678,3.082871,5.185131,6.607132,2.939451,9.188583,-0.08776481,-0.4291793,1.628913,0.2823856,-0.4496606,1.61556,0.1232066,0.4066718,1.718061,-0.1289308,-0.4292604,1.634438,0.3212959,-0.4649475,1.607833,0.1036343,-0.06587049,1.717236,0.09313858,-0.3969891,1.703301,-0.06752063,0.1331377,1.702057,0.007303419,-0.3873481,1.672168,-0.1006867,-0.1390551,1.71373,0.3108259,-0.1414909,1.687915,NA,NA,NotTracked,NotTracked,
0.9536133,-0.3334961,0.06982422,0.9287109,0.309082,-0.1225586,-4,-16,0,-1,0,0,0,4,3,-1,2,-2,-2,2,-3,0,-2.8125,-2.8125,-2.8125,-15,-15,-15,3.173988,3.083656,5.222659,6.70198,2.945137,9.104464,-0.08813982,-0.4299797,1.62987,0.2799077,-0.4474775,1.616651,0.1230436,0.4067734,1.71772,-0.1303131,-0.4161241,1.642333,0.3130081,-0.4412704,1.616757,0.1038336,-0.06590461,1.716975,0.09382724,-0.396886,1.703133,-0.067528,0.1325087,1.702049,0.007936063,-0.387405,1.67214,-0.09970793,-0.1404916,1.714494,0.3095822,-0.1409138,1.690057,NA,NA,NotTracked,NotTracked,
0.9882813,-0.2250977,0.2255859,0.940918,0.1894531,0.253418,-10,-11,-4,0,1,-5,-3,-5,-3,-2,-2,-1,-3,1,-3,-13,-49.25,-49.25,-49.25,8.5625,8.5625,8.5625,3.171491,3.070632,5.180061,6.723975,2.942439,9.079499,-0.08827674,-0.4294557,1.630363,0.2816364,-0.4473808,1.616365,0.1228299,0.4066443,1.717184,-0.1292456,-0.4091451,1.6415,0.3177988,-0.4423277,1.616241,0.1039716,-0.06599955,1.716812,0.09420472,-0.39684,1.703068,-0.06754211,0.131868,1.702134,0.008317292,-0.3874296,1.672189,-0.09959018,-0.1412444,1.714796,0.3087579,-0.1407963,1.691551,NA,NA,NotTracked,NotTracked,
0.9018555,-0.5029297,0.1904297,0.9174805,0.2001953,0.2055664,2,-4,1,-1,-3,0,4,-5,0,0,-1,0,-1,5,2,-4,-68.25,-68.25,-68.25,-1.0625,-1.0625,-1.0625,3.119917,3.066951,5.149539,6.67985,2.947533,9.117559,-0.08735117,-0.4267437,1.631017,0.2819799,-0.4470383,1.617652,0.1226023,0.4065867,1.716816,-0.127969,-0.3994356,1.6385,0.3177291,-0.4427907,1.61506,0.1040566,-0.06606279,1.716799,0.09476395,-0.3969014,1.703078,-0.06754376,0.1313719,1.702384,0.00889789,-0.387603,1.672254,-0.09976159,-0.1402241,1.715784,0.3086955,-0.1388957,1.693223,NA,NA,NotTracked,NotTracked,
0.9458008,-0.3139648,0.1166992,0.9462891,0.2519531,0.1157227,4,-9,-3,-2,-1,0,0,3,-1,-3,-3,-2,0,2,3,12,-9.375,-9.375,-9.375,3.3125,3.3125,3.3125,3.125202,3.078742,5.150787,6.69303,2.949146,9.111658,-0.08842126,-0.4280287,1.630441,0.2807536,-0.4480393,1.616093,0.1220573,0.4064777,1.716123,-0.1286377,-0.3978685,1.644125,0.3172716,-0.442159,1.617265,0.1042749,-0.06625102,1.716649,0.09508642,-0.3969201,1.702902,-0.06768993,0.1307858,1.70269,0.00919226,-0.3877184,1.67218,-0.09983371,-0.1409692,1.716208,0.3085895,-0.1389146,1.693352,NA,NA,NotTracked,NotTracked,
0.921875,-0.3237305,0.1474609,0.9399414,0.2099609,0.159668,1,-4,0,-1,-1,-2,-2,0,-6,-3,-1,-3,-2,-5,0,0,-19,-19,-19,4.0625,4.0625,4.0625,3.132728,3.075114,5.113903,6.704098,2.946042,9.106061,-0.08808131,-0.4277707,1.630641,0.2812322,-0.4475085,1.614979,0.1218926,0.4064341,1.715893,-0.1297088,-0.3911506,1.6518,0.3172877,-0.4545002,1.60945,0.1042959,-0.06629597,1.716615,0.09527014,-0.3969457,1.702826,-0.06765092,0.1305444,1.702861,0.009339041,-0.387757,1.672129,-0.09993102,-0.141012,1.716552,0.3083542,-0.1389298,1.693595,NA,NA,NotTracked,NotTracked,
0.9404297,-0.3266602,0.1474609,0.9282227,0.2158203,0.1645508,-4,-1,-1,1,-1,0,0,-1,-1,0,0,-1,0,-1,-1,3,10.75,10.75,10.75,2.5,2.5,2.5,3.135489,3.076197,5.109867,6.69189,2.947066,9.124716,-0.08851927,-0.4274114,1.630418,0.2812021,-0.4476104,1.615261,0.1218149,0.4063393,1.715691,-0.1291511,-0.4184445,1.625391,0.3190675,-0.4569547,1.615533,0.1043646,-0.06636655,1.716583,0.09539704,-0.3969231,1.702826,-0.06762692,0.1303314,1.703009,0.00948619,-0.3877563,1.672153,-0.09994757,-0.1410135,1.717322,0.3081665,-0.1391133,1.69374,NA,NA,NotTracked,NotTracked,
0.9379883,-0.3339844,0.1333008,0.9536133,0.2485352,0.1298828,5,-2,-1,1,2,3,12,12,1,2,-1,1,0,0,3,-2,15.9375,15.9375,15.9375,5.75,5.75,5.75,3.150839,3.074905,5.115626,6.690422,2.94242,9.13376,-0.08888067,-0.4244159,1.630888,0.280867,-0.4480942,1.615676,0.1218132,0.4063541,1.715676,-0.1298047,-0.3990691,1.641375,0.3182351,-0.4501646,1.615078,0.1044263,-0.06635928,1.716551,0.09559065,-0.396769,1.702784,-0.06756897,0.1303322,1.703158,0.00965151,-0.3876616,1.672125,-0.1000158,-0.141088,1.717695,0.3080578,-0.1390306,1.693839,NA,NA,NotTracked,NotTracked,
0.9282227,-0.3334961,0.1245117,0.9511719,0.2041016,0.1479492,3,-5,-3,-1,-1,-2,-5,1,-3,0,1,-2,-5,-5,3,3,16.4375,16.4375,16.4375,-8.4375,-8.4375,-8.4375,3.154684,3.08042,5.147435,6.696551,2.944905,9.115686,-0.08953919,-0.4268313,1.630416,0.2811764,-0.4480314,1.615229,0.1218894,0.4063402,1.71578,-0.1326926,-0.4334108,1.631929,0.318763,-0.4550461,1.612094,0.1045619,-0.06637319,1.716571,0.09574556,-0.3967221,1.702727,-0.06741959,0.1302309,1.703383,0.009801194,-0.3876441,1.672086,-0.1000018,-0.1413001,1.718117,0.3080491,-0.1387449,1.694069,NA,NA,NotTracked,NotTracked,
0.9604492,-0.2973633,0.1152344,0.9453125,0.2172852,0.152832,-1,-4,-2,0,-1,2,3,2,-1,-2,1,-1,-2,1,2,0,-9.375,-9.375,-9.375,0.125,0.125,0.125,3.133285,3.073807,5.171598,6.699954,2.949416,9.106071,-0.08945489,-0.426237,1.630536,0.2812314,-0.4476965,1.614887,0.1220367,0.4062777,1.71593,-0.1310177,-0.4366947,1.6246,0.3182334,-0.4483938,1.614404,0.1047163,-0.06639583,1.716617,0.09586682,-0.3966891,1.702718,-0.06731772,0.1301829,1.70359,0.009913601,-0.3876227,1.672087,-0.09994198,-0.1413571,1.718338,0.3080692,-0.1386211,1.694279,NA,NA,NotTracked,NotTracked,
0.9423828,-0.3286133,0.137207,0.9277344,0.2416992,0.1542969,3,15,-2,0,0,-1,0,2,-1,-2,0,-1,-2,1,0,-3,0.9375,0.9375,0.9375,6.75,6.75,6.75,3.12596,3.076018,5.169402,6.700003,2.949609,9.115191,-0.08945459,-0.4258929,1.631037,0.2814395,-0.4454905,1.615335,0.1224215,0.4062499,1.716223,-0.1327161,-0.4308456,1.632175,0.3155042,-0.4337255,1.609619,0.1049044,-0.06636555,1.716698,0.09607753,-0.3966292,1.702629,-0.06715807,0.1300657,1.703843,0.01008159,-0.3875852,1.672022,-0.1001029,-0.1409855,1.718575,0.3084807,-0.1377414,1.694683,NA,NA,NotTracked,NotTracked,
0.9404297,-0.3510742,0.1567383,0.921875,0.2504883,0.1728516,-2,2,-1,0,-1,-2,-1,-1,-1,-3,-3,-3,-1,-1,2,-7,3.25,3.25,3.25,0,0,0,3.130279,3.080855,5.160758,6.70206,2.951586,9.117653,-0.08934855,-0.4258981,1.628677,0.2819576,-0.4483417,1.613285,0.1228509,0.4062133,1.716253,-0.1330738,-0.4372787,1.62425,0.3232596,-0.4540174,1.6153,0.1052049,-0.06636676,1.716691,0.09632395,-0.3965414,1.702451,-0.06675369,0.1302533,1.70403,0.01033478,-0.3874882,1.671857,-0.1001651,-0.1408593,1.71874,0.3088684,-0.1372772,1.694876,NA,NA,NotTracked,NotTracked,
