ALX,ALY,ALZ,ARX,ARY,ARZ,EMG0L,EMG1L,EMG2L,EMG3L,EMG4L,EMG5L,EMG6L,EMG7L,EMG0R,EMG1R,EMG2R,EMG3R,EMG4R,EMG5R,EMG6R,EMG7R,GLX,GLY,GLZ,GRX,GRY,GRZ,ORL,OPL,OYL,ORR,OPR,OYR,LHNX,LHNY,LHNZ,RHNX,RHNY,RHNZ,HX,HY,HZ,LTX,LTY,LTZ,RTX,RTY,RTZ,SpineMidX,SpineMidY,SpineMidZ,SpineBaseX,SpineBaseY,SpineBaseZ,ShoulderLeftX,ShoulderLeftY,ShoulderLeftZ,ShoulderRightX,ShoulderRightY,ShoulderRightZ,ElbowLeftX,ElbowLeftY,ElbowLeftZ,ElbowRightX,ElbowRightY,ElbowRightZ,Myo_Pose_left,Myo_Pose_Right,Kinect_pose_left,Kinect_pose_right
0.921875,-0.3964844,0.1269531,0.8862305,0.390625,0.1767578,-1,-1,-3,-1,-3,-1,1,0,2,-3,-2,-2,-8,-2,-2,-1,-0.25,-0.25,-0.25,4.0625,4.0625,4.0625,2.985202,3.160886,2.26993,6.822455,3.208957,9.740755,0.03985444,-0.4407215,1.557651,0.3995834,-0.4454196,1.478742,0.2366744,0.4019136,1.694817,0.0846431,-0.4207608,1.551299,0.3777578,-0.4932926,1.479997,0.2265146,-0.06758806,1.683721,0.2239648,-0.3944329,1.665033,0.04496279,0.1144394,1.669158,0.1361495,-0.3864621,1.635135,0.01189348,-0.1391038,1.666312,0.4229957,-0.1421677,1.630603,NA,NA,Unknown,Unknown,
0.9389648,-0.3842773,0.1064453,0.9003906,0.4116211,0.1635742,0,-1,-3,-1,-4,-1,2,0,-1,-4,-1,0,-1,3,4,-2,5.125,5.125,5.125,-4.25,-4.25,-4.25,3.00368,3.164581,2.255874,6.810618,3.216059,9.754544,0.04087164,-0.4387773,1.556134,0.3985035,-0.4454885,1.477391,0.2366979,0.4017785,1.695163,0.08430649,-0.427387,1.549788,0.3771252,-0.4949793,1.480133,0.2265462,-0.0677084,1.683724,0.2240428,-0.3945383,1.665002,0.04501988,0.114353,1.669227,0.1362041,-0.3866015,1.635098,0.01192337,-0.1390805,1.66637,0.4228964,-0.1421336,1.630807,NA,NA,Unknown,Unknown,
0.9868164,-0.4775391,0.09619141,0.8945313,0.4575195,0.2011719,-1,-2,2,2,3,3,-2,-2,-2,3,1,2,-1,0,6,2,14,14,14,-24.5625,-24.5625,-24.5625,3.049029,3.199743,2.208267,6.753819,3.252526,9.784492,0.04667119,-0.4353771,1.548665,0.3958238,-0.4433517,1.473763,0.2367705,0.4016464,1.695591,0.08673034,-0.4178518,1.541509,0.3767379,-0.4932028,1.479337,0.2266139,-0.06782059,1.683685,0.2242217,-0.3946881,1.664899,0.04516996,0.1142224,1.669283,0.1363198,-0.3867793,1.63504,0.01083838,-0.137932,1.667263,0.4229381,-0.1421633,1.631054,NA,NA,Unknown,Unknown,
0.90625,-0.5493164,0.2177734,0.8662109,0.5688477,0.2861328,-2,-1,5,4,-8,-15,-1,-1,0,-8,-6,3,9,2,2,0,-31.5625,-31.5625,-31.5625,-62,-62,-62,3.163403,3.311672,2.045002,6.634593,3.384452,9.811232,0.06405648,-0.4136795,1.535033,0.3900446,-0.4340417,1.460269,0.2367819,0.4016104,1.695767,0.09786473,-0.3992634,1.520104,0.3687139,-0.5062403,1.452,0.2267516,-0.06794167,1.683625,0.2246993,-0.3948111,1.664766,0.04558647,0.1143316,1.669394,0.1366081,-0.3870394,1.634892,0.005300137,-0.1272309,1.671047,0.423409,-0.1421842,1.631645,NA,NA,Unknown,Lasso,
0.8198242,-0.4873047,0.3110352,0.7856445,0.6308594,0.4204102,1,-2,0,-8,-2,-1,14,3,2,17,1,1,-2,2,-10,0,-62.875,-62.875,-62.875,-26.375,-26.375,-26.375,3.248133,3.447052,1.868963,6.556056,3.556519,9.823487,0.08708937,-0.3867525,1.518361,0.3810795,-0.4116125,1.431329,0.2367869,0.4015498,1.69592,0.1104626,-0.3777072,1.47879,0.3558407,-0.4489745,1.428125,0.2269798,-0.06801125,1.683543,0.2254693,-0.3948164,1.664645,0.04572037,0.1145735,1.669441,0.1371988,-0.3873248,1.634789,-0.003690245,-0.11454,1.672695,0.4241264,-0.1415198,1.632123,NA,NA,Unknown,Unknown,
0.7216797,-0.6567383,0.3710938,0.8339844,0.6469727,0.5014648,-2,-1,12,15,-5,7,2,0,-3,-6,-5,3,-3,0,6,-2,-30.9375,-30.9375,-30.9375,-42.9375,-42.9375,-42.9375,3.271676,3.609191,1.714483,6.502728,3.785895,9.805512,0.1119521,-0.3594042,1.503364,0.3696936,-0.3729895,1.388545,0.236697,0.4015249,1.696337,0.1385558,-0.3469767,1.463682,0.3445692,-0.3920803,1.4015,0.2268754,-0.06802748,1.683674,0.2252525,-0.3947166,1.664907,0.04609839,0.1152628,1.669499,0.1368792,-0.3875052,1.635101,-0.01020244,-0.1077384,1.669906,0.4249603,-0.1378275,1.632857,NA,NA,Unknown,Lasso,
0.6665039,-0.7558594,0.3793945,0.4707031,0.8652344,0.605957,0,-2,6,19,15,7,-2,2,-1,-11,-7,1,-4,0,-3,1,-95.1875,-95.1875,-95.1875,-7.125,-7.125,-7.125,3.282009,3.835162,1.523379,6.500884,4.207081,9.769026,0.1365901,-0.3153366,1.523024,0.3579364,-0.3039535,1.339569,0.2365753,0.401495,1.697346,0.1926468,-0.2686749,1.529072,0.3326587,-0.3317102,1.342091,0.226191,-0.0679379,1.684757,0.2225106,-0.3942479,1.667247,0.047215,0.1169513,1.670011,0.1346445,-0.3869506,1.637075,-0.01778139,-0.09923107,1.666437,0.4254079,-0.1267705,1.634783,NA,NA,Unknown,Unknown,
0.5151367,-0.6791992,0.4145508,0.2578125,0.8066406,0.6054688,-5,-3,2,1,-1,-11,6,8,-4,1,0,4,5,0,2,1,-66.875,-66.875,-66.875,-13,-13,-13,3.274745,4.025075,1.362406,6.48603,4.570241,9.742225,0.1575391,-0.293507,1.517572,0.3478544,-0.2195732,1.29162,0.2363785,0.4014031,1.698006,0.1983574,-0.2365992,1.5262,0.3196449,-0.2269362,1.294875,0.2252858,-0.06794396,1.685477,0.2205014,-0.394094,1.668066,0.04781675,0.1178996,1.670002,0.1331461,-0.3864467,1.637719,-0.02110321,-0.09749712,1.658764,0.4225001,-0.1118288,1.634116,NA,NA,Unknown,Unknown,
0.3349609,-0.7773438,0.3701172,0.1010742,0.8012695,0.5927734,11,3,28,16,6,2,6,0,-3,-5,-6,-7,-1,0,0,0,-59.4375,-59.4375,-59.4375,1.6875,1.6875,1.6875,3.218813,4.216493,1.247733,6.483387,4.929247,9.712415,0.2509159,-0.2712693,1.479391,0.3432572,-0.1228717,1.260329,0.2360127,0.4015226,1.6993,0.2469397,-0.2272207,1.443256,0.3277369,-0.1565029,1.235917,0.2244097,-0.06793508,1.686318,0.2190012,-0.3939269,1.668592,0.04897551,0.11884,1.669942,0.1319948,-0.385878,1.638297,-0.02149478,-0.09619001,1.649241,0.4260027,-0.104877,1.611356,NA,NA,Unknown,Unknown,
0.4638672,-0.9267578,0.3276367,-0.1113281,0.7895508,0.5375977,1,-3,-26,-10,-4,-3,-70,-3,-7,-6,0,0,9,-3,-2,-4,-36.9375,-36.9375,-36.9375,8.25,8.25,8.25,3.125131,4.394254,1.184414,6.495164,5.348465,9.694266,0.2735287,-0.2336653,1.459575,0.3413603,-0.03154709,1.250159,0.2355128,0.4014692,1.700937,0.2529952,-0.2006494,1.424468,0.3248332,-0.06724419,1.2343,0.2234423,-0.06772791,1.687179,0.2173636,-0.3933082,1.668923,0.04961287,0.1195122,1.670268,0.1306297,-0.3850764,1.638705,-0.01807148,-0.09577363,1.63533,0.3970828,-0.1066693,1.625764,NA,NA,Unknown,Unknown,
0.440918,-0.8066406,0.3442383,-0.2949219,0.8041992,0.5927734,-9,-2,-20,-14,-10,5,-2,3,-2,1,1,-2,-1,-2,-2,-1,-46.1875,-46.1875,-46.1875,18.1875,18.1875,18.1875,3.090913,4.457488,1.165152,6.522526,5.616275,9.701747,0.2490903,-0.1903478,1.455165,0.3435081,0.04183881,1.254002,0.2350504,0.4015673,1.70306,0.2162793,-0.1882551,1.413143,0.3381446,0.007228164,1.226417,0.2226754,-0.0675085,1.688202,0.2164283,-0.3928493,1.669187,0.05112294,0.1199249,1.670228,0.1297425,-0.3845846,1.639087,-0.01368655,-0.09459711,1.620934,0.4056231,-0.09322084,1.532521,NA,NA,Unknown,Lasso,
0.2729492,-0.9150391,0.3842773,-0.4633789,0.6889648,0.581543,7,-2,-16,-6,-10,3,14,-3,-1,-5,-2,-11,1,0,-1,-2,-43.6875,-43.6875,-43.6875,1.25,1.25,1.25,3.016173,4.548665,1.132564,6.539064,5.857418,9.718975,0.2646283,-0.1707688,1.449045,0.3445115,0.1084718,1.263943,0.2343808,0.4015525,1.705431,0.2314219,-0.1598586,1.410203,0.3266163,0.07641917,1.237667,0.2221028,-0.06735657,1.689168,0.2157028,-0.392454,1.669493,0.05183806,0.1202299,1.67035,0.1288456,-0.3840892,1.639494,-0.01000153,-0.09248476,1.606677,0.4106826,-0.08337612,1.517469,NA,NA,Unknown,Unknown,
0.2998047,-0.8710938,0.3398438,-0.5566406,0.625,0.5283203,-17,-3,21,-31,-15,-12,-23,-19,-7,-8,-9,1,-1,-2,-4,-5,-43.8125,-43.8125,-43.8125,-2.6875,-2.6875,-2.6875,2.932491,4.623741,1.069866,6.552427,6.155015,9.740059,0.2775271,-0.1553,1.443836,0.3450825,0.1646249,1.284204,0.234048,0.4015525,1.707997,0.2308632,-0.1467584,1.408846,0.3386168,0.1338192,1.24472,0.2219654,-0.06710405,1.690037,0.2152586,-0.3919285,1.669797,0.05350197,0.1211254,1.670247,0.1281769,-0.3834107,1.639884,-0.004724934,-0.08930281,1.593652,0.4061177,-0.09245631,1.517173,NA,NA,Unknown,Unknown,
0.2250977,-0.8535156,0.2617188,-0.612793,0.5356445,0.4443359,-15,4,10,18,13,-3,-4,5,-15,-5,-2,-4,-1,0,-1,0,-22.5,-22.5,-22.5,-21.25,-21.25,-21.25,2.887653,4.666707,1.001933,6.53073,6.36197,9.749102,0.2844438,-0.1446734,1.442503,0.3452407,0.2078239,1.310496,0.2339627,0.4014685,1.709878,0.2472661,-0.137024,1.408121,0.3144923,0.1960858,1.275308,0.2214907,-0.06748388,1.690668,0.214796,-0.3907609,1.670307,0.05543617,0.1216617,1.669707,0.1275317,-0.3821771,1.640424,-0.002008531,-0.08700006,1.586651,0.4031455,-0.09680818,1.521521,NA,NA,Unknown,Unknown,
0.2470703,-0.9355469,0.2670898,-0.6772461,0.4648438,0.355957,1,1,23,-13,-4,-5,-21,-1,-9,-3,-6,-9,-4,-2,-2,-5,-5.875,-5.875,-5.875,-25.0625,-25.0625,-25.0625,2.870896,4.679738,0.9643682,6.497212,6.545664,9.760555,0.345856,-0.1398782,1.443648,0.3458924,0.2411611,1.338897,0.2336589,0.4014989,1.711388,0.3744578,-0.175648,1.424972,0.3635461,0.2497345,1.285714,0.2214242,-0.06715982,1.691117,0.2143914,-0.3893459,1.670259,0.05731495,0.1224631,1.668996,0.1268457,-0.3806451,1.640425,0.0005608248,-0.0846647,1.580837,0.3931877,-0.08619118,1.502074,NA,NA,Unknown,Unknown,
0.2368164,-1.015625,0.171875,-0.7719727,0.3520508,0.2900391,9,3,-15,-8,9,9,8,5,-1,-1,2,-4,-1,0,-6,-3,-10.375,-10.375,-10.375,-34.5,-34.5,-34.5,2.843632,4.692001,0.9316537,6.455531,6.700072,9.770113,0.3058388,-0.1373484,1.451711,0.3438959,0.2658142,1.367015,0.2333966,0.4014544,1.712163,0.3584857,-0.06620783,1.4625,0.3411037,0.2583801,1.316474,0.2213862,-0.06673399,1.691462,0.2141011,-0.388355,1.670204,0.05911065,0.1227523,1.668295,0.1263263,-0.379544,1.640461,0.001885392,-0.08359266,1.578296,0.3854869,-0.07495502,1.487085,NA,NA,Unknown,Unknown,
0.2436523,-1.054199,0.144043,-0.859375,0.2998047,0.2641602,-8,-4,31,-4,10,-7,-68,-5,-6,-8,-7,-6,-6,-3,-2,-4,-28.375,-28.375,-28.375,-30,-30,-30,2.800719,4.704454,0.9223261,6.418476,6.843747,9.799942,0.2713369,-0.1303602,1.466365,0.34012,0.2804435,1.388818,0.2332892,0.4014414,1.712729,0.2665698,-0.16679,1.527605,0.3354924,0.2696657,1.337929,0.2214234,-0.06648896,1.691533,0.2139039,-0.3876424,1.669836,0.06038903,0.1226184,1.667569,0.125896,-0.3787148,1.640124,0.003343955,-0.08201441,1.57291,0.3764601,-0.06658755,1.481104,NA,NA,Unknown,Unknown,
0.2050781,-0.9873047,0.1791992,-0.8930664,0.2832031,0.2211914,4,-3,36,-9,-13,14,-10,-4,-5,-1,0,2,-5,1,3,2,-33.75,-33.75,-33.75,-25.0625,-25.0625,-25.0625,2.756235,4.712492,0.9134002,6.390473,6.912098,9.816577,0.2715902,-0.1194607,1.458154,0.3380735,0.282125,1.405935,0.2332813,0.4014626,1.713032,0.2494512,-0.1584797,1.535072,0.3317452,0.2801991,1.35521,0.221265,-0.06658769,1.691544,0.2136961,-0.3871817,1.669637,0.0601742,0.122639,1.667561,0.1254975,-0.3782246,1.640047,0.003151692,-0.07972681,1.567351,0.3712626,-0.063209,1.476292,NA,NA,Unknown,Unknown,
0.1782227,-0.9863281,0.1547852,-0.8959961,0.2783203,0.2050781,2,-3,-5,12,-11,20,-6,-3,2,1,0,1,-10,-1,10,0,-24.875,-24.875,-24.875,-26.875,-26.875,-26.875,2.702289,4.729836,0.9086542,6.337936,6.954052,9.805523,0.3283221,-0.09100065,1.432554,0.3362602,0.2856127,1.418168,0.2334026,0.4015099,1.713432,0.3490558,-0.04046575,1.440391,0.3302264,0.2842202,1.367531,0.2211096,-0.06665024,1.691589,0.2135498,-0.38667,1.669469,0.06008075,0.1226437,1.667556,0.1252812,-0.3777638,1.639921,0.002680785,-0.07725725,1.562022,0.3733392,-0.03244638,1.449954,NA,NA,Unknown,Unknown,
0.1293945,-0.9716797,0.1860352,-0.9355469,0.237793,0.1606445,11,0,-16,20,23,-43,-27,-5,7,5,2,16,-3,0,13,1,-14.8125,-14.8125,-14.8125,-12.9375,-12.9375,-12.9375,2.678535,4.749421,0.9068711,6.251911,6.985529,9.762727,0.270863,-0.09308896,1.433955,0.3360416,0.2842762,1.424605,0.2336763,0.4016078,1.713641,0.2688534,-0.117315,1.522146,0.3295845,0.2821838,1.372979,0.2209995,-0.06669261,1.691585,0.2133728,-0.3863429,1.669318,0.06373651,0.1227746,1.665865,0.1249646,-0.377408,1.639829,2.85301E-05,-0.0736265,1.556959,0.3719588,-0.03534573,1.448531,NA,NA,Unknown,Unknown,
0.09423828,-0.9946289,0.1972656,-1.142578,0.4189453,0.1992188,13,0,-7,49,7,11,30,4,10,-1,-1,-1,8,2,13,-4,2.75,2.75,2.75,6.5,6.5,6.5,2.685359,4.782397,0.9066917,6.329748,6.977412,9.848173,0.2681876,-0.08576883,1.436939,0.3361219,0.2804589,1.425571,0.2338758,0.401631,1.713861,0.2790293,-0.1177266,1.515,0.3310996,0.2824154,1.373955,0.2208593,-0.06670129,1.691588,0.2131331,-0.3857828,1.66921,0.06280552,0.1227491,1.66598,0.1247429,-0.3769334,1.639956,-0.0005930149,-0.07275993,1.555066,0.3697357,-0.0367651,1.448289,NA,NA,Unknown,Lasso,
0.3359375,-0.7714844,0.01855469,-0.9926758,0.190918,0.2651367,-23,-9,-18,-17,6,-25,-4,-1,-2,8,6,6,-3,0,1,-9,-4.0625,-4.0625,-4.0625,0.0625,0.0625,0.0625,2.68379,4.771206,0.906235,6.295182,6.953714,9.822719,0.2667655,-0.0849695,1.436661,0.3334508,0.2762079,1.424474,0.2340249,0.4016366,1.713894,0.2776198,-0.1169574,1.517333,0.3290704,0.2815959,1.372398,0.2207029,-0.06673469,1.69153,0.2129264,-0.3854232,1.668948,0.06356046,0.1226656,1.665308,0.1245712,-0.3766788,1.639874,-0.002180784,-0.07178514,1.55382,0.3688127,-0.03588719,1.448101,NA,NA,Unknown,Lasso,
0.07324219,-0.9873047,-0.003417969,-1.001953,0.2329102,0.2172852,12,6,6,-6,3,53,33,20,23,-7,-4,-12,-8,-3,-7,0,-6.875,-6.875,-6.875,-9,-9,-9,2.672598,4.787142,0.9173687,6.283692,6.965124,9.819534,0.2671538,-0.08196443,1.432487,0.3326075,0.2767815,1.423629,0.2340078,0.4016078,1.713923,0.264935,-0.1035383,1.519875,0.33668,0.2886924,1.380449,0.2204518,-0.06683586,1.691404,0.2126331,-0.3852682,1.668707,0.06442959,0.1227066,1.664847,0.1242265,-0.3764756,1.639725,-0.002874371,-0.07123206,1.553393,0.3666428,-0.03570722,1.44768,NA,NA,Unknown,Lasso,
0.137207,-1.010254,0.1171875,-0.9829102,0.2753906,0.2294922,21,13,-10,-7,-1,19,2,12,9,3,-1,-2,2,4,8,21,-6.3125,-6.3125,-6.3125,3.25,3.25,3.25,2.64908,4.786104,0.9248142,6.315271,6.976216,9.848015,0.2633575,-0.08009593,1.431861,0.329902,0.2778466,1.425183,0.2339749,0.4015427,1.713939,0.2558979,-0.1117117,1.521625,0.3265755,0.2850759,1.37492,0.2201628,-0.06688972,1.691326,0.2123225,-0.3849438,1.668524,0.06377815,0.1226238,1.665189,0.1239074,-0.3761315,1.639789,-0.005350675,-0.07004882,1.552523,0.3657339,-0.03560716,1.446709,NA,NA,Unknown,Lasso,
0.08984375,-0.9736328,0.1064453,-0.9453125,0.2241211,0.230957,-19,-2,18,30,18,3,-57,-11,-3,-2,2,-5,-6,-1,-3,-12,-2.1875,-2.1875,-2.1875,-4.5,-4.5,-4.5,2.6342,4.792476,0.9379188,6.339966,6.978996,9.879623,0.1168035,-0.08427212,1.483788,0.3271831,0.2777219,1.424789,0.2338547,0.4014059,1.714003,0.1435196,-0.1322303,1.543786,0.3212229,0.2861429,1.37514,0.2199623,-0.06690068,1.691298,0.2121084,-0.3845637,1.668378,0.06328476,0.1226863,1.665742,0.1236721,-0.3757597,1.639866,-0.006956097,-0.06876618,1.551517,0.3640957,-0.03469913,1.445517,NA,NA,Unknown,Lasso,
0.1118164,-1.021484,0.0859375,-0.9287109,0.2871094,0.2216797,-12,-1,44,33,9,-37,8,-13,-3,0,-1,-2,-10,-3,-9,0,-8.125,-8.125,-8.125,0.375,0.375,0.375,2.62172,4.799044,0.9408094,6.380739,6.975135,9.92003,0.2576601,-0.07530623,1.424005,0.324016,0.2782051,1.422658,0.2333542,0.4010124,1.714167,0.2786016,-0.06029894,1.452417,0.3108883,0.2870249,1.376025,0.219689,-0.06696355,1.69119,0.2118115,-0.3842696,1.668053,0.06201268,0.1225108,1.66617,0.1234995,-0.3755634,1.639876,-0.008053353,-0.06798119,1.550042,0.3632492,-0.0324195,1.442752,NA,NA,Unknown,Lasso,
0.1337891,-1.047363,0.04736328,-0.9301758,0.2763672,0.1738281,-18,-2,-5,-8,-13,-2,10,-19,13,-1,8,22,-35,-4,9,-4,-13.8125,-13.8125,-13.8125,-1.375,-1.375,-1.375,2.603087,4.799946,0.9395338,6.482633,6.96301,0.03647455,0.255291,-0.07384544,1.422632,0.318836,0.2778666,1.421326,0.232609,0.4007204,1.714522,0.2861247,-0.05154068,1.4289,0.3091385,0.2917062,1.374472,0.2194219,-0.06700459,1.691085,0.2113926,-0.3840032,1.66776,0.06121513,0.1224685,1.666527,0.1231808,-0.3753326,1.639938,-0.01036996,-0.06685742,1.549308,0.3630734,-0.0309904,1.440823,NA,NA,Unknown,Lasso,
0.1171875,-1.10791,0.015625,-0.9433594,0.2753906,0.2504883,-16,-6,-6,47,-22,-79,-86,-25,7,-1,3,-14,8,3,10,-9,-28.875,-28.875,-28.875,-14.5625,-14.5625,-14.5625,2.556887,4.788648,0.9139429,6.623235,6.923463,0.2001384,0.2543672,-0.07199124,1.42276,0.3089676,0.2644831,1.414718,0.2316044,0.4002347,1.714039,0.2892617,-0.04976333,1.428857,0.2891006,0.287032,1.374533,0.219014,-0.06706379,1.69086,0.2109209,-0.3838392,1.667355,0.06055856,0.1224376,1.666748,0.1228872,-0.3751826,1.640028,-0.01140023,-0.06585048,1.547925,0.3582751,-0.01045204,1.433554,NA,NA,Unknown,Lasso,
0.1210938,-0.9619141,-0.001464844,-0.909668,0.3466797,0.1679688,-2,-8,11,-21,-17,-12,38,-18,-1,2,-4,-2,11,3,28,35,-23.1875,-23.1875,-23.1875,-18.8125,-18.8125,-18.8125,2.517016,4.773163,0.8873045,6.89926,6.814204,0.5495529,0.256046,-0.06859421,1.422827,0.276249,0.2951478,1.420687,0.2289211,0.4002264,1.712531,0.2909437,-0.04863706,1.428861,0.27464,0.2882448,1.369129,0.218891,-0.06736632,1.690785,0.21035,-0.3848317,1.667005,0.05991077,0.1225523,1.666984,0.1224935,-0.3762499,1.640442,-0.01329075,-0.06251628,1.543457,0.3567564,-0.009191874,1.430511,NA,NA,Unknown,Lasso,
0.09277344,-0.9658203,0.01269531,-0.890625,0.4233398,0.05957031,9,-1,-38,18,1,-5,-41,16,23,-4,-4,-9,-14,-3,6,-5,-18.8125,-18.8125,-18.8125,-6.8125,-6.8125,-6.8125,2.485304,4.76537,0.8683203,7.126235,6.68639,0.8271385,0.2679517,-0.06263383,1.423637,0.2351101,0.2825087,1.422955,0.2280985,0.4057696,1.712923,0.2989344,0.01300665,1.432667,0.2325337,0.2742724,1.369333,0.2181407,-0.06866048,1.690391,0.2096205,-0.3877221,1.666221,0.06072322,0.1213971,1.665531,0.1220147,-0.3794452,1.641389,-0.01349385,-0.06122426,1.53868,0.3548451,-0.009240557,1.427401,NA,NA,Unknown,Unknown,
0.1523438,-0.9282227,-0.004394531,-0.7700195,0.5078125,0.09228516,-6,-10,-12,-3,-12,2,76,-54,-4,-1,3,-1,-16,-2,-3,3,-5.375,-5.375,-5.375,4.4375,4.4375,4.4375,2.471771,4.765718,0.858987,7.300993,6.511298,1.033294,0.3054397,-0.05466869,1.424639,0.2080808,0.2338125,1.416568,0.2303749,0.4114248,1.71689,0.2972724,-0.002510106,1.434,0.1839796,0.2449732,1.370419,0.2164518,-0.07180586,1.6895,0.2091692,-0.3911516,1.665225,0.05854507,0.1219388,1.666091,0.1217047,-0.3829659,1.641964,-0.01220108,-0.05862841,1.53393,0.3570044,-0.01646251,1.431914,NA,NA,Unknown,Unknown,
0.1777344,-0.949707,-0.008300781,-0.6992188,0.6660156,0.06835938,-32,-6,-26,-53,-17,-51,-1,9,6,-2,1,36,0,-11,7,6,3.75,3.75,3.75,-4.875,-4.875,-4.875,2.468902,4.768545,0.8504168,7.450918,6.271943,1.226281,0.2774161,-0.05715431,1.424626,0.1555084,0.2215173,1.422233,0.2321302,0.4111641,1.716609,0.2883871,0.006900325,1.41253,0.1618578,0.2382029,1.395485,0.2164408,-0.07445137,1.688294,0.2092064,-0.3934175,1.664769,0.05707527,0.1221834,1.666487,0.1217455,-0.3855043,1.641215,-0.005011744,-0.0573602,1.528188,0.3573778,-0.01851852,1.435377,NA,NA,Unknown,Unknown,
0.2260742,-0.9985352,-0.03808594,-0.6235352,0.7509766,-0.03027344,8,3,30,58,3,-7,7,9,-9,-7,-7,-11,4,-3,-17,-6,-1.875,-1.875,-1.875,2.8125,2.8125,2.8125,2.462822,4.761676,0.8456746,7.518188,6.114855,1.323189,0.1320307,-0.06415506,1.455732,0.1229646,0.1938753,1.427906,0.2356141,0.407475,1.718627,0.05865858,-0.07083257,1.469429,0.1100253,0.1760225,1.382981,0.2170394,-0.07379303,1.68806,0.2101124,-0.3938649,1.664347,0.05588178,0.1213563,1.666155,0.1235355,-0.3863876,1.636933,-0.003581965,-0.05889946,1.527621,0.356452,-0.02316634,1.435651,NA,NA,Unknown,Unknown,
0.137207,-1.045898,-0.04443359,-0.484375,0.8657227,-0.03222656,13,10,16,15,11,8,70,47,6,0,-7,-10,8,-1,-5,0,4.375,4.375,4.375,-4.8125,-4.8125,-4.8125,2.465917,4.751099,0.8385921,7.552323,5.958714,1.387834,0.2635492,-0.03597526,1.422938,0.1174966,0.1514332,1.428391,0.2373198,0.4051741,1.719422,0.2442912,0.0266744,1.413389,0.07917793,0.1292807,1.422357,0.2190841,-0.07035171,1.688697,0.211267,-0.392383,1.663949,0.05513058,0.1212312,1.665684,0.1253995,-0.38387,1.632179,-0.003597961,-0.0598516,1.527989,0.356406,-0.02671264,1.437413,NA,NA,NotTracked,Lasso,
0.1386719,-0.9897461,-0.04833984,-0.4360352,0.9267578,0.008789063,-33,1,4,-45,-3,-10,-33,-14,-10,-5,-11,-14,-4,-10,28,-22,0.0625,0.0625,0.0625,-5.1875,-5.1875,-5.1875,2.465401,4.740912,0.8258823,7.575594,5.777051,1.4644,0.2774445,-0.0616762,1.427951,0.2104798,0.06558367,1.418901,0.2377426,0.4043644,1.719785,0.2430666,-0.09809356,1.513714,0.1153713,0.1029449,1.3966,0.2198068,-0.06986802,1.689199,0.211734,-0.3923807,1.663675,0.05299871,0.1176242,1.661639,0.1258614,-0.3840648,1.631219,-0.002510333,-0.06472521,1.524335,0.3566574,-0.03066743,1.440228,NA,NA,NotTracked,NotTracked,
0.1279297,-0.9741211,-0.0546875,-0.4716797,0.9492188,-0.01757813,-5,-13,14,4,6,-37,-105,-27,0,-13,-7,-8,-20,1,6,1,1.4375,1.4375,1.4375,8.9375,8.9375,8.9375,2.465956,4.726403,0.8124117,7.592098,5.673976,1.502953,0.1276328,-0.07207622,1.465831,0.2384181,0.03236663,1.418828,0.2379803,0.4038601,1.71985,0.2034371,0.02226828,1.417,0.2218018,0.006302237,1.4272,0.2206401,-0.06782936,1.689839,0.2126671,-0.3895756,1.663338,0.05256861,0.1181379,1.661437,0.1270229,-0.3816665,1.632226,0.002810645,-0.0639605,1.521393,0.3575542,-0.03466249,1.44372,NA,NA,NotTracked,NotTracked,
0.1625977,-0.9936523,-0.008300781,-0.3701172,0.9570313,-0.09716797,-11,3,-18,-19,-3,-7,13,-15,-1,-3,-10,16,3,-8,23,26,-4.4375,-4.4375,-4.4375,3.0625,3.0625,3.0625,2.466315,4.711155,0.8036001,7.622808,5.591281,1.528001,0.2835517,-0.07034742,1.429628,0.229481,0.01887874,1.427859,0.2379927,0.4035257,1.719947,0.2582265,-0.1046136,1.510128,0.2732662,0.05831316,1.52025,0.2211038,-0.06607055,1.6902,0.2132313,-0.386435,1.663426,0.05216013,0.1196234,1.661672,0.1279927,-0.3786411,1.633207,0.006587868,-0.06271802,1.52042,0.3583173,-0.03751875,1.446175,NA,NA,NotTracked,NotTracked,
0.1538086,-0.9462891,-0.01757813,-0.3237305,0.9887695,-0.05273438,14,2,15,-2,5,-71,-100,-8,4,3,-2,-10,3,2,-6,-5,3.3125,3.3125,3.3125,5.125,5.125,5.125,2.477068,4.708213,0.7955109,7.651585,5.509654,1.546946,0.2856417,-0.0713853,1.428538,0.2225458,0.01556261,1.428277,0.2375629,0.4030494,1.71971,0.2568053,-0.1063204,1.510407,0.2702445,0.05142466,1.517265,0.221168,-0.06559488,1.690244,0.2133197,-0.3854096,1.663377,0.05209432,0.120313,1.661251,0.1281352,-0.3776857,1.633215,0.009281061,-0.06211316,1.519177,0.3588889,-0.03905304,1.447509,NA,NA,NotTracked,NotTracked,
0.2172852,-0.9960938,-0.0078125,-0.234375,0.9624023,-0.07714844,11,-6,0,2,-5,-12,0,-10,1,-2,11,84,21,2,-12,-26,7.75,7.75,7.75,-6.0625,-6.0625,-6.0625,2.487448,4.707851,0.7893481,7.65373,5.449331,1.561537,0.2824395,-0.06703438,1.426251,0.0922876,0.04004247,1.449463,0.2362039,0.4025789,1.71879,0.2716292,-0.08428808,1.487444,0.1251739,0.05828783,1.4256,0.2209885,-0.06495586,1.690048,0.2132192,-0.3843272,1.663122,0.05194822,0.1205992,1.661122,0.1281306,-0.3768262,1.633339,0.0110603,-0.06179281,1.518385,0.3592587,-0.0401081,1.448604,NA,NA,NotTracked,NotTracked,
0.175293,-0.9936523,-0.015625,-0.2290039,0.9604492,-0.1044922,-21,-3,17,55,27,15,-15,-18,-14,-13,-8,-19,15,-8,-5,3,2.6875,2.6875,2.6875,6.6875,6.6875,6.6875,2.491227,4.704039,0.7693453,7.660341,5.409645,1.582794,0.2377281,0.03157078,1.441803,0.087465,0.02509838,1.458873,0.2350037,0.4018774,1.718134,0.2035882,0.03899763,1.4398,0.04675728,-0.02554167,1.480125,0.220778,-0.06446265,1.690028,0.213229,-0.383455,1.663237,0.05189358,0.1207713,1.661166,0.1282273,-0.375994,1.633777,0.01327751,-0.06145865,1.517523,0.3594945,-0.04074883,1.449716,NA,NA,NotTracked,NotTracked,
0.5332031,-1.276855,-0.137207,-0.1826172,0.9819336,-0.09521484,13,8,7,10,7,42,28,1,1,-5,-11,13,-5,-2,-6,-1,-27.25,-27.25,-27.25,-16,-16,-16,2.461943,4.69382,0.766457,7.670745,5.381085,1.59382,0.1855136,0.143784,1.368462,0.08404606,0.01673336,1.464833,0.2335301,0.4013991,1.717364,0.2359414,0.1364031,1.325389,0.07367694,-0.0330216,1.48645,0.2205132,-0.06405497,1.689996,0.2131143,-0.3828938,1.663417,0.05169602,0.1214026,1.661825,0.1281687,-0.3754087,1.63431,0.01720916,-0.06066342,1.516828,0.3599546,-0.04157072,1.452218,NA,NA,NotTracked,NotTracked,
0.1723633,-1.043945,-0.03125,-0.2241211,1,-0.1274414,-15,2,-3,17,11,-13,30,-13,-11,-10,7,39,-3,-16,1,2,1.1875,1.1875,1.1875,0,0,0,2.489882,4.696815,0.755264,7.663691,5.362117,1.593924,0.2581109,0.02543597,1.44647,0.08128036,0.01026098,1.468124,0.2324842,0.4011118,1.716502,0.2539122,0.0210552,1.401882,0.1004372,0.04333459,1.522778,0.2202495,-0.06376803,1.689924,0.2130144,-0.3824838,1.663601,0.05129478,0.1219322,1.662333,0.1281382,-0.3749972,1.634721,0.01835566,-0.06049516,1.517439,0.3599307,-0.04220269,1.452841,NA,NA,NotTracked,NotTracked,
0.234375,-0.9741211,0.01318359,-0.2456055,0.9228516,-0.06298828,6,4,7,3,-7,-38,-44,-19,-4,1,3,21,26,5,7,1,-1.3125,-1.3125,-1.3125,-11.4375,-11.4375,-11.4375,2.488351,4.695201,0.7557735,7.640381,5.356033,1.594403,0.2677458,0.01764344,1.432282,0.08137393,0.008998632,1.467994,0.231576,0.4009132,1.715378,0.2700966,0.01260916,1.397268,0.1310154,0.0005915652,1.5248,0.2199825,-0.06351019,1.689867,0.2128936,-0.382219,1.663723,0.05099719,0.1222025,1.662817,0.1280317,-0.3747382,1.635116,0.02052905,-0.06095749,1.518344,0.3602705,-0.04270619,1.453642,NA,NA,NotTracked,NotTracked,
0.2011719,-1.003906,-0.0009765625,-0.2177734,0.9458008,-0.07666016,18,-3,2,-14,12,-8,-14,2,-1,5,4,-13,-3,-3,-3,4,1.375,1.375,1.375,0.1875,0.1875,0.1875,2.490361,4.69402,0.7485363,7.635786,5.357762,1.593724,0.2104991,0.1294957,1.376473,0.08201794,0.007182101,1.470983,0.2308932,0.4007246,1.714824,0.1915186,0.1444606,1.455738,0.132201,0.01191016,1.529071,0.2197349,-0.06332833,1.689822,0.21274,-0.3819828,1.663844,0.05082212,0.1223284,1.663001,0.1278585,-0.3744202,1.635518,0.02197197,-0.06103259,1.518446,0.3603883,-0.04341349,1.454279,NA,NA,NotTracked,NotTracked,
0.1699219,-0.9819336,0.03271484,-0.222168,0.9458008,-0.07519531,-9,-7,-15,6,-20,-20,23,-9,6,1,0,-8,-8,-3,-7,-6,4.25,4.25,4.25,-2.8125,-2.8125,-2.8125,2.495495,4.684284,0.7467946,7.629303,5.358271,1.588646,0.2646143,0.0179787,1.433351,0.08022784,-0.00950573,1.469668,0.2303209,0.4006422,1.714333,0.2292951,0.02471811,1.431333,0.1284188,0.03514955,1.430047,0.2193553,-0.06304666,1.689772,0.2124561,-0.3816482,1.663899,0.05073417,0.1224438,1.663191,0.1276545,-0.3741441,1.635568,0.02221837,-0.06097658,1.518647,0.360651,-0.0444623,1.455431,NA,NA,NotTracked,NotTracked,
