ALX,ALY,ALZ,ARX,ARY,ARZ,EMG0L,EMG1L,EMG2L,EMG3L,EMG4L,EMG5L,EMG6L,EMG7L,EMG0R,EMG1R,EMG2R,EMG3R,EMG4R,EMG5R,EMG6R,EMG7R,GLX,GLY,GLZ,GRX,GRY,GRZ,ORL,OPL,OYL,ORR,OPR,OYR,LHNX,LHNY,LHNZ,RHNX,RHNY,RHNZ,HX,HY,HZ,LTX,LTY,LTZ,RTX,RTY,RTZ,SpineMidX,SpineMidY,SpineMidZ,SpineBaseX,SpineBaseY,SpineBaseZ,ShoulderLeftX,ShoulderLeftY,ShoulderLeftZ,ShoulderRightX,ShoulderRightY,ShoulderRightZ,ElbowLeftX,ElbowLeftY,ElbowLeftZ,ElbowRightX,ElbowRightY,ElbowRightZ,Myo_Pose_left,Myo_Pose_Right,Kinect_pose_left,Kinect_pose_right
0.9433594,0.2387695,0.2426758,0.9033203,0.3896484,0.06445313,0,-2,-1,0,-1,0,0,-1,-1,0,-1,-2,0,0,0,-1,-2.8125,-2.8125,-2.8125,-5.9375,-5.9375,-5.9375,6.21577,2.973706,5.831042,7.343252,3.127392,5.190981,-0.1727161,-0.4270593,1.423813,0.27525,-0.437696,1.34725,0.112779,0.3681428,1.402154,-0.2182963,-0.431511,1.429054,0.2319313,-0.4139285,1.342828,0.07446941,-0.07860302,1.457032,0.05843433,-0.3946914,1.452086,-0.1052793,0.1395447,1.472186,-0.03027358,-0.3827385,1.420655,-0.1689444,-0.1058579,1.508075,0.2967953,-0.1454855,1.442324,NA,NA,NotTracked,NotTracked,
0.9433594,0.2363281,0.2294922,0.8818359,0.3671875,0.06152344,-2,0,0,-2,-3,-1,-2,-1,-1,-1,-1,-2,-3,2,0,-1,-1.125,-1.125,-1.125,-1.4375,-1.4375,-1.4375,6.210806,2.973143,5.834034,7.349522,3.12449,5.176072,-0.1737506,-0.4267882,1.422599,0.274995,-0.4380262,1.348883,0.1139639,0.3685013,1.402601,-0.2188472,-0.4367697,1.425694,0.2331231,-0.4309895,1.346206,0.07442119,-0.07823572,1.45791,0.05813729,-0.39441,1.453272,-0.1049831,0.1397267,1.472237,-0.030517,-0.3823739,1.421535,-0.1692094,-0.105471,1.508371,0.2963627,-0.1455696,1.443106,NA,NA,NotTracked,NotTracked,
0.9355469,0.2197266,0.2177734,0.9033203,0.375,0.05322266,0,-4,-1,-2,2,0,-1,-1,-1,-1,1,0,-1,-3,-1,0,-6.1875,-6.1875,-6.1875,-4.4375,-4.4375,-4.4375,6.225335,2.984203,5.803146,7.354846,3.121844,5.163526,-0.1738967,-0.423957,1.421529,0.2754605,-0.4388678,1.351948,0.1152491,0.3682424,1.402703,-0.2215311,-0.4245901,1.435348,0.2372022,-0.4197388,1.354699,0.0744402,-0.07807577,1.4586,0.05810232,-0.3942156,1.45451,-0.104573,0.1400675,1.472291,-0.03054862,-0.3821236,1.422466,-0.1694627,-0.1049778,1.508332,0.2955918,-0.1452464,1.444649,NA,NA,NotTracked,NotTracked,
0.9458008,0.2226563,0.2026367,0.8935547,0.3842773,0.06591797,-2,-3,1,-1,-1,-1,-3,0,1,-2,1,0,-1,-1,0,-2,-3.25,-3.25,-3.25,-9.125,-9.125,-9.125,6.247824,2.994016,5.770324,7.351238,3.121497,5.152672,-0.1730801,-0.4232501,1.418991,0.2753981,-0.4392141,1.354264,0.1163194,0.3681027,1.402639,-0.2223499,-0.447491,1.431167,0.230982,-0.4128021,1.350121,0.07437342,-0.07801165,1.459143,0.05807357,-0.3942025,1.455547,-0.1041561,0.1401818,1.471889,-0.03061984,-0.3820567,1.42317,-0.1702518,-0.1045281,1.507966,0.2952904,-0.1452871,1.445877,NA,NA,NotTracked,NotTracked,
0.9477539,0.2124023,0.2075195,0.894043,0.3789063,0.07519531,-2,-1,-1,0,-3,0,-1,0,-1,1,-2,-1,-1,0,0,-3,-3.0625,-3.0625,-3.0625,-6,-6,-6,6.259059,2.998587,5.752123,7.344089,3.122235,5.144391,-0.1735655,-0.4231657,1.415608,0.2758155,-0.4396941,1.355581,0.1169136,0.3681044,1.402633,-0.2212949,-0.4378247,1.429481,0.2312944,-0.4246594,1.347469,0.07435514,-0.07799738,1.459524,0.0579985,-0.3941581,1.456262,-0.103935,0.1404077,1.471616,-0.03070216,-0.3819993,1.423761,-0.1706696,-0.1042116,1.507341,0.2949739,-0.1453196,1.447184,NA,NA,NotTracked,NotTracked,
0.9453125,0.2041016,0.2207031,0.9042969,0.3764648,0.08105469,0,1,0,-2,-2,-1,0,0,0,0,2,0,-2,-2,0,1,-4.5625,-4.5625,-4.5625,-2.4375,-2.4375,-2.4375,6.271249,3.001984,5.731814,7.335568,3.125494,5.140654,-0.1729258,-0.4229637,1.413365,0.275776,-0.4381542,1.355939,0.117294,0.3681279,1.402678,-0.2207317,-0.4347967,1.425149,0.2322699,-0.4209529,1.348153,0.07445101,-0.07795632,1.459738,0.0581599,-0.3940849,1.456765,-0.1037546,0.1405119,1.471246,-0.03059042,-0.3819266,1.424127,-0.1707549,-0.1041919,1.506304,0.2946908,-0.1450738,1.448467,NA,NA,NotTracked,NotTracked,
0.9394531,0.203125,0.2216797,0.8925781,0.3994141,0.06103516,0,-2,-3,-1,-1,-1,0,-1,1,1,-2,-2,-2,-1,2,-1,-3.25,-3.25,-3.25,-0.5,-0.5,-0.5,6.27894,3.003295,5.717334,7.335878,3.130189,5.137966,-0.1721789,-0.4221521,1.412457,0.2760623,-0.4384311,1.356281,0.1174609,0.3683206,1.402834,-0.2187086,-0.4373887,1.42,0.2316046,-0.4190772,1.348365,0.07437796,-0.07790551,1.459895,0.05825597,-0.3941036,1.456976,-0.1037069,0.1405459,1.470738,-0.03053312,-0.3819563,1.42422,-0.1710154,-0.1042278,1.505127,0.2945872,-0.144986,1.449247,NA,NA,NotTracked,NotTracked,
0.9311523,0.2055664,0.222168,0.9443359,0.4418945,0.04882813,-1,-2,-2,-1,1,0,0,-1,2,-1,-12,-6,-1,-3,0,-2,-0.25,-0.25,-0.25,1.75,1.75,1.75,6.280861,3.004138,5.713146,7.339018,3.141456,5.137237,-0.1724387,-0.4222709,1.410888,0.2758035,-0.4380336,1.354821,0.1173146,0.3689209,1.403581,-0.219807,-0.4171989,1.428032,0.2321899,-0.4206949,1.347829,0.07426123,-0.07778901,1.459903,0.05828204,-0.3940966,1.456957,-0.103914,0.1407005,1.470425,-0.03049812,-0.3819576,1.424193,-0.1712284,-0.1042357,1.504103,0.2944038,-0.1448494,1.449621,NA,NA,NotTracked,NotTracked,
1.227051,0.3481445,0.3227539,1.156738,0.5834961,0.1376953,-30,-8,-9,-3,2,-1,-2,-11,-6,-8,-16,-6,-6,-4,3,0,43.125,43.125,43.125,0.0625,0.0625,0.0625,6.401664,3.054331,5.615632,7.173178,3.247545,5.318827,-0.1716226,-0.4172819,1.400819,0.2749019,-0.4354073,1.346175,0.116338,0.3702031,1.405505,-0.222489,-0.4322702,1.407455,0.2314532,-0.4217887,1.345983,0.07373322,-0.07737348,1.459977,0.05818874,-0.3940261,1.456841,-0.1046196,0.1408397,1.470056,-0.03061323,-0.3819037,1.423903,-0.1717938,-0.1040707,1.504028,0.29449,-0.1446041,1.450104,NA,NA,NotTracked,NotTracked,
1.237793,0.5063477,0.3886719,1.275391,0.8251953,0.3212891,14,-5,-10,-10,-1,-4,0,5,-6,-21,-58,-30,-19,-6,-4,-2,51.375,51.375,51.375,-18.4375,-18.4375,-18.4375,6.473364,3.115428,5.5693,6.898119,3.459336,5.611298,-0.1637515,-0.3648671,1.362582,0.2641098,-0.4162691,1.319754,0.1140872,0.372256,1.40817,-0.1813095,-0.3560102,1.314303,0.2269612,-0.3958237,1.337648,0.07295369,-0.07663239,1.459764,0.05800055,-0.3938333,1.456079,-0.1051877,0.1408822,1.469874,-0.03081291,-0.3818905,1.422967,-0.1742795,-0.1023871,1.508438,0.2972461,-0.1434097,1.453949,NA,NA,NotTracked,NotTracked,
0.9555664,1.277832,0.2382813,1.217773,0.8686523,0.7158203,-4,0,3,1,9,0,2,-2,11,8,9,13,23,19,28,16,36.4375,36.4375,36.4375,-54.5,-54.5,-54.5,6.895326,3.757423,5.280758,6.642802,3.840227,5.860575,-0.1249392,-0.2750488,1.319504,0.2254987,-0.3434548,1.294381,0.1111538,0.374375,1.409809,-0.1550936,-0.274857,1.251875,0.177762,-0.3535917,1.31445,0.07012946,-0.07474387,1.4585,0.05549652,-0.3924894,1.45296,-0.1072822,0.1420597,1.470956,-0.03304813,-0.3807009,1.419973,-0.1778379,-0.09844738,1.518206,0.3036337,-0.1365067,1.464512,NA,NA,NotTracked,NotTracked,
0.6933594,1.050293,0.2817383,0.1235352,0.5454102,0.6079102,-4,-1,-1,8,8,-2,-1,-3,-4,2,-1,-9,-13,-9,-12,-3,-23.125,-23.125,-23.125,-95.125,-95.125,-95.125,6.915714,3.928047,5.232078,6.324594,4.560223,6.097711,-0.06481859,-0.1802255,1.296134,0.1987464,-0.2160358,1.259039,0.1075024,0.3769824,1.411096,-0.1144692,-0.1575258,1.236123,0.1563039,-0.2679677,1.288125,0.06739898,-0.07303561,1.457532,0.05260596,-0.3907337,1.451171,-0.1093272,0.1430305,1.471832,-0.03552943,-0.3790299,1.418359,-0.1837351,-0.09088172,1.519711,0.304451,-0.1138191,1.46689,NA,NA,Unknown,Closed,
0.01953125,0.3691406,0.3149414,-0.1743164,0.1313477,0.1948242,-1,1,-1,-7,-7,-4,-1,-4,-1,-1,0,-3,-4,0,1,1,-71.6875,-71.6875,-71.6875,-5.5625,-5.5625,-5.5625,6.810656,4.699163,5.06537,6.224389,5.111111,6.257263,-0.04804617,-0.1008237,1.251423,0.1506806,-0.08520065,1.260039,0.1036559,0.3797281,1.412457,-0.0879071,-0.08093806,1.215077,0.1042407,-0.1163337,1.290211,0.06663407,-0.07163852,1.457236,0.05228984,-0.3889671,1.450719,-0.1105186,0.1438909,1.472026,-0.03575658,-0.3776978,1.418016,-0.1728813,-0.1010664,1.455632,0.3076043,-0.08701344,1.440051,NA,NA,NotTracked,Unknown,
0.02197266,0.3901367,0.3398438,-0.3012695,0.4301758,0.2290039,-3,-7,-25,-33,-17,-5,-4,-3,3,-1,8,24,21,7,-2,-1,-55,-55,-55,91.375,91.375,91.375,6.783842,4.815849,5.032727,6.376109,5.517583,6.403678,-0.03937033,-0.05088685,1.238509,0.1311871,0.01228141,1.278654,0.1001353,0.3824006,1.41548,0.005044739,-0.04946823,1.2362,0.07394551,-0.02731347,1.301059,0.06554575,-0.07076165,1.45769,0.05200242,-0.3885939,1.45064,-0.1131213,0.1432654,1.46933,-0.03591407,-0.3774581,1.417938,-0.1823623,-0.0768349,1.477246,0.3090978,-0.08826111,1.430626,NA,NA,NotTracked,NotTracked,
-0.05078125,0.777832,0.4404297,-0.2485352,0.8745117,0.4824219,6,2,0,0,1,-1,0,0,-1,0,-1,0,-5,3,-1,1,-20.6875,-20.6875,-20.6875,50.625,50.625,50.625,6.668262,5.199672,4.816032,6.5875,5.627602,6.579078,0.1089099,0.01302378,1.247536,0.1605658,0.001294438,1.257716,0.09534578,0.3854685,1.42091,0.1415571,-0.02681893,1.230667,0.1322922,-0.01956838,1.218156,0.06471897,-0.07011548,1.458252,0.05184951,-0.3884938,1.450657,-0.1145773,0.1424866,1.468224,-0.03597308,-0.3774286,1.417929,-0.1860266,-0.07602862,1.476774,0.3103244,-0.09017149,1.41738,NA,NA,NotTracked,NotTracked,
0.03613281,0.8217773,0.4570313,-0.2495117,1.192383,0.8061523,0,-1,-3,0,-3,-3,-3,-1,3,1,-6,-4,3,3,1,4,-13,-13,-13,50.875,50.875,50.875,6.636399,5.244003,4.736293,6.68759,5.605463,6.643457,0.1017029,0.01172384,1.241386,0.1585882,0.000558035,1.252937,0.09169312,0.3879442,1.425927,0.1365325,-0.02816424,1.234975,0.12275,-0.01614981,1.205655,0.06386078,-0.06943769,1.458508,0.05179549,-0.3883309,1.450428,-0.1164029,0.1412267,1.466241,-0.035929,-0.3773611,1.41756,-0.1914045,-0.07728852,1.472742,0.3108709,-0.08889162,1.401362,NA,NA,NotTracked,NotTracked,
-0.1000977,0.8364258,0.4907227,-0.7387695,1.039551,0.4345703,-1,-9,-21,-20,-16,-1,-2,-2,16,20,27,29,18,4,7,4,-19.25,-19.25,-19.25,5.625,5.625,5.625,6.608531,5.266511,4.690538,6.735228,5.751596,6.72653,-0.01403369,-0.02274864,1.238434,0.08722709,0.04322445,1.254904,0.0881085,0.391043,1.431203,0.02379661,-0.02930099,1.272227,0.05850092,0.0683891,1.258957,0.06281794,-0.06863111,1.459066,0.05173702,-0.3882232,1.450312,-0.1181479,0.1400402,1.465653,-0.03595462,-0.377325,1.417285,-0.1895945,-0.08021653,1.458302,0.3114808,-0.08544733,1.387578,NA,NA,NotTracked,NotTracked,
-0.2211914,0.9326172,0.496582,-0.7773438,0.6123047,0.3120117,-2,-1,4,-1,-5,-3,-3,-2,-4,-2,-5,-2,-4,-5,-5,1,14.3125,14.3125,14.3125,47.9375,47.9375,47.9375,6.612577,5.269282,4.671913,6.859993,6.013783,6.858146,-0.02180215,-0.02575256,1.241077,0.1253772,0.07821143,1.287087,0.08603859,0.3924122,1.433174,0.02818024,-0.02571042,1.285667,0.17295,0.08987784,1.245538,0.061783,-0.06848758,1.459316,0.05107804,-0.3889976,1.449997,-0.119269,0.1400512,1.465114,-0.03674773,-0.3784715,1.417368,-0.1939485,-0.08213983,1.459985,0.3375626,-0.08827884,1.36877,NA,NA,NotTracked,NotTracked,
-0.2827148,0.8422852,0.5375977,-0.4511719,0.2075195,-0.1054688,-8,-5,1,-6,-3,1,0,-3,-3,-4,-2,-5,3,5,-3,-9,-10.3125,-10.3125,-10.3125,19.9375,19.9375,19.9375,6.605385,5.275976,4.661173,7.040688,6.259503,6.979941,-0.02435314,-0.03511825,1.272433,0.1385276,0.117765,1.289785,0.0840009,0.3937875,1.43528,0.01199643,-0.08239198,1.296884,0.1895733,0.1145783,1.244194,0.06005047,-0.06888582,1.45922,0.04998283,-0.3905267,1.449865,-0.1199736,0.1400451,1.464679,-0.03838056,-0.3805547,1.419117,-0.2131507,-0.09436313,1.449513,0.3386879,-0.07681831,1.347225,NA,NA,Closed,Unknown,
-0.2026367,0.8959961,0.5219727,0.2431641,0.0004882813,-0.008300781,0,-4,-13,-14,1,-1,0,-1,-1,-2,-1,4,-19,-15,-5,-1,2.4375,2.4375,2.4375,-49.375,-49.375,-49.375,6.606826,5.287791,4.634073,6.759459,5.943726,6.626525,-0.02276199,-0.03383698,1.273367,0.1357398,0.1426768,1.224047,0.08290114,0.3957133,1.436825,0.0121974,-0.07966687,1.297882,0.1048574,0.1223173,1.188718,0.06078593,-0.07044752,1.456775,0.04948016,-0.3916232,1.449572,-0.1205067,0.1400589,1.464489,-0.03913431,-0.3816664,1.41991,-0.2145391,-0.0941839,1.453215,0.3242135,-0.05488623,1.32629,NA,NA,Closed,Unknown,
-0.2163086,0.6972656,0.5385742,0.2651367,0.3466797,0.4355469,3,2,-1,3,9,1,0,1,4,4,-3,-14,23,14,5,6,0.25,0.25,0.25,89,89,89,6.587018,5.314145,4.619553,6.721329,5.393791,6.350119,-0.02125933,-0.0314438,1.27357,0.140523,0.05002555,1.154276,0.08272141,0.3962364,1.438139,0.01363719,-0.08050731,1.296491,0.1201714,0.02750069,1.112133,0.057543,-0.0688908,1.457811,0.04923048,-0.3922255,1.449395,-0.1207618,0.1396315,1.463384,-0.03916026,-0.3822266,1.419264,-0.2146321,-0.1019852,1.45296,0.3374028,-0.07575474,1.336561,NA,NA,Closed,Unknown,
-0.2514648,0.8364258,0.5097656,0.6577148,1.534668,0.9384766,-1,-5,-6,-5,-3,-1,-1,-2,-3,-3,-3,8,-3,-4,-7,-7,-21.625,-21.625,-21.625,47.5625,47.5625,47.5625,6.607071,5.347246,4.634373,6.814471,4.801642,6.260466,-0.02216482,-0.02810171,1.270271,0.1578459,-0.1063357,1.140851,0.08064199,0.3976393,1.439996,-0.0451931,0.03388963,1.312303,0.1484999,-0.1021004,1.096429,0.05624719,-0.06706166,1.458157,0.04924263,-0.390544,1.448894,-0.1229183,0.137539,1.462984,-0.03880282,-0.3808763,1.418306,-0.2134579,-0.1051634,1.456502,0.3495589,-0.06340475,1.358702,NA,NA,Closed,Unknown,
-0.1865234,0.7875977,0.5371094,0.284668,2.026855,1.23877,-3,-6,-8,-6,4,-2,-2,-1,2,3,10,-10,-18,0,-4,-6,21.125,21.125,21.125,-168.75,-168.75,-168.75,6.603232,5.330456,4.664388,6.672202,4.579802,6.322794,-0.02495678,-0.02767853,1.26595,0.1542039,-0.1685939,1.187853,0.07855259,0.3985601,1.441112,-0.04087105,0.03130313,1.311197,0.109642,-0.1569924,1.206083,0.05570593,-0.06622075,1.458158,0.04935853,-0.390026,1.44848,-0.1231812,0.1374698,1.462647,-0.03841671,-0.3803546,1.417102,-0.2102739,-0.106358,1.458946,0.3007656,-0.06535202,1.389405,NA,NA,Closed,Unknown,
-0.2363281,0.8725586,0.5107422,0.05566406,0.8491211,0.5664063,-1,-3,-13,-7,3,0,1,-2,6,6,0,-3,-11,-6,-8,-1,-13.3125,-13.3125,-13.3125,-154,-154,-154,6.621229,5.284023,4.692029,6.272771,4.773253,6.473207,-0.01635085,-0.03384189,1.263097,0.1137904,-0.1416331,1.234077,0.07739669,0.3995968,1.440729,0.05147417,-0.05241611,1.288805,0.1028788,-0.1918951,1.274258,0.05539648,-0.06512903,1.45735,0.04965545,-0.3891171,1.447835,-0.1237927,0.1370785,1.461605,-0.03799502,-0.379584,1.415839,-0.2104363,-0.1066038,1.46204,0.3008778,-0.06830125,1.393722,NA,NA,NotTracked,Unknown,
-0.1958008,0.925293,0.4833984,-0.4760742,0.4594727,0.09814453,-3,-3,-2,-5,-3,-1,-2,-4,2,6,6,7,25,2,-2,0,-9.875,-9.875,-9.875,-35.0625,-35.0625,-35.0625,6.619443,5.234178,4.708322,6.144471,4.96242,6.504065,-0.01964486,-0.03200732,1.260852,0.1225348,-0.077942,1.245695,0.07727241,0.400622,1.439422,0.04507887,-0.03064958,1.291347,0.06753651,-0.1139948,1.272517,0.05562627,-0.06388941,1.455962,0.05024868,-0.3876195,1.447096,-0.1242285,0.137382,1.460643,-0.03722513,-0.3782383,1.414544,-0.2100471,-0.1058248,1.468886,0.3010546,-0.07016376,1.396561,NA,NA,NotTracked,NotTracked,
-0.2275391,0.7553711,0.5004883,0.4130859,0.8125,0.7167969,-2,0,4,4,-2,-1,-4,-3,6,5,-1,15,-3,-2,3,-1,25.875,25.875,25.875,145.1875,145.1875,145.1875,6.618995,5.240775,4.71195,6.32152,4.953634,6.477747,-0.03547892,-0.04659204,1.237226,0.01053367,-0.04986319,1.225007,0.07766352,0.4010596,1.438373,0.002016139,-0.07582775,1.282778,0.04175167,-0.06656899,1.265875,0.0558017,-0.06314319,1.454965,0.05067246,-0.3866087,1.44657,-0.1248302,0.1365324,1.458636,-0.03659363,-0.3772284,1.41351,-0.2078637,-0.09011707,1.451077,0.2993902,-0.07247791,1.396992,NA,NA,NotTracked,NotTracked,
-0.1621094,0.887207,0.4736328,-0.04492188,0.6689453,0.9101563,-3,-1,2,0,1,-2,-2,-2,-9,-1,7,0,8,-3,-3,-2,4.375,4.375,4.375,-77.5,-77.5,-77.5,6.660988,5.251528,4.715511,6.276172,4.910028,6.502982,-0.01539379,-0.02616737,1.264826,0.08778957,-0.05748381,1.26303,0.07841899,0.4014167,1.437316,0.04597123,-0.03615773,1.289159,0.03718882,-0.09494586,1.276445,0.05598963,-0.06268474,1.454273,0.05100863,-0.3860016,1.446052,-0.1248516,0.1363968,1.457692,-0.03606216,-0.3765003,1.412401,-0.2038801,-0.08789203,1.452238,0.2995552,-0.07441072,1.398068,NA,NA,NotTracked,NotTracked,
-0.1474609,0.9238281,0.4956055,-0.01318359,0.6328125,0.6665039,0,-4,-12,-15,-8,-1,0,3,1,-4,-2,-2,-9,-6,-2,-5,-5.6875,-5.6875,-5.6875,27.75,27.75,27.75,6.67025,5.248477,4.698562,6.259379,4.941974,6.506439,-0.03070376,-0.04707569,1.239249,0.08195014,-0.072794,1.226173,0.07907621,0.4016008,1.436428,0.004537357,-0.07409476,1.284121,0.09591426,-0.044408,1.256527,0.05631345,-0.06214298,1.453207,0.0517012,-0.3851922,1.444945,-0.1251931,0.1359387,1.455846,-0.03515049,-0.3756738,1.410273,-0.2027435,-0.08671213,1.452524,0.3000648,-0.07492377,1.399228,NA,NA,NotTracked,NotTracked,
-0.1772461,0.777832,0.5117188,0.0078125,0.7138672,0.7202148,1,-1,-3,-1,3,-2,-1,-2,-1,0,-4,-8,-2,-1,-3,-2,-4.0625,-4.0625,-4.0625,-18.75,-18.75,-18.75,6.639889,5.249997,4.682648,6.26414,4.955893,6.509098,-0.01955268,-0.05214546,1.244356,0.06435902,-0.06271438,1.227739,0.07982151,0.401636,1.435495,0.01362632,-0.09076805,1.280716,0.09587222,-0.03583716,1.259,0.05640762,-0.06174296,1.452114,0.05199866,-0.3846473,1.44366,-0.1252495,0.1358681,1.454867,-0.03475676,-0.375064,1.408309,-0.2134963,-0.09236171,1.435314,0.3006243,-0.07503928,1.400055,NA,NA,NotTracked,NotTracked,
-0.2006836,0.9042969,0.4819336,-0.004394531,0.6171875,0.7006836,-10,-3,0,0,-2,-2,-3,-4,4,6,5,5,-4,-1,0,0,-6.0625,-6.0625,-6.0625,-7.375,-7.375,-7.375,6.657076,5.255782,4.676566,6.245269,4.964933,6.503306,-0.02774638,-0.0493359,1.239316,0.06506786,-0.06197139,1.228147,0.0803351,0.4015188,1.434708,0.006654341,-0.08217694,1.282091,0.05880304,-0.06144403,1.253017,0.05656635,-0.06159006,1.451008,0.05233773,-0.384567,1.442151,-0.1254477,0.1353881,1.453771,-0.03441354,-0.3751521,1.406707,-0.2117461,-0.108212,1.456758,0.3010387,-0.07568863,1.401092,NA,NA,NotTracked,NotTracked,
-0.1591797,0.8237305,0.5175781,-0.007324219,0.6640625,0.6635742,-1,-6,-3,-4,-7,-2,-2,-1,-4,-2,2,-2,-4,-4,-4,0,-4.3125,-4.3125,-4.3125,10.6875,10.6875,10.6875,6.64796,5.256971,4.675652,6.262288,4.959736,6.463935,-0.02735681,-0.04861388,1.240041,0.06616986,-0.06451827,1.228379,0.08059179,0.4014472,1.434376,0.007293634,-0.0811746,1.282461,0.09260746,-0.03998232,1.260577,0.05672336,-0.061646,1.450312,0.05298047,-0.3848208,1.440484,-0.1257188,0.1348727,1.45287,-0.03378646,-0.3754978,1.404797,-0.2106791,-0.1087554,1.460211,0.3006608,-0.07847172,1.403513,NA,NA,NotTracked,NotTracked,
-0.1323242,0.8251953,0.4892578,0.02246094,0.7011719,0.6010742,1,-3,-3,-1,1,-1,-2,-1,-1,-4,-3,-3,2,-1,-1,-1,11.375,11.375,11.375,31.5,31.5,31.5,6.66344,5.249116,4.678787,6.30991,4.913323,6.424417,-0.02976522,-0.0527316,1.236959,0.0638732,-0.07242242,1.223527,0.08104247,0.4013515,1.434054,0.006265257,-0.08386062,1.279366,0.07885121,-0.06240623,1.26321,0.05691326,-0.06155111,1.449386,0.05352731,-0.3846228,1.438578,-0.1255479,0.1348733,1.45241,-0.03319206,-0.3753617,1.402629,-0.2105964,-0.1086133,1.460731,0.3005694,-0.07934964,1.404585,NA,NA,NotTracked,NotTracked,
-0.1108398,0.6733398,0.4848633,0.003417969,0.6230469,0.4194336,-1,0,0,0,-1,0,0,-1,-1,-3,-1,0,1,-1,0,-3,-8.5,-8.5,-8.5,50.25,50.25,50.25,6.647851,5.188416,4.707909,6.419921,4.779576,6.318202,-0.007579512,-0.03697919,1.270498,0.1225433,-0.106554,1.24369,0.08112202,0.401355,1.434054,0.02584432,-0.0136382,1.293077,0.08049456,-0.07748979,1.273874,0.0569424,-0.06155415,1.449008,0.05366886,-0.3848089,1.437224,-0.1254821,0.1348688,1.452254,-0.03316925,-0.3755739,1.401728,-0.220088,-0.1063107,1.438604,0.3003173,-0.07944138,1.404848,NA,NA,NotTracked,NotTracked,
0.01074219,0.6870117,0.4619141,0.2836914,0.5024414,0.862793,0,-2,-3,-1,-4,-1,0,0,1,-1,2,0,-1,0,-1,-1,20.625,20.625,20.625,52.1875,52.1875,52.1875,6.65597,5.000772,4.789826,6.515256,4.574228,6.217411,-0.005064796,-0.09561261,1.253117,0.1388842,-0.1610416,1.229643,0.0811307,0.4013764,1.434205,0.05804184,-0.1071224,1.266109,0.09718721,-0.1328593,1.268893,0.05681919,-0.0616518,1.448642,0.05319979,-0.3853785,1.436105,-0.1254349,0.1349817,1.452315,-0.03369584,-0.3760277,1.400918,-0.2222528,-0.1030116,1.439056,0.355607,-0.09726203,1.420275,NA,NA,NotTracked,NotTracked,
0.1401367,0.7988281,0.3525391,0.7104492,0.9448242,1.382813,1,-2,0,3,-1,-1,1,-3,-1,-3,-2,-3,0,0,-1,-5,18.0625,18.0625,18.0625,42.75,42.75,42.75,6.683303,4.790383,4.86611,6.620699,4.325588,6.101144,-0.03627744,-0.1630564,1.242167,0.1619079,-0.2319213,1.228523,0.08113343,0.4013476,1.434375,0.006870163,-0.1974978,1.264609,0.1633751,-0.2966253,1.227091,0.05635026,-0.06194788,1.448227,0.05158507,-0.3865463,1.434409,-0.1254306,0.1349721,1.452464,-0.03521024,-0.3768723,1.39955,-0.2000223,-0.09149437,1.463334,0.2938724,-0.09530826,1.427809,NA,NA,Closed,NotTracked,
0.2768555,0.8217773,0.4677734,1.183594,0.7402344,0.4511719,-1,-1,-2,-2,0,3,-2,-3,-3,-2,0,-1,1,0,1,0,-6.5,-6.5,-6.5,31.5,31.5,31.5,6.663019,4.535114,4.949274,6.742302,3.93978,5.933393,-0.06653276,-0.2140734,1.248217,0.1984777,-0.2883009,1.240031,0.08105931,0.4014018,1.43481,-0.01878298,-0.2690705,1.260545,0.153737,-0.3361091,1.267286,0.05563869,-0.06246907,1.447788,0.04936933,-0.3882454,1.432915,-0.1258032,0.134598,1.452469,-0.03733823,-0.3780257,1.398187,-0.2014035,-0.09713163,1.468208,0.2940361,-0.09751786,1.428902,NA,NA,Closed,Unknown,
0.515625,0.859375,0.3520508,0.9956055,0.8139648,0.2636719,0,-3,-3,-1,1,0,-1,-3,-2,-3,-4,-1,-3,-2,-1,-3,23.4375,23.4375,23.4375,-6.0625,-6.0625,-6.0625,6.644852,4.170637,5.061478,6.923962,3.668255,5.734571,-0.08756026,-0.2819496,1.266836,0.2332852,-0.3533434,1.2396,0.08092819,0.401504,1.435473,-0.04460942,-0.2851421,1.308748,0.1962034,-0.3381336,1.21739,0.05531289,-0.06297753,1.447221,0.04896837,-0.3895388,1.431367,-0.1260468,0.1344663,1.452536,-0.03805191,-0.3792462,1.396758,-0.1996289,-0.09935716,1.472028,0.2935528,-0.1117413,1.429855,NA,NA,Closed,Unknown,
0.7099609,0.6064453,0.4370117,1.35498,0.578125,-0.02978516,2,1,3,-1,-1,0,-2,-2,0,-1,-1,0,-1,-1,-2,0,11.125,11.125,11.125,-36.625,-36.625,-36.625,6.630764,3.90113,5.112713,7.084991,3.435999,5.458733,-0.1114242,-0.3353807,1.301627,0.2591894,-0.3923763,1.268497,0.08085622,0.4014134,1.435941,-0.05871005,-0.3705034,1.32042,0.2288079,-0.3852498,1.29275,0.05548126,-0.0633026,1.447058,0.05034071,-0.390298,1.430905,-0.1262342,0.1342968,1.452492,-0.03705018,-0.380479,1.396473,-0.1971676,-0.1065353,1.47651,0.2929941,-0.124987,1.429188,NA,NA,Unknown,Unknown,
0.9663086,0.9599609,0.3120117,0.7368164,0.5820313,-0.4125977,-2,-3,1,-1,-1,1,0,0,0,-1,0,-1,-1,-3,-2,0,20.375,20.375,20.375,41.5,41.5,41.5,6.639302,3.658162,5.190343,7.533837,3.255193,5.02119,-0.1462014,-0.3728279,1.304683,0.2769059,-0.4224839,1.299294,0.08087132,0.4013426,1.436245,-0.1164618,-0.3658607,1.32864,0.2362096,-0.3857419,1.3338,0.05552939,-0.0635757,1.447177,0.05102914,-0.3909737,1.431486,-0.1265932,0.1340386,1.45264,-0.03649677,-0.3815416,1.397131,-0.1941518,-0.1125684,1.477289,0.2915728,-0.133019,1.428958,NA,NA,NotTracked,Unknown,
0.8798828,0.4160156,0.3725586,1.009766,0.4077148,0.3642578,-1,-2,0,-1,0,-1,-2,-2,3,0,-1,-2,0,0,-2,-3,-24.3125,-24.3125,-24.3125,0.125,0.125,0.125,6.5213,3.426319,5.229654,7.70677,3.19166,4.855346,-0.1567543,-0.3961779,1.334474,0.2833412,-0.439609,1.327477,0.08102889,0.4013163,1.43644,-0.1195496,-0.3845467,1.351444,0.2333789,-0.4056848,1.339143,0.05558661,-0.06380627,1.447369,0.05164044,-0.3914388,1.432425,-0.1268942,0.1338875,1.452801,-0.03606272,-0.3820865,1.397955,-0.192226,-0.1131598,1.478391,0.2898009,-0.1337972,1.430342,NA,NA,NotTracked,NotTracked,
0.8647461,0.4018555,0.328125,0.7182617,0.5170898,-0.3051758,0,2,-3,-2,-3,-2,-1,-1,3,1,1,-1,1,-2,-4,0,23,23,23,-1.3125,-1.3125,-1.3125,6.50047,3.321137,5.267276,7.685951,3.146349,4.865921,-0.1593384,-0.4067041,1.362269,0.280348,-0.4410458,1.345463,0.0810997,0.4012787,1.436506,-0.1125164,-0.4044026,1.345325,0.2327434,-0.4248221,1.336684,0.05567642,-0.06397727,1.447619,0.05200712,-0.3916513,1.433517,-0.127209,0.1338052,1.453017,-0.03576296,-0.382373,1.399196,-0.1909835,-0.1134799,1.479549,0.2897443,-0.1352938,1.43369,NA,NA,NotTracked,NotTracked,
0.9545898,0.5004883,0.2617188,1.47998,0.6416016,0.2998047,-2,-5,-1,-2,-4,-2,0,0,2,3,1,-1,-2,0,4,1,29.625,29.625,29.625,-32.875,-32.875,-32.875,6.506235,3.152812,5.363771,7.5165,3.134663,4.987466,-0.1667923,-0.4220754,1.379169,0.2768812,-0.4391437,1.352399,0.08131243,0.401153,1.436723,-0.1176182,-0.4057858,1.353575,0.2304692,-0.4279503,1.336485,0.05567403,-0.06419336,1.448279,0.0517543,-0.3917633,1.435039,-0.1274492,0.1337641,1.45332,-0.03610532,-0.3823732,1.400584,-0.189026,-0.1138215,1.481251,0.2896939,-0.1362755,1.439059,NA,NA,NotTracked,NotTracked,
0.9628906,0.3383789,0.2895508,0.5517578,0.2133789,0.1547852,-1,0,0,-2,2,-1,-1,-2,0,-1,-1,-1,-1,-1,-2,0,-19.125,-19.125,-19.125,-23.0625,-23.0625,-23.0625,6.432476,3.072339,5.429337,7.482432,3.137089,4.975066,-0.1725045,-0.4255096,1.389753,0.2720506,-0.4365159,1.352219,0.08148442,0.4009286,1.436841,-0.1238693,-0.4111135,1.360326,0.2299984,-0.4241518,1.336166,0.05530631,-0.06438882,1.449075,0.05078404,-0.3918177,1.436685,-0.1277744,0.1337549,1.453783,-0.03725226,-0.3822969,1.402488,-0.1878355,-0.1141447,1.482057,0.2885383,-0.1362728,1.442826,NA,NA,NotTracked,NotTracked,
0.9775391,0.300293,0.2485352,0.8828125,0.4003906,-0.004394531,1,0,0,-2,-4,-2,0,-2,2,-2,0,-1,-2,-1,-2,1,8.8125,8.8125,8.8125,14.9375,14.9375,14.9375,6.369354,3.017734,5.49003,7.453577,3.135786,5.007505,-0.1746217,-0.42886,1.395161,0.2667169,-0.4345881,1.35363,0.08161799,0.4005481,1.437103,-0.1260009,-0.4351854,1.360684,0.2252189,-0.4272375,1.33304,0.05461829,-0.06468564,1.450547,0.04943626,-0.3918206,1.43863,-0.1282028,0.1337813,1.454799,-0.03872281,-0.3821575,1.404678,-0.1876402,-0.1142224,1.4833,0.2868752,-0.1363796,1.445561,NA,NA,NotTracked,NotTracked,
0.9472656,0.2758789,0.2319336,0.9174805,0.3984375,0.001953125,1,0,-1,-1,0,-1,-1,0,1,-2,1,0,1,-5,0,-1,-7.5,-7.5,-7.5,9.625,9.625,9.625,6.375329,3.027806,5.488807,7.481411,3.136552,5.004204,-0.1770184,-0.4300603,1.396308,0.2636779,-0.4327545,1.354845,0.08165197,0.4001729,1.437662,-0.1284835,-0.4072317,1.367766,0.2215197,-0.4173146,1.335638,0.05371723,-0.0649168,1.452247,0.04802917,-0.3916773,1.44075,-0.1290483,0.1340032,1.456336,-0.04012929,-0.3818209,1.406818,-0.1877179,-0.1143062,1.484216,0.2851985,-0.1371527,1.447475,NA,NA,NotTracked,NotTracked,
