ALX,ALY,ALZ,ARX,ARY,ARZ,EMG0L,EMG1L,EMG2L,EMG3L,EMG4L,EMG5L,EMG6L,EMG7L,EMG0R,EMG1R,EMG2R,EMG3R,EMG4R,EMG5R,EMG6R,EMG7R,GLX,GLY,GLZ,GRX,GRY,GRZ,ORL,OPL,OYL,ORR,OPR,OYR,LHNX,LHNY,LHNZ,RHNX,RHNY,RHNZ,HX,HY,HZ,LTX,LTY,LTZ,RTX,RTY,RTZ,SpineMidX,SpineMidY,SpineMidZ,SpineBaseX,SpineBaseY,SpineBaseZ,ShoulderLeftX,ShoulderLeftY,ShoulderLeftZ,ShoulderRightX,ShoulderRightY,ShoulderRightZ,ElbowLeftX,ElbowLeftY,ElbowLeftZ,ElbowRightX,ElbowRightY,ElbowRightZ,Myo_Pose_left,Myo_Pose_Right,Kinect_pose_left,Kinect_pose_right
0.9423828,0.2436523,0.1796875,0.8657227,0.4414063,0.03369141,-3,-2,-1,-4,-1,-1,-2,-1,-1,0,0,2,0,0,0,0,-3.625,-3.625,-3.625,-1.1875,-1.1875,-1.1875,6.55968,2.996636,3.916209,7.548107,3.234923,2.386408,-0.1463295,-0.423273,1.479808,0.3329288,-0.4191002,1.45477,0.08283947,0.377673,1.510815,-0.1088647,-0.4160689,1.444735,0.271651,-0.3999957,1.462134,0.06862638,-0.07115431,1.551523,0.06955494,-0.3886669,1.539228,-0.121272,0.1317755,1.550641,-0.01998655,-0.3803881,1.504383,-0.1701463,-0.1197677,1.570638,0.3033857,-0.1241467,1.559946,NA,NA,NotTracked,NotTracked,
0.9550781,0.2231445,0.1782227,0.8813477,0.4321289,0.02832031,-3,-2,-1,-2,0,0,0,1,-4,-2,2,-2,-3,-2,0,-3,1.625,1.625,1.625,-0.6875,-0.6875,-0.6875,6.53397,2.993586,3.941442,7.537382,3.230426,2.389534,-0.1436378,-0.4232652,1.479062,0.3362841,-0.4200996,1.454192,0.08759166,0.377481,1.508988,-0.1067366,-0.4252753,1.440442,0.2743653,-0.3945317,1.45956,0.07259962,-0.07122558,1.549955,0.07305829,-0.3889079,1.537533,-0.1171596,0.1318899,1.549635,-0.01658741,-0.3804952,1.502805,-0.1666743,-0.1195793,1.569394,0.3073765,-0.1248669,1.558895,NA,NA,NotTracked,NotTracked,
0.9580078,0.2407227,0.1733398,0.8735352,0.4277344,0.03271484,-1,-1,-1,-4,-2,-2,-2,0,-1,2,2,-2,-1,0,-3,-4,2.8125,2.8125,2.8125,3.1875,3.1875,3.1875,6.51803,2.991991,3.964003,7.521613,3.226049,2.407726,-0.1406217,-0.4224225,1.478587,0.3398992,-0.4199139,1.452782,0.09238315,0.3772893,1.507071,-0.1047834,-0.4237074,1.441358,0.2825324,-0.3923092,1.467477,0.07634441,-0.07126556,1.548607,0.07592623,-0.3887982,1.536135,-0.1124438,0.1325021,1.548786,-0.01375993,-0.3802236,1.501541,-0.1621854,-0.1189351,1.568613,0.311482,-0.1250838,1.55781,NA,NA,NotTracked,NotTracked,
0.9360352,0.2348633,0.1816406,0.8823242,0.4345703,0.02148438,0,1,-1,-1,-1,-2,1,-2,-3,-1,0,-1,0,-1,0,0,3.625,3.625,3.625,-0.3125,-0.3125,-0.3125,6.507413,2.990016,3.980349,7.509768,3.225808,2.42084,-0.1390241,-0.423422,1.478287,0.3422168,-0.4228562,1.449527,0.09709367,0.3771274,1.505132,-0.1025162,-0.4230921,1.440505,0.2836349,-0.4003513,1.466742,0.07944939,-0.07119205,1.547407,0.07839578,-0.3887378,1.534827,-0.1088838,0.1331461,1.548325,-0.01136692,-0.3800727,1.500556,-0.1587481,-0.1183258,1.567907,0.3151174,-0.1253941,1.556263,NA,NA,NotTracked,NotTracked,
0.9462891,0.2436523,0.1914063,0.890625,0.418457,0.02685547,0,0,1,-2,-1,-1,-2,-1,1,-2,2,-1,0,0,-1,0,1.4375,1.4375,1.4375,0.6875,0.6875,0.6875,6.482289,2.982662,4.01058,7.50218,3.223748,2.429568,-0.1374712,-0.4225353,1.477822,0.3442535,-0.4254712,1.444932,0.1006697,0.3767473,1.503315,-0.09907627,-0.4166989,1.442164,0.2845532,-0.4009949,1.464629,0.08276939,-0.07155573,1.545635,0.08055261,-0.3890087,1.533403,-0.1057949,0.1329515,1.547564,-0.009398786,-0.3801705,1.499645,-0.1558577,-0.1185254,1.56692,0.3179411,-0.1263879,1.55444,NA,NA,NotTracked,NotTracked,
0.9418945,0.2407227,0.1894531,0.8652344,0.4130859,0.02148438,-2,0,0,-2,-3,-2,2,1,-1,-3,-3,-2,0,-3,-3,-1,2.25,2.25,2.25,3.8125,3.8125,3.8125,6.47028,2.97691,4.027395,7.494554,3.221725,2.444112,-0.1366426,-0.4228055,1.478815,0.3462504,-0.4264891,1.441861,0.1039787,0.3770137,1.501739,-0.09841933,-0.4227511,1.441217,0.2857415,-0.3958176,1.465163,0.08509449,-0.07159089,1.544777,0.08226319,-0.3891298,1.53261,-0.1029115,0.1333911,1.546573,-0.007657919,-0.3801857,1.498985,-0.1535293,-0.1178869,1.566571,0.3202166,-0.1270776,1.552723,NA,NA,NotTracked,NotTracked,
0.949707,0.2338867,0.1894531,0.9775391,0.4760742,0.07519531,-1,-2,-3,-1,-2,2,2,0,-2,1,-4,-3,-2,0,-2,-2,4.625,4.625,4.625,12.8125,12.8125,12.8125,6.467064,2.974515,4.036637,7.488588,3.217735,2.462501,-0.1350284,-0.4268469,1.478581,0.3483011,-0.4262151,1.439528,0.1061819,0.3772241,1.500746,-0.09571336,-0.4209744,1.442067,0.2880768,-0.3798181,1.464524,0.08695238,-0.0715392,1.544179,0.08353347,-0.3890846,1.532316,-0.1006656,0.1339734,1.546372,-0.006310379,-0.3800102,1.498869,-0.1515821,-0.1172177,1.566614,0.322601,-0.1274082,1.550806,NA,NA,NotTracked,NotTracked,
0.9448242,0.2094727,0.1821289,1.155273,0.5097656,0.203125,-4,-1,1,-3,-1,-3,-2,-2,2,2,26,11,1,1,1,-1,5.25,5.25,5.25,48.9375,48.9375,48.9375,6.460045,2.973457,4.051824,7.366815,3.24381,2.636716,-0.1334751,-0.4250277,1.478215,0.345997,-0.4284888,1.433612,0.1078128,0.3779791,1.49982,-0.09359147,-0.4321512,1.439195,0.3109705,-0.4503039,1.454,0.08887541,-0.0712669,1.543237,0.0848454,-0.3890234,1.531826,-0.09855466,0.1346153,1.545716,-0.005056942,-0.3799152,1.498655,-0.1496113,-0.1164745,1.566506,0.3247054,-0.12768,1.547786,NA,NA,NotTracked,NotTracked,
0.9672852,0.2011719,0.1767578,1.120605,1.10498,0.6499023,-1,-2,-2,0,-1,0,-1,0,1,2,-20,-25,-4,2,1,-1,12.625,12.625,12.625,57.5,57.5,57.5,6.455533,2.972568,4.074019,7.001005,3.466599,3.274023,-0.1332968,-0.4226296,1.480357,0.3265941,-0.4101295,1.404705,0.1086452,0.3787552,1.499869,-0.09142229,-0.4183723,1.443932,0.2974627,-0.4436896,1.427667,0.08989531,-0.07084962,1.542993,0.08576919,-0.3887292,1.531741,-0.09769933,0.135029,1.545758,-0.004037949,-0.3796277,1.498741,-0.1480591,-0.116151,1.566926,0.3277341,-0.126804,1.546091,NA,NA,NotTracked,NotTracked,
0.9306641,0.2324219,0.1679688,0.9111328,0.9511719,0.8300781,-1,-3,-2,-2,-2,0,-2,-1,-3,-1,30,13,2,0,2,-2,14.75,14.75,14.75,13.5,13.5,13.5,6.472509,2.975731,4.092346,6.676607,3.881421,3.760392,-0.132795,-0.4233783,1.481965,0.2730286,-0.3490622,1.344839,0.1090847,0.3799959,1.50023,-0.09218545,-0.4189679,1.4437,0.2478727,-0.3483671,1.385353,0.09012708,-0.07032801,1.542656,0.08495603,-0.3881705,1.531314,-0.09695137,0.1353255,1.545958,-0.004867076,-0.3787782,1.498495,-0.1464294,-0.1158528,1.56824,0.3298392,-0.1254682,1.542725,NA,NA,NotTracked,NotTracked,
0.9316406,0.28125,0.1953125,0.3876953,0.7729492,0.7060547,0,-2,0,-2,-1,0,0,0,-46,-17,-39,-16,2,0,11,-7,6.0625,6.0625,6.0625,-15.375,-15.375,-15.375,6.500381,2.976992,4.080636,6.454095,4.441028,4.181927,-0.13269,-0.4237896,1.484961,0.1806674,-0.2233537,1.319043,0.1094708,0.3816293,1.501315,-0.1005168,-0.4635141,1.453944,0.1364572,-0.2026984,1.362624,0.08974953,-0.06975644,1.542481,0.08248516,-0.3874703,1.530686,-0.09631323,0.1358311,1.547173,-0.00694374,-0.3775298,1.498622,-0.145578,-0.1153603,1.569646,0.3258119,-0.09370898,1.518336,NA,NA,NotTracked,Unknown,
0.9379883,0.2822266,0.230957,-0.1152344,0.4536133,0.6376953,-3,-1,-3,-2,0,-2,0,-4,9,11,-11,0,-5,-17,0,12,1.875,1.875,1.875,-18.375,-18.375,-18.375,6.514301,2.985821,4.067444,6.330535,5.177898,4.732932,-0.1322806,-0.4238719,1.485451,0.1083186,-0.08581458,1.307175,0.1101608,0.383071,1.503488,-0.09127713,-0.4209746,1.447479,0.08971635,-0.02775636,1.339528,0.09016269,-0.06872696,1.542861,0.08287508,-0.385914,1.531717,-0.09515793,0.1363997,1.547858,-0.006035883,-0.3761679,1.500357,-0.1447441,-0.1145625,1.571316,0.3679137,-0.08731189,1.470142,NA,NA,NotTracked,Unknown,
0.9467773,0.3183594,0.2094727,-0.1533203,0.3740234,0.6708984,-3,1,0,-2,-1,-1,0,1,28,19,9,19,3,-5,6,-14,3.0625,3.0625,3.0625,24.25,24.25,24.25,6.539486,3.003861,4.049522,6.441014,5.569199,5.145455,-0.1317018,-0.4207002,1.486598,0.05730242,0.03528448,1.323453,0.1125225,0.3841327,1.506617,-0.0908431,-0.419207,1.448695,0.07468922,0.07096776,1.282903,0.09098332,-0.06795055,1.543527,0.0833318,-0.3850847,1.532413,-0.08732982,0.1336291,1.540587,-0.004984687,-0.3753506,1.502366,-0.1438129,-0.1140652,1.573105,0.309834,-0.05577798,1.404973,NA,NA,NotTracked,Closed,
0.949707,0.3022461,0.1992188,-0.2148438,0.4394531,0.5961914,-1,-1,-3,-3,-1,-2,-1,-2,18,14,3,4,-7,3,1,-17,-11.625,-11.625,-11.625,30.5,30.5,30.5,6.549683,3.025117,4.027165,6.63557,5.768928,5.51987,-0.1311309,-0.4197505,1.484596,-0.007963412,0.135465,1.349171,0.1191153,0.3837682,1.510563,-0.09146906,-0.4172065,1.44656,0.038845,0.1552396,1.30312,0.09220909,-0.06803306,1.544071,0.08479577,-0.3862703,1.532675,-0.06982483,0.1274229,1.518271,-0.004141311,-0.376421,1.502177,-0.1420114,-0.1101331,1.5729,0.279075,-0.02686961,1.365111,NA,NA,NotTracked,Unknown,
0.9282227,0.2617188,0.1865234,-0.1435547,0.4516602,0.4638672,0,-4,-1,0,0,0,0,0,11,-8,-7,2,1,29,14,11,-7.125,-7.125,-7.125,9.9375,9.9375,9.9375,6.538266,3.038596,4.020962,6.791245,5.838776,5.794525,-0.1299573,-0.4154523,1.483434,-0.01619883,0.1621766,1.359645,0.1262845,0.383599,1.514519,-0.0896466,-0.407486,1.449911,0.008704008,0.1996734,1.3206,0.0935072,-0.06810845,1.544374,0.08656444,-0.3875963,1.533154,-0.05943539,0.12373,1.498053,-0.003296321,-0.3777105,1.502553,-0.1415926,-0.1028534,1.572995,0.2462837,0.001337246,1.340028,NA,NA,NotTracked,Lasso,
0.9291992,0.2856445,0.1743164,-0.001953125,0.59375,0.3740234,-1,-1,-3,0,-2,-1,0,1,64,17,10,3,-26,-3,31,1,-0.3125,-0.3125,-0.3125,12.3125,12.3125,12.3125,6.562588,3.050107,3.995181,6.866764,5.819031,5.936995,-0.1299942,-0.4162312,1.483174,-0.01780761,0.166384,1.359398,0.1300291,0.3833363,1.515933,-0.09194433,-0.4115876,1.446241,-0.01739903,0.216532,1.33516,0.09342773,-0.06793194,1.544327,0.08700264,-0.3871893,1.533154,-0.06142502,0.1261886,1.49785,-0.003203702,-0.3773766,1.503571,-0.1428541,-0.09974667,1.574937,0.2226651,0.02343059,1.332524,NA,NA,NotTracked,Unknown,
0.9394531,0.2407227,0.1953125,0.1816406,0.8544922,0.2446289,1,-1,-4,-3,-2,0,-1,-3,-31,9,7,20,-22,-18,2,-12,-1.75,-1.75,-1.75,-3.625,-3.625,-3.625,6.568102,3.041978,3.982849,6.892713,5.718739,5.961631,-0.1288371,-0.4119385,1.484463,-0.02554172,0.1641176,1.360792,0.1322116,0.3834645,1.516773,-0.09183674,-0.415238,1.445798,-0.02927454,0.2232994,1.341465,0.09347256,-0.06771278,1.544203,0.08770733,-0.3866579,1.532993,-0.06225022,0.1276419,1.497514,-0.002774485,-0.3769715,1.504654,-0.1429215,-0.09803237,1.575843,0.2171292,0.02029464,1.329111,NA,NA,NotTracked,Unknown,
0.9389648,0.2480469,0.1894531,0.4047852,0.9511719,0.409668,-1,-1,-2,-1,1,-1,0,-1,-1,1,1,-3,-1,-13,1,-2,11.875,11.875,11.875,-13,-13,-13,6.551318,3.028738,4.010856,6.79743,5.591611,5.773642,-0.1287561,-0.4161842,1.483836,-0.0280512,0.1586647,1.363293,0.1328736,0.3835799,1.516732,-0.09105308,-0.4147736,1.44627,-0.0216536,0.2075018,1.329765,0.09344366,-0.06764907,1.544137,0.08811419,-0.3865241,1.532887,-0.06309535,0.1278124,1.49733,-0.002507291,-0.3770036,1.504957,-0.1430778,-0.09796978,1.575972,0.2166677,0.01679515,1.327866,NA,NA,NotTracked,Unknown,
0.9121094,0.2416992,0.1660156,0.1469727,0.9013672,0.7983398,0,-1,-1,-2,-3,-1,-2,-1,-37,-32,-41,-20,-5,-13,-8,-20,21.75,21.75,21.75,-14.625,-14.625,-14.625,6.553404,3.033172,4.038118,6.639718,5.556028,5.418706,-0.1297547,-0.4165741,1.483829,-0.0004910025,0.1370019,1.353881,0.1326915,0.3836034,1.516599,-0.08725291,-0.4103172,1.448347,0.03015214,0.1712859,1.296567,0.09387459,-0.06747211,1.543757,0.0885399,-0.3870142,1.532904,-0.06212843,0.1268276,1.496743,-0.002126533,-0.3777781,1.504676,-0.1423395,-0.09867921,1.575793,0.2489637,-0.007458842,1.339472,NA,NA,Unknown,Unknown,
0.9282227,0.2329102,0.1762695,-0.9091797,0.4331055,1.39502,0,0,-1,-1,0,-3,-2,0,61,37,17,8,-15,-5,0,12,40.625,40.625,40.625,42.8125,42.8125,42.8125,6.575577,3.048468,4.072051,6.490764,5.491673,4.842476,-0.1316669,-0.4162525,1.484039,0.1117189,0.08272169,1.297946,0.123974,0.3844227,1.513934,-0.08699431,-0.3993875,1.451636,0.12554,0.04999768,1.366455,0.0931755,-0.06755484,1.543076,0.08812501,-0.3876736,1.532474,-0.0659243,0.1268249,1.50928,-0.002424313,-0.378745,1.504633,-0.1413199,-0.1046735,1.578007,0.3064025,-0.04641232,1.365987,NA,NA,NotTracked,Unknown,
0.9780273,0.3320313,0.184082,-0.7045898,0.2861328,1.203613,-1,0,1,0,-2,-2,0,0,7,56,50,15,-6,-5,-1,-16,35.5625,35.5625,35.5625,132.6875,132.6875,132.6875,6.623341,3.068209,4.093809,6.454172,5.418284,4.106265,-0.1325069,-0.417745,1.485872,0.1380143,0.07082195,1.2838,0.1111837,0.3867952,1.508528,-0.08823191,-0.4175631,1.445331,0.1185138,0.03798603,1.347222,0.09082545,-0.06784105,1.541367,0.08554876,-0.3881247,1.531663,-0.08569896,0.1304432,1.537407,-0.004296684,-0.3796858,1.504742,-0.1438329,-0.1134357,1.583628,0.3292077,-0.05235033,1.37671,NA,NA,NotTracked,Closed,
0.859375,0.3891602,0.2167969,-0.7353516,0.3720703,0.8696289,-2,0,-1,0,0,-2,-1,0,-6,-25,-15,-6,-15,-16,-10,-5,-6.5,-6.5,-6.5,17.4375,17.4375,17.4375,6.661384,3.065912,4.071879,6.443232,5.426858,3.782211,-0.1343677,-0.4216845,1.489155,0.2262877,0.04690655,1.267259,0.1028448,0.3883224,1.50357,-0.08946562,-0.4104876,1.448135,0.1780669,0.02307365,1.308125,0.08831947,-0.06736159,1.539336,0.08352943,-0.3874694,1.530908,-0.09606547,0.1312854,1.54719,-0.005510688,-0.3796215,1.504802,-0.1448117,-0.1165501,1.586065,0.3431146,-0.05454738,1.401204,NA,NA,NotTracked,Closed,
0.8764648,0.4082031,0.2587891,-0.621582,0.5600586,0.7700195,-2,-2,-2,2,0,-2,2,0,-2,-19,-22,-3,-23,-20,-20,-11,1.3125,1.3125,1.3125,13.875,13.875,13.875,6.653667,3.038657,4.08069,6.376019,5.500283,3.593125,-0.1351086,-0.4227039,1.489759,0.2649531,0.04227465,1.269198,0.09877722,0.3887402,1.498672,-0.09011126,-0.4104193,1.449045,0.2025665,0.02553966,1.270907,0.08692997,-0.06709844,1.537211,0.08192995,-0.3869417,1.529996,-0.09883513,0.1317028,1.548228,-0.006742742,-0.379362,1.504283,-0.1452074,-0.1168958,1.58586,0.3471515,-0.06363483,1.435252,NA,NA,NotTracked,Unknown,
0.9140625,0.4086914,0.2353516,-0.3901367,0.5981445,0.7304688,2,-1,1,2,-2,-1,-4,0,-29,19,6,1,-15,0,5,-4,-27.8125,-27.8125,-27.8125,1.0625,1.0625,1.0625,6.645198,3.033186,4.064254,6.332808,5.528677,3.503823,-0.1354206,-0.4213335,1.484999,0.2741402,0.03783124,1.270663,0.09748872,0.3886562,1.495358,-0.09046528,-0.4112354,1.447178,0.2259032,0.01505884,1.269683,0.08623224,-0.06711574,1.535414,0.08159362,-0.3868074,1.529037,-0.1000589,0.131861,1.547403,-0.007191917,-0.3793363,1.503058,-0.1457918,-0.1172833,1.583234,0.3459644,-0.06637149,1.439855,NA,NA,NotTracked,Unknown,
0.9438477,0.2929688,0.1728516,-0.362793,0.769043,0.7275391,1,-1,1,-1,1,-1,-1,-4,-15,-3,-7,-12,-7,-6,-8,-10,-25.5,-25.5,-25.5,-25.5,-25.5,-25.5,6.62501,3.052772,4.015344,6.301206,5.518978,3.480877,-0.1341014,-0.423378,1.477458,0.2748888,0.03309868,1.271828,0.09744997,0.3885782,1.494094,-0.09364484,-0.4130175,1.441842,0.2279894,0.01268859,1.268598,0.08608952,-0.0671744,1.534458,0.08165286,-0.3867905,1.528324,-0.1007592,0.1322924,1.545776,-0.007145111,-0.379308,1.501372,-0.1468483,-0.11759,1.578021,0.3441764,-0.06895886,1.442326,NA,NA,NotTracked,Unknown,
0.9135742,0.2685547,0.1611328,-0.3574219,0.722168,0.6669922,-2,-1,-2,-1,-1,-1,-1,-1,-26,-25,-6,-2,3,-7,7,6,-23.8125,-23.8125,-23.8125,5.3125,5.3125,5.3125,6.624738,3.070237,3.970518,6.275054,5.505649,3.470233,-0.1318427,-0.4194694,1.467077,0.2742473,0.02933425,1.273264,0.09782919,0.388517,1.492492,-0.09495816,-0.4072343,1.43239,0.2016039,0.02054456,1.26897,0.08617263,-0.06716684,1.53323,0.08205529,-0.3866777,1.527052,-0.1010229,0.13278,1.542363,-0.006796456,-0.3791218,1.498651,-0.1475258,-0.1177676,1.5711,0.3412883,-0.07109565,1.44424,NA,NA,NotTracked,Unknown,
0.9257813,0.2626953,0.1391602,-0.3339844,0.5727539,0.71875,1,1,0,1,-2,1,0,0,-8,-11,3,8,-4,3,5,-8,-21.5,-21.5,-21.5,13.0625,13.0625,13.0625,6.630455,3.085832,3.925685,6.262823,5.483221,3.468155,-0.1301682,-0.4177848,1.459013,0.2727735,0.02637001,1.274851,0.09835497,0.3884556,1.491237,-0.09469319,-0.4169653,1.418324,0.2139185,0.008504142,1.278849,0.08617537,-0.06724138,1.532072,0.08250868,-0.3866645,1.525247,-0.1014756,0.1334006,1.539072,-0.006492705,-0.3790314,1.495865,-0.1478528,-0.1178531,1.564357,0.3394065,-0.07301374,1.446486,NA,NA,NotTracked,Unknown,
0.9589844,0.2167969,0.1362305,-0.3271484,0.6894531,0.7333984,-2,-2,-1,-2,0,-1,-2,-3,10,16,5,-14,-10,-8,-13,-19,-14.375,-14.375,-14.375,-12,-12,-12,6.622593,3.078223,3.887243,6.258949,5.473457,3.455288,-0.1279992,-0.4164158,1.455152,0.2730555,0.02355263,1.278216,0.09894803,0.3882511,1.490677,-0.0931505,-0.4159306,1.415329,0.2011897,0.01399064,1.271919,0.08609569,-0.06739773,1.53095,0.08294102,-0.386807,1.523545,-0.1018108,0.1335138,1.534993,-0.006234448,-0.3791091,1.493125,-0.1480943,-0.1180252,1.558907,0.3383733,-0.07498894,1.449025,NA,NA,NotTracked,Unknown,
0.9667969,0.2568359,0.1723633,-0.3681641,0.6225586,0.703125,0,-2,-2,-3,-1,-1,0,0,-13,-17,-11,-2,8,6,7,16,-15.25,-15.25,-15.25,10,10,10,6.620561,3.057993,3.857958,6.24285,5.47237,3.430448,-0.1277794,-0.4197964,1.45277,0.2738144,0.02048088,1.281227,0.09986395,0.3880043,1.490214,-0.0911731,-0.414656,1.417094,0.2011683,0.01399467,1.271717,0.08595001,-0.06760224,1.529979,0.08316633,-0.3871496,1.521826,-0.1020399,0.1331442,1.532039,-0.006134279,-0.3794274,1.49063,-0.1487216,-0.1185143,1.554888,0.3342151,-0.08669233,1.471204,NA,NA,NotTracked,Unknown,
0.9614258,0.2563477,0.1879883,-0.3037109,0.6538086,0.7587891,-1,-1,-2,-2,-2,0,0,0,2,-8,-3,-2,1,9,12,3,-2.0625,-2.0625,-2.0625,-9.6875,-9.6875,-9.6875,6.598271,3.043937,3.864186,6.23041,5.460656,3.41816,-0.1293685,-0.4204398,1.452741,0.2753211,0.01882394,1.282405,0.1003321,0.3879403,1.49024,-0.09079307,-0.4136333,1.419086,0.2060855,0.01115227,1.271895,0.08585858,-0.06776512,1.528953,0.08330563,-0.3874184,1.520013,-0.1021609,0.1332594,1.530424,-0.006031124,-0.3795836,1.487792,-0.1498048,-0.1184147,1.55214,0.335416,-0.08678935,1.466632,NA,NA,NotTracked,Unknown,
0.9516602,0.2958984,0.1694336,-0.3779297,0.7094727,0.7236328,3,-1,0,0,-1,-1,-2,-1,-1,-12,1,21,0,2,5,-10,2.5625,2.5625,2.5625,-4.3125,-4.3125,-4.3125,6.593529,3.034914,3.874267,6.224789,5.465032,3.404357,-0.1301482,-0.4211002,1.453087,0.275654,0.01768539,1.284707,0.1009855,0.3880554,1.490864,-0.08760325,-0.4088758,1.420704,0.2080844,0.002616998,1.287235,0.08564048,-0.06775573,1.528269,0.08303186,-0.3875638,1.518628,-0.1022368,0.1333402,1.529483,-0.00638462,-0.3795687,1.486116,-0.1502088,-0.1183739,1.550606,0.3354761,-0.08649268,1.465312,NA,NA,NotTracked,Unknown,
0.9243164,0.2875977,0.1860352,-0.3149414,0.5742188,0.7441406,-2,-1,-2,-1,-1,-1,-3,0,-6,6,-9,1,9,6,6,3,-6.4375,-6.4375,-6.4375,0.9375,0.9375,0.9375,6.58023,3.03093,3.88205,6.201448,5.466271,3.397797,-0.13177,-0.421013,1.452554,0.2751608,0.01804219,1.285009,0.1016154,0.3882083,1.491669,-0.0889278,-0.4105269,1.419306,0.2263201,-0.00295382,1.274494,0.08535761,-0.06756901,1.527612,0.0826366,-0.3874793,1.517454,-0.1024413,0.1335376,1.528671,-0.006857866,-0.3793074,1.484645,-0.150615,-0.1181268,1.549888,0.3348083,-0.08584096,1.463863,NA,NA,NotTracked,Unknown,
0.9208984,0.2905273,0.184082,-0.3037109,0.6674805,0.6948242,0,-2,-2,-2,-1,0,1,-3,1,1,4,-3,15,2,-4,1,1.875,1.875,1.875,3.0625,3.0625,3.0625,6.570798,3.031117,3.891679,6.210789,5.461687,3.394333,-0.1328086,-0.4209805,1.452842,0.2742443,0.01650804,1.284286,0.1020096,0.3883784,1.492051,-0.08747026,-0.4012044,1.420559,0.2173312,-0.0002834083,1.272919,0.08513132,-0.06742401,1.527051,0.08242524,-0.3874076,1.516111,-0.1026316,0.1337451,1.528395,-0.007098981,-0.3791129,1.483068,-0.1515748,-0.117838,1.549196,0.3318531,-0.089977,1.474086,NA,NA,NotTracked,Unknown,
0.9208984,0.2753906,0.1850586,-0.2963867,0.6962891,0.7944336,0,0,-2,-1,-3,-1,0,0,-16,-25,-27,-27,-15,-9,-18,-21,3.5625,3.5625,3.5625,-0.3125,-0.3125,-0.3125,6.560562,3.031209,3.905246,6.204469,5.432262,3.388103,-0.1339189,-0.4208144,1.452648,0.2733692,0.01261553,1.281897,0.1024353,0.3886037,1.492842,-0.08916499,-0.406938,1.420107,0.2343465,-0.01203722,1.265804,0.08491711,-0.06735626,1.526474,0.08226414,-0.3875546,1.514877,-0.1027695,0.1339522,1.528005,-0.007270521,-0.3791524,1.481786,-0.1526153,-0.1174671,1.548712,0.3317887,-0.0900315,1.467154,NA,NA,NotTracked,Unknown,
0.9492188,0.3027344,0.1826172,-0.2675781,0.6523438,0.7333984,-1,-2,-3,-2,0,-1,0,-1,0,8,9,9,7,4,9,-3,7.5625,7.5625,7.5625,-1.8125,-1.8125,-1.8125,6.569413,3.026974,3.910833,6.19167,5.415943,3.381116,-0.1346675,-0.4216704,1.453512,0.2729622,0.009392128,1.281818,0.1027854,0.3889996,1.493663,-0.09715465,-0.4484532,1.423774,0.2127392,-0.007866441,1.270638,0.08462945,-0.06724083,1.526097,0.08215927,-0.3875601,1.514649,-0.1029648,0.134209,1.527562,-0.007349323,-0.3790975,1.481563,-0.1530477,-0.1171238,1.548527,0.3309174,-0.0910718,1.466874,NA,NA,NotTracked,Unknown,
0.9194336,0.2885742,0.1821289,-0.2412109,0.6484375,0.7167969,0,-3,-1,-3,0,-2,-1,0,-2,0,-7,-4,0,-2,-6,-13,-5.125,-5.125,-5.125,8.25,8.25,8.25,6.581805,3.017028,3.896208,6.196919,5.407744,3.370495,-0.1349472,-0.4211666,1.454203,0.2734802,0.007976092,1.280298,0.1029378,0.3891482,1.493653,-0.08957019,-0.4019037,1.423561,0.220498,-0.01166,1.26913,0.08437669,-0.0669539,1.525631,0.08205888,-0.3874758,1.514529,-0.1033848,0.1346213,1.526451,-0.007481669,-0.3789771,1.481381,-0.1534428,-0.116651,1.547868,0.3289558,-0.09328967,1.473276,NA,NA,NotTracked,Unknown,
0.9121094,0.2695313,0.1982422,-0.2231445,0.6425781,0.7368164,-2,2,-1,0,0,0,-1,0,2,7,15,3,-5,2,-1,-5,-14.4375,-14.4375,-14.4375,20.0625,20.0625,20.0625,6.593484,3.008769,3.863236,6.218277,5.373607,3.347692,-0.1349474,-0.4202437,1.455293,0.2722729,0.003994116,1.279179,0.1031671,0.389268,1.493476,-0.09809185,-0.4512894,1.424895,0.2229336,-0.01855204,1.269722,0.08411121,-0.06674184,1.525156,0.08200956,-0.3873808,1.514408,-0.1039801,0.1348723,1.525091,-0.00755418,-0.3788352,1.481097,-0.1540955,-0.1163099,1.54702,0.3286749,-0.09437415,1.475054,NA,NA,NotTracked,Unknown,
0.9648438,0.2416992,0.1777344,-0.2529297,0.5957031,0.6704102,0,1,1,-1,-2,-1,0,1,0,0,-3,-6,-5,-3,1,1,8.5625,8.5625,8.5625,46.75,46.75,46.75,6.563242,3.004903,3.875475,6.266008,5.337499,3.322443,-0.1356733,-0.4214418,1.45443,0.2545807,-0.001095045,1.269182,0.1035452,0.3892972,1.493229,-0.09049921,-0.403311,1.42475,0.2037058,-0.02709445,1.27675,0.08379947,-0.06670709,1.52473,0.08181944,-0.3874165,1.514124,-0.104077,0.1352526,1.524228,-0.007764346,-0.3788232,1.480732,-0.1549552,-0.1158,1.546039,0.3288058,-0.08786563,1.451536,NA,NA,NotTracked,Unknown,
0.9287109,0.2871094,0.1655273,-0.2338867,0.6777344,0.6303711,-1,0,-2,0,-1,-2,0,0,1,-2,0,-1,0,0,-7,-1,18.1875,18.1875,18.1875,49.8125,49.8125,49.8125,6.576711,3.010119,3.891333,6.342735,5.280486,3.295573,-0.1358286,-0.4205769,1.454327,0.2716677,-0.03081241,1.27112,0.1040361,0.3893961,1.493189,-0.09205821,-0.3984157,1.427018,0.2042012,-0.04708226,1.283455,0.08362743,-0.06664567,1.524019,0.08163503,-0.3873305,1.513604,-0.1040163,0.1356761,1.523618,-0.007927816,-0.3786484,1.480117,-0.1551714,-0.1152586,1.545831,0.3325342,-0.09668109,1.448227,NA,NA,NotTracked,Unknown,
0.9125977,0.300293,0.1738281,-0.08837891,0.5595703,0.543457,-1,-1,-3,-4,-1,-2,1,0,0,-1,-3,1,7,7,4,0,-7.5625,-7.5625,-7.5625,80.5,80.5,80.5,6.595551,3.018094,3.875901,6.460804,5.140715,3.251503,-0.1355936,-0.4203198,1.452641,0.2776937,-0.0656004,1.263774,0.1044254,0.3895494,1.493172,-0.09327811,-0.4183156,1.417614,0.2362384,-0.1066172,1.259439,0.08318599,-0.06644141,1.523179,0.08118427,-0.387054,1.51274,-0.1040325,0.1356951,1.523124,-0.008375559,-0.3782756,1.479111,-0.1554543,-0.1151602,1.545486,0.3447226,-0.1060889,1.441458,NA,NA,NotTracked,Unknown,
0.9296875,0.246582,0.1835938,-0.1035156,0.5522461,0.3032227,1,0,-2,-3,-2,0,0,0,2,-2,0,-2,-6,-10,-11,17,2.0625,2.0625,2.0625,83.6875,83.6875,83.6875,6.580595,3.012773,3.875352,6.59649,4.938643,3.230703,-0.1356073,-0.4204699,1.454052,0.2890427,-0.1174953,1.258705,0.1049579,0.3897828,1.493269,-0.09218662,-0.4171952,1.418687,0.2578557,-0.166135,1.295875,0.08297066,-0.06623298,1.52277,0.08099268,-0.3867737,1.512059,-0.1040416,0.1356952,1.522936,-0.00858519,-0.3778647,1.478101,-0.1554293,-0.1151832,1.545211,0.3477942,-0.1069539,1.448978,NA,NA,NotTracked,Unknown,
0.9282227,0.2836914,0.1806641,0.1132813,0.5952148,0.2783203,-2,-1,-2,-3,0,-2,1,-1,-2,-2,-1,1,-3,0,1,1,7.375,7.375,7.375,65.6875,65.6875,65.6875,6.586868,3.011529,3.877364,6.729211,4.579166,3.193802,-0.1353748,-0.4208024,1.453091,0.3032906,-0.1884436,1.264731,0.1055711,0.3904271,1.493823,-0.09093098,-0.4051265,1.421533,0.2788565,-0.2336492,1.272611,0.08278556,-0.06598096,1.52218,0.08083437,-0.3866493,1.511463,-0.1040462,0.1358506,1.522485,-0.008764344,-0.3776432,1.477218,-0.1554282,-0.1150285,1.544787,0.3509932,-0.08378895,1.509097,NA,NA,NotTracked,Unknown,
0.9277344,0.2822266,0.1855469,0.5292969,0.6420898,0.2416992,-1,0,-1,0,-1,-2,-1,-3,4,5,1,0,-9,-8,-8,0,-1.25,-1.25,-1.25,85.4375,85.4375,85.4375,6.605174,3.011367,3.85804,6.936474,3.996872,3.04041,-0.1350789,-0.4213096,1.453206,0.3241196,-0.2751831,1.296821,0.1061038,0.3912146,1.494731,-0.09194192,-0.4117698,1.420291,0.2938385,-0.3004786,1.342091,0.08258379,-0.06572646,1.521909,0.08082674,-0.3866484,1.511237,-0.1040859,0.1357841,1.521748,-0.008757808,-0.3776018,1.476857,-0.1552931,-0.1151154,1.544163,0.331014,-0.0970787,1.530133,NA,NA,NotTracked,Unknown,
0.9599609,0.2773438,0.1748047,1.337402,0.8081055,0.1381836,0,2,-2,0,-2,0,0,0,-5,-5,0,-6,-5,-2,-5,-9,-4.875,-4.875,-4.875,5.0625,5.0625,5.0625,6.62003,3.009078,3.834296,7.235891,3.56618,2.727597,-0.1348643,-0.421709,1.45357,0.3432476,-0.3542688,1.343178,0.1071255,0.3926063,1.496999,-0.09424084,-0.4199573,1.41679,0.30845,-0.3564615,1.354733,0.08257151,-0.06550749,1.521665,0.08112641,-0.3867252,1.510989,-0.1038773,0.1355257,1.520562,-0.008435344,-0.3776725,1.476462,-0.1544446,-0.1155407,1.542805,0.3269876,-0.119567,1.524507,NA,NA,NotTracked,Closed,
0.9921875,0.2758789,0.1870117,1.260742,0.5263672,-0.2524414,-3,-2,-4,-1,0,-1,-2,-4,1,-3,-6,-2,1,2,-1,1,-8.5,-8.5,-8.5,15.5625,15.5625,15.5625,6.621566,3.003235,3.818741,7.83271,3.245565,2.005936,-0.1340598,-0.4209208,1.451459,0.3568981,-0.4080172,1.394772,0.1093138,0.393942,1.500895,-0.09831142,-0.4328797,1.409512,0.3855408,-0.4101154,1.382154,0.08283261,-0.06539001,1.52146,0.08209531,-0.3871921,1.510572,-0.1035833,0.1352027,1.519329,-0.007477989,-0.3780856,1.475874,-0.1538808,-0.1158732,1.541858,0.3192686,-0.1268669,1.513296,NA,NA,NotTracked,Unknown,
