ALX,ALY,ALZ,ARX,ARY,ARZ,EMG0L,EMG1L,EMG2L,EMG3L,EMG4L,EMG5L,EMG6L,EMG7L,EMG0R,EMG1R,EMG2R,EMG3R,EMG4R,EMG5R,EMG6R,EMG7R,GLX,GLY,GLZ,GRX,GRY,GRZ,ORL,OPL,OYL,ORR,OPR,OYR,LHNX,LHNY,LHNZ,RHNX,RHNY,RHNZ,HX,HY,HZ,LTX,LTY,LTZ,RTX,RTY,RTZ,SpineMidX,SpineMidY,SpineMidZ,SpineBaseX,SpineBaseY,SpineBaseZ,ShoulderLeftX,ShoulderLeftY,ShoulderLeftZ,ShoulderRightX,ShoulderRightY,ShoulderRightZ,ElbowLeftX,ElbowLeftY,ElbowLeftZ,ElbowRightX,ElbowRightY,ElbowRightZ,Myo_Pose_left,Myo_Pose_Right,Kinect_pose_left,Kinect_pose_right
0.9375,0.2607422,0.1879883,0.9165039,0.3227539,-0.01611328,-2,-1,0,0,-1,-1,-2,0,0,1,1,3,1,1,-2,-2,-0.4375,-0.4375,-0.4375,0.125,0.125,0.125,6.460663,3.020933,2.121415,7.738652,3.034331,0.3174313,-0.1313381,-0.4226066,1.452711,0.3101523,-0.4377168,1.465815,0.1209604,0.399568,1.520884,-0.09017359,-0.4171832,1.417981,0.2635224,-0.4240671,1.432898,0.09201292,-0.06247815,1.535823,0.08564847,-0.3881803,1.523308,-0.09146141,0.1385209,1.534895,-0.003822968,-0.3771636,1.488674,-0.147817,-0.1121284,1.551789,0.3175125,-0.1372569,1.539934,NA,NA,NotTracked,NotTracked,
0.9394531,0.2568359,0.2006836,0.9238281,0.3085938,-0.01708984,0,-2,-1,-3,-4,-1,0,0,-2,-2,-1,-1,-6,-2,-1,-4,0.4375,0.4375,0.4375,-0.75,-0.75,-0.75,6.460153,3.021214,2.121761,7.733383,3.034626,0.3196339,-0.1315687,-0.4220688,1.453516,0.3100275,-0.4381693,1.465712,0.1216072,0.3992955,1.520408,-0.08963637,-0.4182141,1.418663,0.2633676,-0.4201907,1.432608,0.09224763,-0.06261437,1.535328,0.085904,-0.3881819,1.522577,-0.09107653,0.138372,1.534312,-0.003581342,-0.3771354,1.487904,-0.1478404,-0.1122302,1.550899,0.3175793,-0.1372859,1.539701,NA,NA,NotTracked,NotTracked,
0.9438477,0.2470703,0.2001953,0.9228516,0.3085938,-0.02490234,1,-2,-3,0,-1,-1,-2,-1,1,-2,-1,-2,-3,-2,-2,-1,0.75,0.75,0.75,2.5625,2.5625,2.5625,6.460084,3.020848,2.121819,7.732186,3.032316,0.3237904,-0.1315755,-0.4219773,1.453608,0.310424,-0.4377807,1.465041,0.1223383,0.3988044,1.519498,-0.09063387,-0.4182031,1.417162,0.2638988,-0.4153669,1.432092,0.09243641,-0.06281392,1.534787,0.08605935,-0.3882459,1.521797,-0.09065425,0.1383804,1.533485,-0.003443378,-0.3771362,1.486996,-0.1476587,-0.1121295,1.550354,0.3177529,-0.1373702,1.539487,NA,NA,NotTracked,NotTracked,
0.940918,0.2524414,0.190918,0.9169922,0.3120117,-0.01416016,-2,0,-2,0,2,-2,1,-1,-4,2,-2,-1,0,0,-1,-2,2.1875,2.1875,2.1875,2.25,2.25,2.25,6.462916,3.018914,2.124667,7.737104,3.029608,0.321252,-0.1318047,-0.421896,1.453344,0.3102531,-0.4377501,1.463571,0.1230835,0.3981514,1.517919,-0.08925796,-0.4153963,1.419147,0.2634059,-0.4184476,1.430951,0.0926957,-0.0630985,1.534253,0.08632018,-0.3883674,1.521263,-0.09037229,0.1383326,1.533135,-0.003200109,-0.3772413,1.486414,-0.1474673,-0.1122095,1.549656,0.3179007,-0.137716,1.539072,NA,NA,NotTracked,NotTracked,
0.9296875,0.2685547,0.203125,0.9277344,0.3198242,-0.02001953,-1,-2,-2,-1,-2,-2,0,-2,0,-3,0,0,-2,1,1,-3,2.8125,2.8125,2.8125,2.875,2.875,2.875,6.465854,3.016133,2.126747,7.741465,3.027025,0.3208424,-0.1310477,-0.4255593,1.452335,0.3105817,-0.4388788,1.463053,0.1236019,0.3976682,1.516726,-0.08931538,-0.4135182,1.420157,0.2637013,-0.4182228,1.430914,0.09288595,-0.06337245,1.533589,0.08644042,-0.3885405,1.520555,-0.09003379,0.1382813,1.532479,-0.003123242,-0.3773753,1.485756,-0.1472694,-0.1122058,1.549174,0.3179988,-0.1380792,1.538547,NA,NA,NotTracked,NotTracked,
0.9379883,0.2763672,0.2041016,0.9145508,0.3095703,-0.03466797,-1,-2,0,-1,-1,0,-4,-1,0,-2,-2,-3,-1,1,1,2,1.375,1.375,1.375,4.875,4.875,4.875,6.468124,3.012844,2.126877,7.748713,3.024266,0.3216214,-0.131131,-0.4259943,1.452738,0.3107469,-0.4384494,1.462749,0.1241395,0.3975598,1.515562,-0.08951051,-0.4185986,1.417737,0.2633564,-0.4335635,1.426555,0.09315386,-0.06348404,1.533017,0.08659889,-0.3885736,1.520229,-0.08967394,0.138355,1.532021,-0.002962736,-0.3774163,1.485404,-0.1472236,-0.1120325,1.548918,0.3181695,-0.1381441,1.53783,NA,NA,NotTracked,NotTracked,
0.9355469,0.2680664,0.1928711,0.9301758,0.3032227,-0.02392578,0,-2,-1,0,-1,-2,-1,-1,0,-1,0,-2,-2,-1,-2,-2,1.75,1.75,1.75,2.25,2.25,2.25,6.472033,3.012084,2.12443,7.753747,3.022398,0.3206652,-0.1312041,-0.425715,1.453138,0.31047,-0.4381278,1.461443,0.1245119,0.397587,1.514473,-0.08944665,-0.4167986,1.419209,0.2644043,-0.419725,1.428014,0.0933556,-0.06352751,1.532435,0.08677955,-0.3886232,1.5198,-0.08936955,0.1383442,1.531465,-0.002802638,-0.3774459,1.485051,-0.1469874,-0.1120223,1.54842,0.3184621,-0.1382189,1.536791,NA,NA,NotTracked,NotTracked,
0.9418945,0.2558594,0.1987305,0.9111328,0.3105469,-0.02832031,-2,-2,-2,-1,0,-2,-4,-2,-1,-1,-3,1,0,0,0,-5,0.5,0.5,0.5,2.4375,2.4375,2.4375,6.472331,3.011912,2.124465,7.759931,3.019223,0.3169575,-0.1305799,-0.4223386,1.453589,0.3108777,-0.4382218,1.461864,0.1247852,0.3976677,1.513692,-0.08981238,-0.4140977,1.419463,0.26447,-0.4177859,1.427444,0.09364904,-0.0635011,1.531688,0.08691631,-0.3885383,1.519381,-0.08907926,0.1385504,1.531021,-0.002693792,-0.3773726,1.484748,-0.1466083,-0.1118346,1.54803,0.3187321,-0.1382701,1.536061,NA,NA,NotTracked,NotTracked,
0.9541016,0.2529297,0.190918,0.9594727,0.4760742,0.01757813,-4,-2,-2,0,-2,-2,-1,-1,2,4,20,5,-1,-3,1,15,2.625,2.625,2.625,-5.875,-5.875,-5.875,6.472729,3.011572,2.127463,7.719841,3.0272,0.3540094,-0.1306617,-0.4218848,1.453212,0.3114738,-0.4374866,1.460741,0.1249268,0.3977452,1.512879,-0.09289464,-0.4310677,1.425121,0.2640969,-0.4375736,1.425235,0.09393493,-0.06347454,1.530954,0.08707868,-0.3884558,1.518941,-0.08889427,0.1386516,1.530497,-0.002554741,-0.3773231,1.484396,-0.1460794,-0.1118235,1.547475,0.3188538,-0.1368991,1.534314,NA,NA,NotTracked,NotTracked,
0.9545898,0.2392578,0.1987305,1.109375,0.5849609,0.09082031,0,-1,-2,0,2,0,1,0,5,7,-14,-11,-6,-2,-1,-7,0.8125,0.8125,0.8125,76.8125,76.8125,76.8125,6.460113,3.012801,2.144143,7.531427,3.100868,0.6149346,-0.1302408,-0.4219718,1.452344,0.3129951,-0.4404097,1.450862,0.1248587,0.3980965,1.51212,-0.09061114,-0.4192789,1.413662,0.2637516,-0.4310998,1.425793,0.09425097,-0.06337412,1.529947,0.08731126,-0.388353,1.518352,-0.08871178,0.1387207,1.530095,-0.002342063,-0.3772252,1.48395,-0.145636,-0.1118247,1.547036,0.3203252,-0.1359254,1.531539,NA,NA,NotTracked,NotTracked,
0.9287109,0.2114258,0.1865234,1.223145,1.336426,0.5883789,-2,-1,-2,-2,0,-1,-2,-1,10,6,-17,4,12,0,-1,0,9.125,9.125,9.125,58.875,58.875,58.875,6.453129,3.011986,2.160411,7.144378,3.426319,1.323686,-0.1301001,-0.4212369,1.453725,0.3054444,-0.4436003,1.408412,0.1245299,0.3983896,1.511745,-0.115507,-0.4669724,1.453143,0.2756577,-0.474656,1.379982,0.09458607,-0.06341884,1.529297,0.08756954,-0.388457,1.518032,-0.08860467,0.1387774,1.529869,-0.002096838,-0.3772906,1.483706,-0.1449749,-0.1119073,1.546753,0.3274055,-0.1349674,1.523775,NA,NA,NotTracked,NotTracked,
0.9145508,0.2592773,0.1826172,1.109375,1.054688,0.9248047,-1,-3,0,0,-2,0,0,-1,-5,-1,24,21,12,0,-5,3,14,14,14,3.25,3.25,3.25,6.472888,3.011899,2.163777,6.814137,3.911641,1.785192,-0.1295636,-0.4244458,1.454221,0.2365521,-0.3541611,1.324707,0.1240427,0.3988144,1.511506,-0.08721094,-0.4185,1.417648,0.1963203,-0.3512205,1.327643,0.09323422,-0.06304048,1.528127,0.08210921,-0.3875075,1.515999,-0.08861239,0.1389215,1.529997,-0.007651104,-0.3751058,1.482483,-0.1447723,-0.1118041,1.54694,0.3435143,-0.1102823,1.49774,NA,NA,NotTracked,Unknown,
0.9570313,0.3046875,0.2109375,0.1518555,0.7475586,0.8334961,-3,-3,-2,-2,1,1,2,1,0,-3,-38,-28,-5,0,-5,-2,-0.875,-0.875,-0.875,-25.125,-25.125,-25.125,6.503,3.018833,2.141571,6.568982,4.534702,2.212681,-0.1288338,-0.4248175,1.455525,0.1424936,-0.1805719,1.296757,0.1233503,0.3991945,1.511791,-0.08720462,-0.4193347,1.417679,0.1033832,-0.1432479,1.336851,0.09279522,-0.06288999,1.528006,0.08061969,-0.3870534,1.516339,-0.08869054,0.1389879,1.530327,-0.008559591,-0.3743422,1.483841,-0.1442511,-0.1118327,1.547547,0.3519589,-0.0762976,1.461391,NA,NA,NotTracked,Unknown,
0.9350586,0.3369141,0.2138672,-0.1572266,0.3383789,0.7207031,-1,-2,-1,0,1,0,-1,-1,21,10,16,3,2,0,2,10,-3.75,-3.75,-3.75,15.375,15.375,15.375,6.530907,3.038392,2.106833,6.512083,5.306274,2.751825,-0.1281588,-0.4223177,1.45686,0.07321613,-0.02780045,1.289674,0.1222936,0.3997889,1.512958,-0.08674046,-0.4067685,1.424111,0.07991152,0.02823234,1.3365,0.09277783,-0.06225561,1.528016,0.08068631,-0.3852512,1.518115,-0.08637252,0.1393223,1.528967,-0.007753872,-0.3728175,1.487037,-0.1430116,-0.110889,1.548629,0.3344646,-0.06414486,1.380678,NA,NA,NotTracked,Unknown,
0.9301758,0.2924805,0.1992188,-0.2172852,0.3974609,0.6098633,-2,-2,-1,-1,-1,-1,-1,-2,-55,-21,1,-1,1,-15,-4,8,-3.5625,-3.5625,-3.5625,56.6875,56.6875,56.6875,6.530768,3.053038,2.097974,6.713668,5.689107,3.149606,-0.1262383,-0.4221763,1.454677,0.03645995,0.09365464,1.288762,0.1220386,0.3999452,1.514064,-0.08708526,-0.4186833,1.417014,0.02555412,0.05687135,1.349333,0.09406091,-0.06258632,1.528808,0.08225753,-0.3861539,1.518795,-0.083414,0.1345698,1.519256,-0.006215712,-0.3743756,1.488066,-0.1424375,-0.1131997,1.549118,0.2851378,-0.02633594,1.324822,NA,NA,NotTracked,Lasso,
0.9291992,0.2558594,0.1831055,0.08496094,0.4013672,0.4458008,2,0,-1,0,-2,-1,-1,0,-21,6,2,-4,1,-11,-9,-15,-8,-8,-8,28.8125,28.8125,28.8125,6.524684,3.066372,2.096686,6.977277,5.911511,3.570824,-0.1255123,-0.4149992,1.45597,-0.03750752,0.1901737,1.3197,0.1233535,0.4000637,1.515823,-0.08754213,-0.4112799,1.417752,-0.05749031,0.1430702,1.3405,0.09520602,-0.06240957,1.528358,0.08422936,-0.3867575,1.51926,-0.08024815,0.1293859,1.510114,-0.005325167,-0.3755928,1.488533,-0.1445659,-0.1133535,1.555148,0.2381841,0.01395477,1.293499,NA,NA,NotTracked,Unknown,
0.9521484,0.1831055,0.1791992,0.06152344,0.6508789,0.2612305,0,0,0,-1,-7,-2,-3,-2,-5,8,-4,5,-20,2,-2,-11,17.6875,17.6875,17.6875,11.8125,11.8125,11.8125,6.515437,3.0679,2.112273,7.101964,5.930367,3.752462,-0.1248245,-0.4122341,1.459563,-0.05385497,0.2287499,1.337344,0.1242986,0.400564,1.517878,-0.08621868,-0.4005373,1.422986,-0.06516866,0.1793856,1.354364,0.09535471,-0.06114884,1.527587,0.08457615,-0.3858961,1.519963,-0.08131114,0.1322492,1.513299,-0.005793137,-0.3749376,1.494504,-0.1434788,-0.1022876,1.558003,0.1897941,0.04330335,1.270503,NA,NA,NotTracked,Unknown,
0.9335938,0.2299805,0.1962891,-0.2060547,0.7841797,0.1640625,-1,-2,2,1,1,-2,-2,0,4,-2,-13,-4,-5,-6,-9,-11,35.375,35.375,35.375,8.875,8.875,8.875,6.531772,3.06105,2.155528,7.15893,5.910044,3.819802,-0.1315462,-0.3848643,1.477411,-0.04833416,0.2302572,1.334162,0.1224432,0.3999723,1.519613,-0.09345761,-0.3849427,1.437434,-0.06825706,0.191168,1.348143,0.09507076,-0.0597484,1.526754,0.08451094,-0.3849053,1.520258,-0.08312532,0.1362779,1.518179,-0.006531833,-0.3745134,1.499274,-0.1428145,-0.1017302,1.56059,0.188337,0.05701636,1.275566,NA,NA,NotTracked,Open,
0.9399414,0.3212891,0.2109375,-0.5737305,0.7919922,0.2060547,-2,-2,0,-3,-3,0,-1,2,18,1,13,11,0,10,8,14,34.8125,34.8125,34.8125,5.5625,5.5625,5.5625,6.561923,3.062784,2.186805,7.153728,5.885975,3.814466,-0.1349748,-0.3836128,1.484572,-0.05783612,0.2348896,1.337929,0.1199294,0.3997395,1.520986,-0.09585904,-0.3866833,1.442632,-0.07641762,0.1908433,1.353357,0.09464043,-0.05865145,1.526004,0.08412914,-0.3844352,1.520389,-0.08324257,0.1367684,1.51748,-0.007583418,-0.3745761,1.502521,-0.1420116,-0.1022498,1.564946,0.1651858,0.06313381,1.261081,NA,NA,NotTracked,Unknown,
0.9204102,0.3867188,0.2636719,-0.5859375,0.7919922,0.2568359,1,0,0,0,-1,-2,-1,-1,-20,-9,1,5,9,4,2,-3,14.625,14.625,14.625,-1.625,-1.625,-1.625,6.582709,3.074387,2.202726,7.125587,5.878559,3.785166,-0.1335084,-0.4036846,1.480193,-0.05513508,0.2286068,1.332878,0.1184843,0.4001803,1.521849,-0.09402949,-0.4076023,1.438131,-0.06999532,0.1847317,1.3524,0.09406877,-0.05803566,1.525464,0.08349185,-0.3841563,1.520373,-0.0864941,0.1394138,1.522406,-0.00832229,-0.3750257,1.503281,-0.1419381,-0.09906331,1.573329,0.1684407,0.06429643,1.263052,NA,NA,NotTracked,Lasso,
0.8896484,0.4414063,0.2729492,-0.4604492,0.9492188,0.1958008,-1,-1,0,-1,-2,-1,-2,-1,1,-5,-2,-4,-6,1,1,2,15.875,15.875,15.875,8.75,8.75,8.75,6.600685,3.096817,2.214948,7.130286,5.863577,3.76129,-0.1390738,-0.3810273,1.489947,-0.05349353,0.2263765,1.32968,0.1181663,0.4004522,1.522066,-0.0967517,-0.3725273,1.454702,-0.07159861,0.183236,1.352875,0.09348816,-0.05736801,1.524797,0.08299309,-0.3837694,1.520177,-0.08646347,0.1394694,1.521614,-0.008801873,-0.3751162,1.503715,-0.1425754,-0.101389,1.576742,0.1647042,0.0634085,1.260126,NA,NA,NotTracked,Open,
0.8608398,0.402832,0.2519531,0.07568359,1.05957,0.1577148,0,1,-2,-1,0,0,-2,-2,-5,8,1,-1,-6,1,2,-9,-4.1875,-4.1875,-4.1875,50.125,50.125,50.125,6.605126,3.120947,2.217096,7.17144,5.801694,3.658509,-0.1384718,-0.3803525,1.48787,-0.06527576,0.2340323,1.340658,0.1179226,0.4007514,1.522388,-0.09695055,-0.3835857,1.448557,-0.1053087,0.177697,1.355324,0.09304381,-0.05698944,1.524198,0.08257462,-0.3835754,1.519877,-0.08583825,0.138913,1.519047,-0.009269646,-0.3753114,1.504084,-0.1432133,-0.1015623,1.577569,0.1769856,0.06533087,1.265172,NA,NA,NotTracked,Unknown,
0.902832,0.2675781,0.2143555,-0.0390625,0.9135742,0.3481445,-1,-2,-2,-2,-1,0,0,-1,-15,-23,-27,-2,-16,-12,-12,-15,-16.1875,-16.1875,-16.1875,38.5625,38.5625,38.5625,6.560318,3.125984,2.228082,7.142458,5.757278,3.464767,-0.136461,-0.4025064,1.474415,-0.04345908,0.2317604,1.326774,0.1172818,0.4019664,1.523057,-0.09738308,-0.3970492,1.436569,-0.06707666,0.177726,1.3396,0.09218825,-0.05645804,1.523169,0.08196288,-0.3836147,1.51957,-0.08531702,0.1389461,1.516658,-0.009924798,-0.3755516,1.504123,-0.1435131,-0.1008054,1.576747,0.1964761,0.06258305,1.261944,NA,NA,NotTracked,Unknown,
0.9169922,0.2255859,0.1855469,-0.2763672,0.809082,0.3623047,0,-1,0,-1,-1,-1,-2,-2,-8,-5,-8,-3,-7,2,2,-1,-6.25,-6.25,-6.25,89.8125,89.8125,89.8125,6.551242,3.123226,2.219124,7.111801,5.781754,3.130321,-0.1358044,-0.4160057,1.467387,0.03078057,0.203306,1.281759,0.1149268,0.4064308,1.524628,-0.09683972,-0.418386,1.424,0.01173729,0.1647215,1.299433,0.09117532,-0.05704775,1.52094,0.08124046,-0.3848322,1.518685,-0.08615682,0.1347232,1.518452,-0.01067497,-0.3773843,1.501887,-0.1452681,-0.1060674,1.574542,0.2540459,0.04032623,1.266144,NA,NA,NotTracked,Unknown,
0.9360352,0.2905273,0.1782227,-0.5986328,0.5200195,0.8793945,-3,-2,-1,0,-3,-1,-1,1,5,-9,-10,-15,-15,-4,0,5,11.9375,11.9375,11.9375,75.3125,75.3125,75.3125,6.575731,3.116056,2.199746,6.933772,5.836484,2.439354,-0.1366814,-0.4162697,1.466543,0.1230344,0.1813616,1.238574,0.1034788,0.4091278,1.526173,-0.09650613,-0.4086379,1.429684,0.08930834,0.1527648,1.264185,0.08758394,-0.06010936,1.517766,0.07650405,-0.3903827,1.516567,-0.1008539,0.1333266,1.54111,-0.01425044,-0.3818842,1.499367,-0.1481493,-0.1163769,1.573232,0.3097073,0.02218581,1.283232,NA,NA,NotTracked,Unknown,
0.953125,0.3793945,0.1948242,-0.7919922,0.4667969,0.8969727,-1,-1,0,1,-1,-1,0,-2,3,5,5,1,17,10,-1,0,2.9375,2.9375,2.9375,159.5625,159.5625,159.5625,6.618604,3.114007,2.164263,6.865472,5.890075,1.899749,-0.1377952,-0.4159495,1.467127,0.2071242,0.1653146,1.214895,0.09423906,0.4075504,1.52508,-0.09661884,-0.4100712,1.429226,0.1418329,0.1508959,1.2494,0.07826205,-0.06092483,1.519676,0.0715873,-0.3922358,1.515127,-0.1031789,0.1329303,1.54238,-0.01860739,-0.3833326,1.497778,-0.1493958,-0.1173357,1.572731,0.3449383,0.0146608,1.316937,NA,NA,NotTracked,Unknown,
0.8823242,0.3876953,0.2182617,-0.9628906,0.3364258,0.7783203,2,-1,-2,-6,-4,-1,1,0,3,13,17,3,-4,-4,-9,-8,5.9375,5.9375,5.9375,91.4375,91.4375,91.4375,6.654601,3.113624,2.130874,6.813575,5.905413,1.467531,-0.1383762,-0.4196877,1.464965,0.2727776,0.1446458,1.212395,0.09095827,0.4076257,1.523335,-0.09732481,-0.4198839,1.423146,0.2017036,0.1386457,1.230781,0.07633838,-0.06145889,1.520833,0.07020918,-0.392422,1.514967,-0.105825,0.131771,1.541737,-0.02008417,-0.3834334,1.495197,-0.1513586,-0.1186839,1.571705,0.3692347,0.006296404,1.354545,NA,NA,NotTracked,Closed,
0.8710938,0.4423828,0.246582,-0.9121094,0.4438477,0.6606445,-2,-2,1,0,-1,-2,-3,-2,-5,-3,-2,7,4,0,2,-7,-24.5,-24.5,-24.5,29.75,29.75,29.75,6.685703,3.106032,2.078173,6.710326,5.929339,1.156565,-0.1387657,-0.41989,1.46437,0.3124401,0.1288727,1.221754,0.08891319,0.4076568,1.520676,-0.09730122,-0.4098576,1.428209,0.2398352,0.1241317,1.240267,0.07596781,-0.06145138,1.520833,0.06991374,-0.3920976,1.514751,-0.1074673,0.1312988,1.538384,-0.02039345,-0.3826889,1.492474,-0.1533071,-0.119021,1.568754,0.426598,-0.05843862,1.418091,NA,NA,NotTracked,Unknown,
0.902832,0.3979492,0.2275391,-0.7680664,0.5888672,0.5332031,-2,-1,-1,-1,-1,-2,-5,-3,1,2,2,-4,14,4,-4,2,-38.6875,-38.6875,-38.6875,23,23,23,6.668972,3.104051,2.053992,6.674965,5.961767,1.053512,-0.1373219,-0.4206626,1.458442,0.326903,0.1190391,1.225834,0.08850317,0.4074541,1.517969,-0.09996359,-0.41835,1.416117,0.2625748,0.1094361,1.221658,0.07591667,-0.06145358,1.520795,0.06992096,-0.3918249,1.514538,-0.108322,0.1315479,1.534065,-0.02003629,-0.3819587,1.489881,-0.1548695,-0.1191361,1.562049,0.4259588,-0.05876317,1.41874,NA,NA,NotTracked,Closed,
0.9213867,0.2856445,0.1757813,-0.6264648,0.7089844,0.4916992,-2,-2,-3,-3,-1,0,-1,0,-6,-4,0,0,-2,3,8,-12,-38.5625,-38.5625,-38.5625,-22.9375,-22.9375,-22.9375,6.634499,3.104352,2.018358,6.619367,5.946097,1.003481,-0.1355155,-0.4218844,1.448079,0.3299053,0.1126024,1.225967,0.08922483,0.4073014,1.515697,-0.09561215,-0.4063945,1.415588,0.2757543,0.1442178,1.2615,0.07610252,-0.06131877,1.520629,0.07073402,-0.3906396,1.513961,-0.1085434,0.132012,1.529643,-0.01866839,-0.3801971,1.487069,-0.1561616,-0.1192363,1.55363,0.4246156,-0.05922337,1.42082,NA,NA,NotTracked,Closed,
0.9414063,0.2592773,0.1220703,-0.5307617,0.6411133,0.4770508,-2,-1,-2,-3,-4,-1,1,1,2,-1,3,2,2,-1,0,-1,-28.3125,-28.3125,-28.3125,9,9,9,6.620981,3.106871,1.978825,6.594073,5.928416,0.9813465,-0.1341504,-0.420574,1.444045,0.3281052,0.1101514,1.225134,0.09062867,0.4069134,1.513925,-0.09758691,-0.416844,1.402093,0.3729343,0.1070775,1.207559,0.07656458,-0.06125638,1.520493,0.07238884,-0.3896585,1.513268,-0.1084086,0.1323222,1.525802,-0.01672341,-0.3791243,1.484644,-0.1562708,-0.1192468,1.547803,0.4206022,-0.06357421,1.424533,NA,NA,NotTracked,Closed,
0.9511719,0.2226563,0.1455078,-0.4619141,0.7036133,0.5102539,2,-1,-1,-1,1,-1,-1,-1,-6,-8,-17,-10,-7,-5,-8,0,-6.5,-6.5,-6.5,-10.5625,-10.5625,-10.5625,6.619825,3.083709,1.938368,6.586252,5.874237,0.9711713,-0.1324101,-0.4197234,1.442383,0.3283503,0.1021165,1.223088,0.09174974,0.406831,1.51297,-0.09569922,-0.4141848,1.403184,0.3751692,0.1047201,1.2098,0.07709268,-0.06118363,1.520194,0.07392427,-0.3889959,1.512316,-0.1080367,0.1321491,1.523205,-0.0151428,-0.3785462,1.482344,-0.1560082,-0.1195673,1.544265,0.4174943,-0.06706064,1.427997,NA,NA,NotTracked,Unknown,
0.9624023,0.2319336,0.1669922,-0.3920898,0.4628906,0.4550781,0,-1,-1,-3,0,0,-1,-2,-1,1,-4,-6,-5,-2,-4,1,0.0625,0.0625,0.0625,29.875,29.875,29.875,6.617193,3.070248,1.938472,6.576038,5.791763,0.9444565,-0.1321399,-0.4198875,1.442208,0.3300056,0.08662487,1.215746,0.09277983,0.4065371,1.511825,-0.09297258,-0.4093381,1.405727,0.3691122,0.09031794,1.19683,0.07760833,-0.06112371,1.519926,0.07488409,-0.3884817,1.511681,-0.1078997,0.1322443,1.521847,-0.01420108,-0.3781078,1.481029,-0.155938,-0.1196435,1.541829,0.4129123,-0.07113606,1.429281,NA,NA,NotTracked,Closed,
0.9472656,0.2919922,0.1777344,-0.171875,0.4335938,0.4575195,-1,-2,0,2,7,-2,-4,-1,1,-2,1,2,5,0,0,2,11.8125,11.8125,11.8125,47.6875,47.6875,47.6875,6.621619,3.052858,1.950125,6.661064,5.529253,0.9259567,-0.132684,-0.4193525,1.443382,0.336244,0.04720549,1.204364,0.09326993,0.4064706,1.510901,-0.09271143,-0.4087251,1.407117,0.3264546,0.01942469,1.174481,0.07786804,-0.06112549,1.519522,0.07526842,-0.3882824,1.511026,-0.1079951,0.1321743,1.52099,-0.01391438,-0.378011,1.480074,-0.1557971,-0.1198207,1.540612,0.3989766,-0.08431154,1.440834,NA,NA,NotTracked,Closed,
0.9267578,0.3046875,0.1728516,-0.008300781,0.5195313,0.4262695,-3,0,-2,-1,0,-3,-4,-3,7,1,1,-1,-1,-1,1,6,6.9375,6.9375,6.9375,43.9375,43.9375,43.9375,6.629141,3.050495,1.964742,6.737114,5.187924,0.9355269,-0.1323259,-0.4195491,1.443948,0.3349402,-0.03125773,1.194459,0.09354916,0.4065686,1.510424,-0.09122077,-0.4080887,1.409518,0.3073897,-0.06263217,1.169067,0.07812706,-0.06119874,1.519008,0.07547209,-0.3881966,1.510234,-0.1080159,0.1322406,1.520419,-0.01383155,-0.3779706,1.479256,-0.155676,-0.1197489,1.540272,0.3674592,-0.1070516,1.480905,NA,NA,NotTracked,Closed,
0.925293,0.2973633,0.1884766,-0.02783203,0.640625,0.3144531,-3,-2,-1,-1,-1,-1,0,-1,-3,-1,2,3,1,2,2,-1,16.125,16.125,16.125,52.375,52.375,52.375,6.631177,3.052034,1.98599,6.818715,4.761487,0.9010609,-0.1328594,-0.4195547,1.444311,0.3287241,-0.1413612,1.206348,0.09373803,0.4065621,1.509558,-0.09343567,-0.4181786,1.404372,0.2974918,-0.1664661,1.219333,0.0782619,-0.0612964,1.518221,0.07558,-0.3881799,1.509337,-0.1079781,0.1322752,1.520279,-0.01380384,-0.3780423,1.47834,-0.1555337,-0.119729,1.540177,0.3651666,-0.07728782,1.501463,NA,NA,NotTracked,Closed,
0.9316406,0.3193359,0.2075195,0.5175781,0.8417969,0.2509766,0,-1,-3,-2,-2,-1,-1,-1,0,-1,-2,-1,1,-3,-1,-4,11.1875,11.1875,11.1875,56.3125,56.3125,56.3125,6.634482,3.056282,2.006749,6.997861,4.095354,0.7557798,-0.1323627,-0.4195475,1.44508,0.3312071,-0.2601451,1.255419,0.09379905,0.4065104,1.509225,-0.0934679,-0.4204184,1.405068,0.3015087,-0.2766818,1.285,0.07828101,-0.06138114,1.517791,0.07557619,-0.3882237,1.508555,-0.1079141,0.1322824,1.520116,-0.01385814,-0.3781891,1.47763,-0.1554678,-0.1196875,1.540236,0.3699718,-0.09974054,1.490041,NA,NA,NotTracked,Closed,
0.9238281,0.3168945,0.2148438,1.233398,0.8964844,0.1196289,-1,0,-1,-1,0,-1,0,0,5,1,-2,-4,1,0,2,-1,-2.875,-2.875,-2.875,-36.3125,-36.3125,-36.3125,6.619273,3.061632,2.027652,7.224653,3.551623,0.4548329,-0.1316176,-0.4260061,1.442687,0.3357447,-0.3625541,1.318505,0.09398404,0.4062888,1.508682,-0.09152555,-0.4132655,1.407261,0.2993871,-0.3461288,1.2944,0.07846494,-0.06161547,1.517245,0.07574093,-0.3884596,1.507864,-0.1078819,0.1322999,1.520113,-0.013711,-0.3784767,1.476833,-0.1553455,-0.1196786,1.54029,0.3329019,-0.1229418,1.504391,NA,NA,NotTracked,Closed,
0.9365234,0.3393555,0.2006836,1.60498,0.4208984,-0.001953125,-2,-3,-4,-1,-2,-2,0,-2,-8,-12,-7,-19,-8,-6,-8,-19,-8.1875,-8.1875,-8.1875,41.3125,41.3125,41.3125,6.608471,3.064991,2.031442,7.809861,3.194552,9.761934,-0.1320191,-0.4268748,1.441867,0.3384146,-0.4359887,1.390071,0.09459225,0.4061631,1.508403,-0.09152346,-0.4290553,1.408161,0.304188,-0.4466511,1.408731,0.07909451,-0.06188447,1.516831,0.07647206,-0.3889165,1.507347,-0.1074029,0.1326055,1.520105,-0.01292686,-0.3788975,1.476225,-0.1550759,-0.1193289,1.540335,0.3185175,-0.1313613,1.493385,NA,NA,NotTracked,NotTracked,
0.9560547,0.3149414,0.2084961,1.100098,0.90625,-0.3808594,0,-2,-2,-2,-1,0,-1,2,-2,-7,-5,-4,-3,-4,-8,-4,-23.25,-23.25,-23.25,115.125,115.125,115.125,6.570141,3.054929,2.039697,8.456253,3.073025,9.34799,-0.1322818,-0.4262612,1.441575,0.3338992,-0.4452116,1.437853,0.09660051,0.4055885,1.507949,-0.09221999,-0.4196584,1.40566,0.294457,-0.4433718,1.443364,0.07989088,-0.06217172,1.516432,0.07733997,-0.3894727,1.506806,-0.1065737,0.1331066,1.520005,-0.01200727,-0.3793693,1.475667,-0.1547875,-0.1187332,1.540217,0.3097963,-0.137352,1.490342,NA,NA,NotTracked,NotTracked,
0.9243164,0.159668,0.1933594,0.8256836,0.3154297,-0.05908203,-2,1,-1,0,-2,0,0,-2,-2,0,1,-9,4,-4,-1,0,-12.1875,-12.1875,-12.1875,91.1875,91.1875,91.1875,6.485241,3.03451,2.075171,8.219032,3.013569,9.721537,-0.133349,-0.4267305,1.440524,0.3132381,-0.4475175,1.451039,0.1011667,0.4051637,1.507321,-0.09213243,-0.4194809,1.405644,0.2671571,-0.4348549,1.431565,0.08103506,-0.06228984,1.515816,0.07784559,-0.3896272,1.506672,-0.1052756,0.1338078,1.519556,-0.01142042,-0.3794429,1.475329,-0.154705,-0.1177898,1.53985,0.3083142,-0.1391056,1.495472,NA,NA,NotTracked,NotTracked,
0.8793945,0.2744141,0.171875,0.9086914,0.6005859,-0.08740234,0,-2,0,1,-1,-1,0,0,0,-2,2,2,1,3,1,0,4.5,4.5,4.5,58.6875,58.6875,58.6875,6.496724,3.025593,2.073699,8.25429,3.047945,9.841779,-0.1338024,-0.4293559,1.440242,0.3113734,-0.4453542,1.454879,0.1059797,0.4048875,1.506665,-0.09229095,-0.4193126,1.405879,0.2633241,-0.4351906,1.4293,0.08181512,-0.06225768,1.515257,0.07792378,-0.3896261,1.506611,-0.1029987,0.1354571,1.517779,-0.01127809,-0.3793258,1.474977,-0.1545308,-0.1155383,1.539294,0.3089885,-0.1393566,1.501152,NA,NA,NotTracked,NotTracked,
0.934082,0.2695313,0.2128906,0.9506836,0.09423828,0.009765625,-2,2,0,1,-3,-1,-2,-1,-1,-2,-3,-4,-5,-4,-3,2,-18.5625,-18.5625,-18.5625,-42.8125,-42.8125,-42.8125,6.47755,2.995998,2.059277,8.068379,3.046706,9.90531,-0.1356016,-0.4270808,1.442867,0.3116678,-0.4451354,1.454652,0.1099091,0.4043659,1.505637,-0.09137647,-0.4160902,1.406642,0.2660543,-0.4306622,1.431645,0.08226144,-0.06228942,1.515007,0.0779251,-0.3896477,1.506612,-0.09928511,0.1367065,1.515399,-0.01130547,-0.3792682,1.474758,-0.1540269,-0.1134019,1.538221,0.3096486,-0.1396789,1.505641,NA,NA,NotTracked,NotTracked,
0.9682617,0.2792969,0.2089844,0.9038086,0.2666016,-0.07910156,-1,0,-2,-2,-1,-2,-1,-1,2,-2,-1,-7,0,-1,-2,0,-6.4375,-6.4375,-6.4375,26.9375,26.9375,26.9375,6.459686,2.982184,2.060646,8.065108,3.038038,9.933202,-0.1360795,-0.4304081,1.441978,0.3106353,-0.4426862,1.455655,0.1126931,0.4039667,1.505176,-0.09264868,-0.4214645,1.405756,0.2616948,-0.4105137,1.431222,0.08262547,-0.06228784,1.514901,0.07793669,-0.3896515,1.506637,-0.09878866,0.1373018,1.514402,-0.01129836,-0.3791795,1.474605,-0.1542887,-0.1127237,1.536791,0.3102287,-0.1402571,1.508816,NA,NA,NotTracked,NotTracked,
0.9384766,0.2504883,0.1884766,0.953125,0.3305664,-0.1269531,-2,0,-2,-1,-2,-1,-2,0,0,1,-1,3,0,1,4,3,-7.5,-7.5,-7.5,0.3125,0.3125,0.3125,6.472269,2.99592,2.034073,8.080726,3.032477,9.938078,-0.1363382,-0.4296184,1.437624,0.3069999,-0.4422724,1.45551,0.1143517,0.4031661,1.504364,-0.09597234,-0.4300868,1.399447,0.259369,-0.4440982,1.426,0.08285755,-0.06230373,1.514829,0.07795668,-0.3896369,1.506614,-0.09864348,0.1376222,1.513505,-0.0112282,-0.3789425,1.473969,-0.1549364,-0.1123061,1.535449,0.3097826,-0.1404043,1.510256,NA,NA,NotTracked,NotTracked,
