ALX,ALY,ALZ,ARX,ARY,ARZ,EMG0L,EMG1L,EMG2L,EMG3L,EMG4L,EMG5L,EMG6L,EMG7L,EMG0R,EMG1R,EMG2R,EMG3R,EMG4R,EMG5R,EMG6R,EMG7R,GLX,GLY,GLZ,GRX,GRY,GRZ,ORL,OPL,OYL,ORR,OPR,OYR,LHNX,LHNY,LHNZ,RHNX,RHNY,RHNZ,HX,HY,HZ,LTX,LTY,LTZ,RTX,RTY,RTZ,SpineMidX,SpineMidY,SpineMidZ,SpineBaseX,SpineBaseY,SpineBaseZ,ShoulderLeftX,ShoulderLeftY,ShoulderLeftZ,ShoulderRightX,ShoulderRightY,ShoulderRightZ,ElbowLeftX,ElbowLeftY,ElbowLeftZ,ElbowRightX,ElbowRightY,ElbowRightZ,Myo_Pose_left,Myo_Pose_Right,Kinect_pose_left,Kinect_pose_right
0.9482422,0.1635742,0.2368164,0.9116211,0.3496094,-0.0625,0,-1,-2,-4,-1,-1,1,-2,-1,3,2,0,-1,0,-2,1,-1.375,-1.375,-1.375,1.6875,1.6875,1.6875,5.966968,2.94066,0.3887394,7.861175,3.105295,5.798134,-0.1461525,-0.4456354,1.361382,0.3283159,-0.4692914,1.359432,0.1306057,0.3854764,1.435597,-0.1873393,-0.4183848,1.381955,0.2722451,-0.4683176,1.334026,0.0973843,-0.07055756,1.473074,0.09219173,-0.3969525,1.465806,-0.08525209,0.1332306,1.453134,0.003091771,-0.384222,1.427784,-0.1409709,-0.1202964,1.446123,0.3136657,-0.1428673,1.449321,NA,NA,NotTracked,NotTracked,
0.9545898,0.159668,0.2319336,0.8955078,0.3413086,-0.05615234,0,-2,-3,-2,-5,1,-2,2,6,8,0,-1,-2,-1,1,1,1.9375,1.9375,1.9375,-2.375,-2.375,-2.375,5.964754,2.939627,0.3911367,7.85747,3.108268,5.799203,-0.1456503,-0.4454156,1.361438,0.3280128,-0.4697356,1.358321,0.1306638,0.3859436,1.435821,-0.1862055,-0.4044098,1.380672,0.2721262,-0.4683695,1.334122,0.09743145,-0.07056703,1.472808,0.09226231,-0.3969189,1.465515,-0.08529885,0.1331865,1.45289,0.003169281,-0.3842115,1.427478,-0.1408917,-0.1203636,1.446002,0.313709,-0.142722,1.449182,NA,NA,NotTracked,NotTracked,
0.953125,0.1606445,0.2246094,0.9106445,0.3349609,-0.05566406,-4,0,-3,-3,-5,-2,-1,0,1,-5,-2,-1,0,-2,-1,-1,1.375,1.375,1.375,4.9375,4.9375,4.9375,5.963319,2.940952,0.3953093,7.858532,3.108817,5.801439,-0.1461754,-0.4451341,1.36106,0.3279564,-0.4689148,1.356458,0.1306944,0.3862472,1.436049,-0.182205,-0.3964391,1.368423,0.2722722,-0.4682463,1.3338,0.09745125,-0.07057038,1.472673,0.0923428,-0.3969148,1.46528,-0.08528796,0.1331539,1.452734,0.003248311,-0.3842217,1.427281,-0.1408889,-0.1203907,1.445931,0.3137552,-0.142709,1.44894,NA,NA,NotTracked,NotTracked,
0.9550781,0.1689453,0.2246094,0.9072266,0.3505859,-0.05859375,-2,-4,-2,-4,1,-1,-1,0,-3,-1,0,2,1,-1,-1,-4,2.625,2.625,2.625,-2.6875,-2.6875,-2.6875,5.969134,2.941673,0.3919994,7.85675,3.112176,5.805221,-0.1461925,-0.4449226,1.360858,0.3281757,-0.4693522,1.355396,0.1307995,0.3863946,1.43619,-0.1785466,-0.4151545,1.361083,0.2725677,-0.46788,1.333261,0.09753627,-0.07066505,1.472285,0.09246523,-0.3969596,1.464766,-0.08526926,0.1331121,1.45271,0.003383673,-0.384289,1.426816,-0.1408876,-0.12043,1.445869,0.3138166,-0.142664,1.448412,NA,NA,NotTracked,NotTracked,
0.949707,0.1572266,0.2285156,0.8916016,0.3549805,-0.05761719,-1,-1,-2,2,1,-5,-2,0,-4,-3,-2,-1,-1,-3,-2,-3,-0.1875,-0.1875,-0.1875,1.0625,1.0625,1.0625,5.97275,2.943027,0.3894418,7.850612,3.114214,5.810052,-0.1455894,-0.4451615,1.361029,0.3274975,-0.4682663,1.354457,0.13088,0.3865615,1.436442,-0.1865126,-0.408911,1.379952,0.2724408,-0.4675507,1.33191,0.09760495,-0.07075228,1.471771,0.09262353,-0.3970766,1.463888,-0.08525812,0.1330138,1.452632,0.003530034,-0.3844072,1.425984,-0.140761,-0.120557,1.445721,0.3138927,-0.142718,1.447919,NA,NA,NotTracked,NotTracked,
0.9438477,0.1757813,0.2246094,0.8979492,0.3505859,-0.06103516,-1,1,-1,-10,-5,-3,-2,-2,1,2,-1,1,1,0,0,0,1.75,1.75,1.75,1,1,1,5.993445,2.947059,0.3753451,7.850688,3.117683,5.8097,-0.1450451,-0.445119,1.360392,0.3280824,-0.4695862,1.353694,0.1310957,0.3867912,1.437164,-0.1864917,-0.4144499,1.382111,0.2727332,-0.4673789,1.331619,0.09759118,-0.07091708,1.471207,0.09270459,-0.3972464,1.462385,-0.08526948,0.1329068,1.452605,0.003560455,-0.3846196,1.424647,-0.1407306,-0.1206718,1.445701,0.3138011,-0.1429197,1.447378,NA,NA,NotTracked,NotTracked,
0.9633789,0.1538086,0.2197266,0.9165039,0.3618164,-0.05761719,-1,0,-2,-3,-2,2,-1,2,2,1,-1,0,0,-1,1,1,-1.125,-1.125,-1.125,3.875,3.875,3.875,5.993213,2.948699,0.3714174,7.856649,3.12135,5.812527,-0.1449522,-0.445141,1.360481,0.3281219,-0.4699025,1.350898,0.1311743,0.3868792,1.437533,-0.2011009,-0.4672915,1.3665,0.2727705,-0.4682544,1.325891,0.09762498,-0.07116032,1.470438,0.09292643,-0.3974594,1.460477,-0.08533029,0.1325397,1.452561,0.003708398,-0.3849158,1.422719,-0.140631,-0.1210749,1.445561,0.3139778,-0.1431951,1.446627,NA,NA,NotTracked,NotTracked,
0.9794922,0.1572266,0.2329102,0.9033203,0.3647461,-0.05712891,-2,0,2,7,4,1,0,4,-5,-3,-2,0,-1,0,-1,0,6.375,6.375,6.375,-1.4375,-1.4375,-1.4375,6.00508,2.951123,0.3661047,7.853599,3.123276,5.813885,-0.143808,-0.4447874,1.361749,0.3284258,-0.4701895,1.350672,0.1311247,0.3868981,1.438329,-0.1865964,-0.4207206,1.384185,0.2723493,-0.4692275,1.32551,0.09765945,-0.07135758,1.469954,0.09306581,-0.3977246,1.45897,-0.08549111,0.1322682,1.452826,0.003795149,-0.3852423,1.421271,-0.1404893,-0.1214179,1.445632,0.3139074,-0.1436954,1.446296,NA,NA,NotTracked,NotTracked,
0.9458008,0.1518555,0.2392578,0.890625,0.3608398,-0.0546875,0,-2,-1,-2,0,-2,-1,0,-1,-1,-2,0,-2,-2,-3,-3,6.9375,6.9375,6.9375,-0.5625,-0.5625,-0.5625,6.015553,2.953326,0.3658538,7.850833,3.124053,5.813335,-0.1436056,-0.4444182,1.362233,0.3283938,-0.4693414,1.350363,0.1311418,0.3869758,1.439459,-0.1865164,-0.4371095,1.386313,0.2727032,-0.4675987,1.327637,0.09769926,-0.07145248,1.469521,0.09329733,-0.3978798,1.457376,-0.08551847,0.1318254,1.453251,0.003992286,-0.3854101,1.419848,-0.1403043,-0.1219024,1.446002,0.3141903,-0.1442011,1.445589,NA,NA,NotTracked,NotTracked,
0.9375,0.1796875,0.2426758,0.918457,0.362793,-0.05029297,-1,-1,-2,1,5,-1,-2,2,-2,-1,-2,0,-4,-1,-2,-3,5.1875,5.1875,5.1875,3.3125,3.3125,3.3125,6.019648,2.954087,0.3738129,7.849546,3.124055,5.819709,-0.1436589,-0.4475268,1.362907,0.3286916,-0.4687625,1.349128,0.1311327,0.3875252,1.440696,-0.1871855,-0.4360331,1.386005,0.2724661,-0.4681539,1.325943,0.09765527,-0.07149289,1.469144,0.093322,-0.3979672,1.456517,-0.08554434,0.1316116,1.453479,0.004011962,-0.3853765,1.419059,-0.140048,-0.122166,1.446409,0.3144729,-0.144372,1.444884,NA,NA,NotTracked,NotTracked,
0.9521484,0.1894531,0.2441406,0.909668,0.3544922,-0.04541016,-1,-1,-2,-5,-5,0,0,-2,-2,-2,-2,1,1,-1,-1,-3,-2.1875,-2.1875,-2.1875,2.3125,2.3125,2.3125,6.015776,2.953812,0.3784377,7.830924,3.123523,5.843989,-0.1438782,-0.4487164,1.364503,0.327687,-0.4692387,1.348971,0.1309762,0.3881776,1.441867,-0.1857742,-0.4211531,1.385333,0.2727125,-0.4667689,1.32655,0.09768061,-0.07144474,1.469022,0.09333757,-0.3979643,1.456408,-0.08564301,0.1314712,1.453999,0.004024492,-0.385396,1.418962,-0.1399422,-0.1223411,1.44704,0.3145541,-0.1443889,1.444473,NA,NA,NotTracked,NotTracked,
0.9331055,0.1982422,0.2573242,0.8867188,0.34375,-0.046875,-2,0,-1,6,7,-5,-1,0,4,-2,-2,0,0,-2,-1,-3,-6.75,-6.75,-6.75,-2.0625,-2.0625,-2.0625,6.03962,2.959723,0.3443222,7.829325,3.121537,5.847516,-0.1444146,-0.448474,1.363409,0.3277237,-0.4694019,1.347968,0.1308893,0.3886703,1.442191,-0.1864029,-0.4215378,1.386106,0.2719278,-0.4656973,1.325292,0.09767924,-0.07136461,1.468766,0.09334639,-0.3979578,1.456343,-0.08569932,0.1313992,1.454035,0.004041617,-0.3854043,1.41891,-0.1399091,-0.1224192,1.447325,0.3146336,-0.1445637,1.443911,NA,NA,NotTracked,NotTracked,
0.9394531,0.1816406,0.2314453,0.9091797,0.3232422,-0.07177734,-2,-4,-7,-23,-27,-12,-3,0,-2,2,0,0,1,-2,-2,-1,5.875,5.875,5.875,1.3125,1.3125,1.3125,6.032436,2.95287,0.3539501,7.851806,3.114787,5.820923,-0.1441712,-0.448304,1.363485,0.3269209,-0.469014,1.34926,0.1308061,0.3890197,1.442296,-0.1850317,-0.4453152,1.38419,0.2721591,-0.4660779,1.327456,0.09758249,-0.0713045,1.468525,0.0932865,-0.3979789,1.456357,-0.08576457,0.1313239,1.453928,0.003984721,-0.3854255,1.418941,-0.1397733,-0.1225267,1.447441,0.3146309,-0.144643,1.44335,NA,NA,NotTracked,NotTracked,
0.9702148,0.1762695,0.2231445,0.8999023,0.3681641,-0.05761719,0,-1,1,0,1,-1,1,-1,-30,-6,-2,-3,-1,-4,-4,-8,-8.4375,-8.4375,-8.4375,1.625,1.625,1.625,6.036386,2.943727,0.3473124,7.856387,3.107898,5.826751,-0.1439281,-0.448609,1.363394,0.3261925,-0.469772,1.349994,0.130679,0.3893214,1.442161,-0.1860316,-0.4359337,1.387596,0.2724005,-0.4661168,1.328381,0.0975704,-0.07125894,1.468364,0.09327438,-0.3979585,1.456429,-0.08581459,0.1313237,1.453877,0.003979981,-0.3854055,1.419023,-0.1397,-0.1225509,1.447452,0.3145238,-0.1448805,1.443016,NA,NA,NotTracked,NotTracked,
0.9545898,0.1621094,0.2211914,0.8930664,0.3398438,-0.06298828,-1,-3,0,0,5,-4,-2,-4,1,-8,-3,-2,-1,0,-2,2,0,0,0,-3.4375,-3.4375,-3.4375,6.041527,2.942531,0.3312099,7.86009,3.103288,5.815142,-0.1430961,-0.4482411,1.362931,0.3251052,-0.4700113,1.351408,0.1304755,0.3896305,1.442094,-0.186643,-0.4248653,1.388599,0.2716524,-0.4668601,1.328278,0.09754934,-0.07121468,1.468296,0.09326386,-0.3979063,1.456679,-0.08594408,0.1313253,1.453777,0.003984315,-0.3853741,1.419321,-0.1396261,-0.122588,1.447466,0.3144104,-0.1448788,1.442887,NA,NA,NotTracked,NotTracked,
0.9770508,0.1625977,0.2211914,1.013672,0.3569336,-0.1342773,2,1,5,6,-11,-12,-2,1,2,2,8,0,4,3,2,14,-1.75,-1.75,-1.75,-12.875,-12.875,-12.875,6.057336,2.942994,0.3161441,7.861771,3.100388,5.802896,-0.1429304,-0.4487167,1.36321,0.3249973,-0.4705955,1.353752,0.1302717,0.3898877,1.44193,-0.1831544,-0.4297705,1.38444,0.2716858,-0.4670596,1.329061,0.09748935,-0.07120427,1.468186,0.09319171,-0.3979021,1.456838,-0.0860513,0.1312823,1.453691,0.003917789,-0.3853973,1.419451,-0.1395619,-0.1226653,1.447429,0.3141825,-0.1450399,1.442891,NA,NA,NotTracked,NotTracked,
1.273926,0.2519531,0.2192383,1.219238,0.3095703,-0.08447266,3,8,9,4,13,15,4,4,-10,-11,-19,-5,-4,10,-7,-11,-7.25,-7.25,-7.25,8.8125,8.8125,8.8125,6.083131,2.963847,0.2691602,7.532353,3.206755,6.150125,-0.1438678,-0.4437217,1.355117,0.3245648,-0.4604873,1.346847,0.1300706,0.390028,1.441743,-0.1873067,-0.4401759,1.380349,0.2720865,-0.4645627,1.34472,0.09738459,-0.07118852,1.467984,0.09308097,-0.3978718,1.457051,-0.08625936,0.1312348,1.453304,0.003788784,-0.3854065,1.41964,-0.1397279,-0.1226347,1.448647,0.3148076,-0.144949,1.444734,NA,NA,NotTracked,NotTracked,
1.376953,0.487793,0.3383789,1.138184,0.8720703,0.2280273,-24,-5,-2,-4,15,12,-2,-22,-5,0,-22,-15,-6,-11,-17,-20,-119.0625,-119.0625,-119.0625,49.5625,49.5625,49.5625,6.220697,3.187321,9.981954,7.232554,3.426392,6.581615,-0.1422758,-0.4018156,1.330016,0.3131581,-0.4146786,1.323463,0.1293801,0.3906293,1.440844,-0.1884376,-0.4087358,1.331614,0.2727582,-0.4074017,1.32039,0.09740667,-0.07089951,1.467128,0.09322315,-0.3976459,1.45708,-0.08656874,0.1313662,1.453118,0.003838513,-0.3853467,1.419658,-0.1447299,-0.1201776,1.462745,0.3211925,-0.1425764,1.458763,NA,NA,NotTracked,NotTracked,
1.309082,0.3320313,0.6220703,0.5551758,0.6274414,0.2758789,10,1,7,2,-3,-1,19,13,-8,-5,8,-2,-15,22,49,-4,-189.75,-189.75,-189.75,-65.6875,-65.6875,-65.6875,6.068414,3.515921,9.82806,6.9347,3.851457,6.84464,-0.1151811,-0.3456613,1.324388,0.283994,-0.3533397,1.325666,0.1283435,0.3912205,1.439069,-0.1356615,-0.2957132,1.294422,0.2432463,-0.4038063,1.353774,0.09649159,-0.0702321,1.465274,0.09276018,-0.3968008,1.456681,-0.08718435,0.1325638,1.453771,0.003218011,-0.3847467,1.419269,-0.155394,-0.1130322,1.483805,0.3311047,-0.136438,1.478362,NA,NA,NotTracked,NotTracked,
0.652832,0.3647461,0.5776367,0.4663086,0.8686523,0.4228516,0,11,3,6,3,-2,7,12,23,61,32,4,-7,8,21,22,12.3125,12.3125,12.3125,-15.5625,-15.5625,-15.5625,6.007395,3.89242,9.803783,6.867938,4.180647,6.893026,-0.1156701,-0.26529,1.303311,0.2792423,-0.2857332,1.29539,0.1270752,0.3920386,1.436765,-0.1751724,-0.2668977,1.309,0.2406654,-0.301405,1.293059,0.09589875,-0.06891562,1.463143,0.09236968,-0.3942232,1.455677,-0.0883168,0.1350216,1.455522,0.002750765,-0.3826845,1.418547,-0.1583299,-0.1032053,1.49965,0.3345688,-0.1152121,1.493723,NA,NA,Unknown,Unknown,
0.1953125,0.3237305,0.7260742,0.190918,0.8085938,0.3896484,21,17,4,5,15,34,13,12,4,11,-33,-6,-1,-9,-29,-16,-39.375,-39.375,-39.375,-46.1875,-46.1875,-46.1875,5.959401,4.470211,9.81646,6.795553,4.52749,6.9083,-0.1114595,-0.193442,1.287967,0.2719957,-0.2161538,1.280382,0.1251733,0.3929224,1.434388,-0.1635582,-0.1887487,1.286476,0.2288114,-0.2239666,1.280594,0.09494236,-0.06746372,1.461664,0.09145097,-0.3914239,1.455268,-0.08932344,0.1380613,1.457384,0.001868401,-0.3799381,1.41816,-0.1581566,-0.09075091,1.505117,0.3306469,-0.1023078,1.495332,NA,NA,Closed,Closed,
0.03320313,0.394043,0.6972656,0.05810547,0.715332,0.3637695,-8,-6,1,-3,-20,-13,-6,-7,4,-3,12,4,-10,-1,36,17,-7.9375,-7.9375,-7.9375,-1.75,-1.75,-1.75,5.933937,4.777996,9.821601,6.751021,4.845771,6.934081,-0.1133233,-0.1344728,1.265737,0.2649263,-0.1499011,1.26412,0.1235687,0.3936313,1.432569,-0.155466,-0.1404603,1.259395,0.2199095,-0.151412,1.273965,0.09456789,-0.06684258,1.460986,0.09099463,-0.390163,1.455406,-0.08929295,0.1380311,1.45739,0.001295452,-0.3788245,1.418533,-0.1558135,-0.06668587,1.507146,0.3210115,-0.07873141,1.486204,NA,NA,Closed,Closed,
-0.04394531,0.3198242,0.6411133,-0.1982422,0.5620117,0.3027344,-12,-12,-6,-2,-19,-23,1,10,5,7,27,1,2,0,14,30,-36.125,-36.125,-36.125,-5.0625,-5.0625,-5.0625,5.885257,5.024662,9.810355,6.738692,5.199513,6.968218,-0.1108641,-0.08655757,1.262299,0.2604111,-0.09232417,1.258622,0.1221212,0.3943142,1.431649,-0.1453737,-0.0729492,1.247711,0.2224675,-0.1062047,1.255133,0.09418849,-0.06618559,1.460292,0.09060124,-0.388988,1.455237,-0.08952519,0.1393165,1.458156,0.0008713057,-0.3778206,1.418657,-0.1673119,-0.05041488,1.504196,0.3261064,-0.05437692,1.479208,NA,NA,Closed,Closed,
-0.199707,0.3344727,0.6054688,-0.230957,0.6005859,0.2983398,9,-10,-8,-7,-2,-3,-11,-12,-1,-21,4,8,15,9,-2,-12,-7.375,-7.375,-7.375,8.8125,8.8125,8.8125,5.837403,5.230484,9.78127,6.756387,5.349745,6.98773,-0.1122452,-0.05989622,1.268319,0.2400911,-0.05328408,1.285112,0.1207306,0.394612,1.430888,-0.1572737,-0.06678074,1.268384,0.2001473,-0.00417835,1.323177,0.09382646,-0.06606095,1.459896,0.09018321,-0.3888393,1.454957,-0.08978846,0.1399243,1.458622,0.0003577709,-0.3777038,1.418583,-0.2134951,-0.05676214,1.517757,0.3409293,-0.06880704,1.468073,NA,NA,Closed,Closed,
-0.2089844,0.4125977,0.6450195,-0.2929688,0.730957,0.421875,4,18,13,0,-12,8,3,-14,1,28,2,6,32,18,5,1,-6.8125,-6.8125,-6.8125,20.375,20.375,20.375,5.832362,5.281014,9.763263,6.770908,5.381409,6.999905,-0.1067449,-0.05378704,1.273918,0.2366911,-0.04686217,1.286695,0.1192642,0.3950172,1.430996,-0.1592295,-0.06643829,1.27088,0.2017705,-0.000526404,1.325163,0.09356503,-0.06599539,1.459709,0.08986788,-0.3887743,1.454873,-0.09015588,0.1407137,1.459662,-3.435764E-05,-0.3776606,1.418664,-0.2030863,-0.0592085,1.515511,0.3426934,-0.07575682,1.457139,NA,NA,Closed,Closed,
-0.1518555,0.5439453,0.8271484,-0.1860352,0.9951172,0.5766602,-27,12,19,19,15,18,2,-8,-3,-13,-11,0,6,-1,-2,22,12.75,12.75,12.75,-3.625,-3.625,-3.625,5.845404,5.269758,9.76176,6.781324,5.335437,6.997921,-0.1046543,-0.05955519,1.27372,0.2380948,-0.05278727,1.28191,0.1179228,0.3953786,1.431622,-0.1581209,-0.07135727,1.272565,0.2136181,-0.06376307,1.241367,0.09326877,-0.0659481,1.459695,0.08964112,-0.3887478,1.454791,-0.09035556,0.1406356,1.46007,-0.0002932072,-0.3776771,1.418662,-0.2075422,-0.06569103,1.50777,0.3439642,-0.07686523,1.45466,NA,NA,Closed,Closed,
-0.1347656,0.5859375,0.9018555,-0.2592773,0.8608398,0.4472656,15,4,0,4,-2,-6,5,7,1,2,-4,8,3,-4,-14,-7,10.5,10.5,10.5,-9.3125,-9.3125,-9.3125,5.877302,5.250028,9.76159,6.758496,5.344032,6.991233,-0.1004805,-0.06110927,1.273528,0.2348818,-0.05145923,1.280978,0.1164902,0.3957905,1.432351,-0.1530327,-0.07446099,1.268177,0.2130722,-0.06094559,1.231826,0.09307358,-0.06593195,1.459509,0.08941947,-0.3887914,1.454534,-0.09040128,0.1403145,1.46,-0.0005696949,-0.3777577,1.41849,-0.1959684,-0.06391604,1.510068,0.3434579,-0.07787162,1.45266,NA,NA,Closed,Closed,
-0.1870117,0.5146484,0.8618164,-0.2255859,0.8759766,0.4448242,7,-9,-9,0,-2,0,4,28,-7,-12,-17,-2,8,1,2,9,16.3125,16.3125,16.3125,1.625,1.625,1.625,5.896949,5.246927,9.763491,6.746469,5.340178,6.979434,-0.09704194,-0.06283861,1.27598,0.2337861,-0.0517467,1.280271,0.1152857,0.3961117,1.432858,-0.1478415,-0.08157714,1.268531,0.2911171,-0.04449493,1.265622,0.09281677,-0.06593899,1.459366,0.08921289,-0.388853,1.454381,-0.09018287,0.1397577,1.459734,-0.0008014918,-0.3778582,1.418435,-0.2146014,-0.06246808,1.518729,0.3428062,-0.07852033,1.450982,NA,NA,Closed,Closed,
-0.1713867,0.5068359,0.8530273,-0.2319336,0.8911133,0.4882813,-21,-22,-17,-6,-8,-9,-7,-12,0,-1,-4,15,22,36,86,-4,9.1875,9.1875,9.1875,-3.4375,-3.4375,-3.4375,5.908683,5.241052,9.75633,6.740864,5.334664,6.973448,-0.09677524,-0.06674923,1.275159,0.233122,-0.05479825,1.280012,0.1143627,0.3963961,1.433394,-0.1444357,-0.08672008,1.268,0.2895719,-0.05020554,1.264214,0.09263427,-0.06595925,1.459284,0.08897054,-0.3889293,1.454239,-0.09009457,0.1392776,1.459636,-0.001074145,-0.3779638,1.418325,-0.2113931,-0.07755909,1.489497,0.3420554,-0.07879651,1.450236,NA,NA,Closed,Closed,
-0.1416016,0.5810547,0.8671875,-0.2226563,0.8950195,0.4609375,-7,0,0,-1,8,-4,3,1,-3,8,13,9,15,5,-15,-26,-3.5,-3.5,-3.5,0.25,0.25,0.25,5.910938,5.231452,9.75448,6.739829,5.327045,6.97251,-0.09759597,-0.06885181,1.27364,0.2329773,-0.05723963,1.278052,0.1136848,0.3966357,1.4339,-0.1497619,-0.07885871,1.26791,0.2880328,-0.05171746,1.262207,0.09231005,-0.0659081,1.459186,0.08862457,-0.388877,1.454057,-0.09081773,0.1393471,1.460317,-0.001427604,-0.3779498,1.418188,-0.2177012,-0.07087575,1.50761,0.341577,-0.07914888,1.449944,NA,NA,Closed,Closed,
-0.1450195,0.5600586,0.8095703,-0.2182617,0.8364258,0.4785156,-4,-4,-7,-14,-6,-4,-5,-7,-1,-2,-4,10,-8,-9,-6,10,8.125,8.125,8.125,0.5625,0.5625,0.5625,5.906171,5.217019,9.757026,6.735584,5.312648,6.970376,-0.1004846,-0.07174633,1.270842,0.2337607,-0.06098859,1.27638,0.1129796,0.3969588,1.434751,-0.1502608,-0.08800298,1.270814,0.2769819,-0.07479408,1.23,0.09208354,-0.0658797,1.459198,0.08849885,-0.3889146,1.453976,-0.09069102,0.1390072,1.460159,-0.001573414,-0.3780026,1.418137,-0.2203434,-0.06685073,1.522423,0.3409396,-0.07899687,1.449513,NA,NA,Closed,Closed,
-0.1411133,0.53125,0.8095703,-0.2197266,0.8178711,0.4423828,6,-5,1,-11,-15,-12,-5,2,2,12,12,4,-4,6,8,-17,-7.5,-7.5,-7.5,-1.5625,-1.5625,-1.5625,5.902939,5.199095,9.762327,6.732755,5.287139,6.963192,-0.1011004,-0.07522529,1.271508,0.2352044,-0.06523308,1.274729,0.1125079,0.3972428,1.435348,-0.1534024,-0.08675487,1.271054,0.1911321,-0.03196938,1.328199,0.09168044,-0.06581382,1.459231,0.08830329,-0.3889447,1.453944,-0.09065074,0.1388179,1.460026,-0.001810049,-0.3780409,1.418173,-0.213406,-0.0523806,1.521914,0.3394672,-0.07662722,1.449999,NA,NA,Closed,Closed,
-0.2021484,0.4135742,0.6723633,-0.1660156,0.7744141,0.3999023,0,1,-2,3,-2,2,2,6,-2,7,0,-2,-15,-1,10,-21,9.375,9.375,9.375,-0.25,-0.25,-0.25,5.911497,5.167345,9.767933,6.728761,5.206519,6.946479,-0.1081559,-0.0917484,1.26195,0.2379494,-0.07905658,1.270687,0.1121292,0.3974924,1.435819,-0.1534065,-0.1047759,1.26764,0.2121755,-0.07274506,1.21608,0.0914161,-0.06560382,1.459373,0.08815157,-0.388709,1.454162,-0.09065063,0.1387229,1.459964,-0.00193756,-0.377865,1.418443,-0.2093686,-0.0480814,1.52244,0.3358146,-0.06656408,1.455368,NA,NA,Closed,Closed,
0.006347656,0.4321289,0.7426758,-0.1992188,0.6567383,0.3583984,4,10,3,1,9,-3,4,0,1,-6,-5,-2,-15,-1,-5,-5,6.3125,6.3125,6.3125,-0.375,-0.375,-0.375,5.918263,5.033633,9.798663,6.724615,5.098481,6.9263,-0.1114862,-0.1204291,1.255647,0.2477294,-0.1070108,1.261235,0.111693,0.3981388,1.436896,-0.1380985,-0.1425713,1.24944,0.187112,-0.1152956,1.334276,0.09086647,-0.06502865,1.459761,0.08784132,-0.388124,1.454562,-0.09191965,0.139072,1.460784,-0.002209202,-0.3773956,1.418806,-0.1705511,-0.05677685,1.501281,0.3290927,-0.05855671,1.463133,NA,NA,Closed,Closed,
-0.08544922,0.4042969,0.6240234,-0.04833984,0.5712891,0.2817383,20,17,12,10,6,8,7,12,7,6,10,10,-3,1,0,1,5.3125,5.3125,5.3125,3.5,3.5,3.5,5.939289,4.826051,9.829969,6.741282,4.809117,6.872805,-0.1185114,-0.1606051,1.259276,0.2568285,-0.1532962,1.251376,0.1114538,0.3985884,1.437628,-0.156975,-0.1765921,1.258515,0.2171399,-0.1805826,1.272333,0.09022964,-0.06463268,1.460113,0.08741179,-0.3879028,1.454852,-0.09304038,0.138977,1.461294,-0.00269471,-0.3771822,1.419173,-0.1682076,-0.06152643,1.503439,0.3231463,-0.06529055,1.4731,NA,NA,Closed,Closed,
0.1005859,0.3349609,0.6181641,0.3994141,0.7797852,0.3642578,12,-4,-14,-1,-6,-6,-6,-22,-3,-1,13,4,12,12,18,7,11.4375,11.4375,11.4375,22.625,22.625,22.625,5.939674,4.666461,9.855424,6.784079,4.493384,6.811973,-0.1269291,-0.2133511,1.27291,0.26778,-0.2200163,1.257412,0.111161,0.3992555,1.439637,-0.1702763,-0.2345893,1.270263,0.2275159,-0.2531976,1.287,0.0896604,-0.06425045,1.460727,0.08714718,-0.3877817,1.455115,-0.0948014,0.1388113,1.46194,-0.00291252,-0.3770724,1.419523,-0.1658162,-0.07913124,1.505553,0.3218924,-0.08520013,1.483569,NA,NA,Closed,Closed,
0.07519531,0.449707,0.6074219,0.2250977,0.7285156,0.4345703,-8,2,9,4,-4,-11,-3,-2,5,7,8,2,16,11,10,-11,21,21,21,16.125,16.125,16.125,5.965244,4.364367,9.884166,6.842489,4.150421,6.74045,-0.1354116,-0.2842448,1.282132,0.2800188,-0.2877657,1.277719,0.1109491,0.3999827,1.442734,-0.09125365,-0.3232706,1.343143,0.2370027,-0.3104331,1.349227,0.08919378,-0.06421467,1.461222,0.08686478,-0.3881468,1.455065,-0.09602866,0.1378434,1.461715,-0.003146503,-0.3774159,1.419495,-0.1662878,-0.09620318,1.501613,0.3231302,-0.1055404,1.485214,NA,NA,Unknown,Unknown,
0.6904297,0.4428711,0.6430664,1.023926,0.8540039,0.3320313,4,-7,-5,-5,-6,-2,-2,6,6,22,5,-1,1,-14,-17,5,32.9375,32.9375,32.9375,55.3125,55.3125,55.3125,5.956311,3.8692,9.951418,7.069061,3.638237,6.542284,-0.146131,-0.3517848,1.298038,0.2956868,-0.3552112,1.29659,0.1108753,0.4001417,1.446631,-0.1094514,-0.3648663,1.282051,0.2476552,-0.3780094,1.291048,0.0888583,-0.06478819,1.462188,0.08665257,-0.3896573,1.455253,-0.09741703,0.135399,1.461146,-0.003382523,-0.3791063,1.419679,-0.1576382,-0.1141811,1.481,0.3218535,-0.1304959,1.473875,NA,NA,Unknown,Closed,
1.416504,0.4863281,0.5024414,1.431152,0.5991211,0.01464844,-3,-2,-12,-7,1,10,2,2,-4,14,0,-2,-5,1,4,-8,57.6875,57.6875,57.6875,27.0625,27.0625,27.0625,5.959229,3.433414,0.06254649,7.390749,3.351746,6.209489,-0.1592975,-0.4085129,1.323383,0.3076738,-0.4089504,1.320754,0.1113563,0.4002891,1.451533,-0.1268807,-0.4199972,1.305429,0.2624769,-0.4272086,1.32263,0.0886752,-0.0657884,1.464245,0.08648553,-0.3918917,1.456184,-0.09728979,0.1322936,1.4595,-0.003481466,-0.3814293,1.420419,-0.1475578,-0.1223321,1.452283,0.3135954,-0.1383738,1.455842,NA,NA,Closed,Unknown,
1.395508,0.1914063,0.3686523,1.083496,0.5698242,-0.2001953,33,2,-1,-4,3,2,7,13,-1,-21,-21,-8,-11,-5,-16,6,53.4375,53.4375,53.4375,11.25,11.25,11.25,5.805807,3.005605,0.343013,7.682184,3.244514,5.926103,-0.1639924,-0.4229522,1.336117,0.3140678,-0.4264312,1.333053,0.1118338,0.4004413,1.455053,-0.1318834,-0.4380555,1.319975,0.2687582,-0.442799,1.332852,0.08865171,-0.06642711,1.465309,0.08663915,-0.3935102,1.456583,-0.0969704,0.129338,1.455778,-0.003242209,-0.3828864,1.420621,-0.1405053,-0.1268153,1.435636,0.3059487,-0.143008,1.441449,NA,NA,NotTracked,NotTracked,
0.9057617,0.1411133,0.3603516,0.7817383,0.4804688,-0.1386719,-8,6,9,5,-11,-34,-6,-5,11,47,19,5,3,-8,-8,4,-33.6875,-33.6875,-33.6875,30.625,30.625,30.625,5.91638,3.021961,0.2436634,7.731563,3.235585,5.911706,-0.1602334,-0.4206465,1.333143,0.3147461,-0.4276811,1.336731,0.1122345,0.4007598,1.457461,-0.1282448,-0.4340794,1.313076,0.269134,-0.4424257,1.33737,0.08875256,-0.0665044,1.465758,0.08679741,-0.3938928,1.456815,-0.09707301,0.1287865,1.454382,-0.003063258,-0.3832476,1.420739,-0.1395239,-0.1275458,1.433064,0.3041958,-0.1437709,1.438957,NA,NA,NotTracked,NotTracked,
0.8666992,0.07226563,0.3071289,0.8730469,0.3974609,0.03466797,-7,-4,7,5,2,-15,-6,-1,-1,-9,-4,-3,2,0,13,8,21.5625,21.5625,21.5625,-32.625,-32.625,-32.625,5.856949,3.057016,0.2938176,7.65966,3.27363,5.92933,-0.1610707,-0.4172008,1.325619,0.3169134,-0.4266717,1.333882,0.1125487,0.4009696,1.45849,-0.1301748,-0.4323867,1.298219,0.2711321,-0.4405194,1.336869,0.08878896,-0.06651384,1.466156,0.08694469,-0.3941478,1.457081,-0.0972327,0.1288908,1.453559,-0.002894828,-0.3834954,1.420875,-0.1394513,-0.1274792,1.431629,0.3040373,-0.1440033,1.438742,NA,NA,NotTracked,NotTracked,
0.9360352,0.2929688,0.2416992,0.8808594,0.4765625,0.04296875,0,-4,-7,-2,4,2,-1,-1,5,7,-9,0,4,0,-4,-16,8.6875,8.6875,8.6875,7.1875,7.1875,7.1875,5.902135,3.092236,0.2879395,7.622507,3.291341,5.962622,-0.1623991,-0.4175793,1.318463,0.3188021,-0.4252557,1.331042,0.1128748,0.4010743,1.458962,-0.1295317,-0.4324353,1.29853,0.271619,-0.4414385,1.333809,0.08882953,-0.06656846,1.466428,0.08709025,-0.3944356,1.457344,-0.09716636,0.1288047,1.452867,-0.00274292,-0.38374,1.420986,-0.1398785,-0.1274779,1.430553,0.3040952,-0.1441097,1.438627,NA,NA,NotTracked,NotTracked,
0.9208984,0.2226563,0.2631836,0.824707,0.4389648,0.004882813,0,-3,-2,-2,10,18,-1,-4,-5,-1,5,0,4,6,12,10,-10.25,-10.25,-10.25,3.3125,3.3125,3.3125,5.910181,3.113439,0.2484949,7.592159,3.302546,5.994989,-0.1620746,-0.4153799,1.313043,0.3188156,-0.423629,1.326759,0.1131069,0.401139,1.459309,-0.1274922,-0.4317372,1.298179,0.2726496,-0.4373913,1.326358,0.08887224,-0.06664533,1.466726,0.08723938,-0.3947531,1.457651,-0.09715064,0.1287318,1.452359,-0.002612245,-0.3839723,1.421098,-0.1403877,-0.1274523,1.429467,0.3042677,-0.1442243,1.438519,NA,NA,Unknown,NotTracked,
0.9165039,0.1850586,0.2646484,0.840332,0.4614258,-0.008789063,-3,-3,-7,-9,-7,-14,-3,0,8,-1,12,10,16,9,6,5,-7.0625,-7.0625,-7.0625,-7.625,-7.625,-7.625,5.912156,3.108197,0.230789,7.573721,3.310853,6.007056,-0.1609153,-0.4154201,1.311515,0.3186095,-0.4232711,1.324131,0.1133175,0.4011804,1.459466,-0.1208043,-0.4343849,1.307837,0.2747034,-0.4343458,1.345143,0.08894992,-0.06668299,1.466851,0.08742706,-0.3949347,1.457692,-0.09706279,0.1286673,1.451569,-0.002385116,-0.3841801,1.421007,-0.1405273,-0.1274682,1.428009,0.3045854,-0.1442695,1.438274,NA,NA,Unknown,NotTracked,
