ALX,ALY,ALZ,ARX,ARY,ARZ,EMG0L,EMG1L,EMG2L,EMG3L,EMG4L,EMG5L,EMG6L,EMG7L,EMG0R,EMG1R,EMG2R,EMG3R,EMG4R,EMG5R,EMG6R,EMG7R,GLX,GLY,GLZ,GRX,GRY,GRZ,ORL,OPL,OYL,ORR,OPR,OYR,LHNX,LHNY,LHNZ,RHNX,RHNY,RHNZ,HX,HY,HZ,LTX,LTY,LTZ,RTX,RTY,RTZ,SpineMidX,SpineMidY,SpineMidZ,SpineBaseX,SpineBaseY,SpineBaseZ,ShoulderLeftX,ShoulderLeftY,ShoulderLeftZ,ShoulderRightX,ShoulderRightY,ShoulderRightZ,ElbowLeftX,ElbowLeftY,ElbowLeftZ,ElbowRightX,ElbowRightY,ElbowRightZ,Myo_Pose_left,Myo_Pose_Right,Kinect_pose_left,Kinect_pose_right
0.9228516,0.28125,0.2841797,0.8837891,0.4443359,0.0703125,-1,-1,0,-1,0,2,-2,-2,-3,0,-1,-2,-2,0,0,2,0.75,0.75,0.75,0.1875,0.1875,0.1875,6.195032,3.122595,1.503432,7.327297,3.222224,9.003935,-0.1658838,-0.4325508,1.367555,0.2790188,-0.4391682,1.337132,0.09182341,0.3970109,1.462203,-0.1228404,-0.4316012,1.34935,0.3097629,-0.4414043,1.303606,0.06573512,-0.07233345,1.471407,0.06448656,-0.399882,1.45027,-0.0965146,0.1241389,1.468053,-0.02414949,-0.3877746,1.417831,-0.1699929,-0.1238279,1.470184,0.2937238,-0.1482165,1.450783,NA,NA,NotTracked,NotTracked,
0.9160156,0.2617188,0.2910156,0.8681641,0.4189453,0.07324219,-1,-3,-2,1,2,3,-1,1,-1,-4,-2,0,0,-2,-2,4,-2.375,-2.375,-2.375,6.375,6.375,6.375,6.197621,3.10732,1.492098,7.331527,3.208038,9.003147,-0.1665362,-0.4333985,1.368499,0.2796688,-0.440666,1.33955,0.0923906,0.3974284,1.461216,-0.1202666,-0.415485,1.376921,0.3080502,-0.4410793,1.304005,0.06599941,-0.07223114,1.4718,0.06499832,-0.3998153,1.452677,-0.09628459,0.1242947,1.467855,-0.02366478,-0.3877078,1.420574,-0.1694523,-0.1237238,1.470502,0.2938015,-0.1481849,1.451338,NA,NA,NotTracked,NotTracked,
0.90625,0.2661133,0.2861328,0.8598633,0.4384766,0.07080078,-1,-1,-2,2,0,0,1,0,1,-3,-6,-2,0,-1,-1,0,-2.5625,-2.5625,-2.5625,4.5625,4.5625,4.5625,6.203159,3.098744,1.482598,7.344845,3.199129,8.999178,-0.1691114,-0.4265242,1.369635,0.2798181,-0.4398156,1.342798,0.09265988,0.3979161,1.459977,-0.123785,-0.4122992,1.383,0.3233423,-0.4309618,1.346842,0.06637592,-0.07210434,1.472357,0.06561884,-0.3996466,1.455405,-0.0961696,0.124427,1.467601,-0.02309016,-0.3875914,1.424068,-0.1688814,-0.1237003,1.470599,0.2939937,-0.1481251,1.451955,NA,NA,NotTracked,NotTracked,
0.9194336,0.2509766,0.2885742,0.8959961,0.409668,0.05859375,0,-1,0,1,5,1,-1,-1,-2,-2,1,-1,2,1,-2,-2,-3.25,-3.25,-3.25,4.6875,4.6875,4.6875,6.20056,3.097605,1.474319,7.346883,3.193683,9.000068,-0.1677416,-0.4313031,1.368429,0.2794697,-0.4401549,1.344205,0.09277651,0.3982922,1.458452,-0.1217484,-0.4171185,1.379808,0.3071625,-0.447464,1.310778,0.06652971,-0.07200588,1.472925,0.06574946,-0.3996043,1.458201,-0.09604147,0.1245419,1.467329,-0.02310073,-0.3874875,1.426867,-0.1684312,-0.1236512,1.470692,0.2939824,-0.1481278,1.452437,NA,NA,NotTracked,NotTracked,
0.9287109,0.2709961,0.2753906,0.8847656,0.4272461,0.05224609,0,-1,0,-1,0,1,0,-2,5,1,1,1,-2,-1,-1,6,-3.75,-3.75,-3.75,1.3125,1.3125,1.3125,6.203562,3.100855,1.467575,7.346518,3.197381,9.009078,-0.1687074,-0.4336278,1.367027,0.2785692,-0.4399514,1.345131,0.09277222,0.3983753,1.456884,-0.122666,-0.4179098,1.381759,0.3122235,-0.4444913,1.319968,0.06667055,-0.07194301,1.47371,0.06572337,-0.3995093,1.460518,-0.09598429,0.1246441,1.467117,-0.02319282,-0.3872989,1.429335,-0.1680578,-0.1236324,1.470625,0.2940332,-0.1480647,1.452863,NA,NA,NotTracked,NotTracked,
0.9179688,0.2519531,0.2670898,0.8613281,0.3999023,0.05712891,-1,-2,-1,-1,6,4,0,-1,-3,-1,-6,-1,-2,-2,1,1,-4.9375,-4.9375,-4.9375,3.3125,3.3125,3.3125,6.199171,3.105561,1.462499,7.331703,3.201322,9.025646,-0.1690644,-0.4356195,1.364868,0.2766811,-0.4386557,1.345163,0.09260654,0.3984567,1.455825,-0.1219662,-0.4205825,1.379138,0.3209402,-0.4349527,1.345731,0.06676082,-0.07192925,1.474293,0.06578397,-0.3995804,1.461793,-0.09596319,0.1247066,1.466987,-0.02320904,-0.3874942,1.4308,-0.1678841,-0.1236069,1.4706,0.2939963,-0.1480598,1.453203,NA,NA,NotTracked,NotTracked,
0.918457,0.2617188,0.2519531,0.8525391,0.4169922,0.08789063,1,1,2,-12,-10,-3,1,2,3,4,7,0,8,21,21,16,-2.4375,-2.4375,-2.4375,10,10,10,6.203061,3.111554,1.454723,7.344594,3.210414,9.033754,-0.1692424,-0.4356329,1.363835,0.2760593,-0.437908,1.345122,0.09241782,0.3983499,1.455516,-0.1261633,-0.4330014,1.340008,0.3212849,-0.4365471,1.34406,0.06682986,-0.07195617,1.474784,0.06585216,-0.3996713,1.462458,-0.09594505,0.1247664,1.466938,-0.02316326,-0.3876444,1.431543,-0.1677067,-0.1235812,1.4707,0.2939892,-0.1480367,1.45366,NA,NA,NotTracked,NotTracked,
0.9169922,0.2670898,0.1723633,1.050293,0.4296875,0.0234375,10,-2,-3,-2,-6,-11,-8,4,-6,-11,-54,-35,4,15,33,3,-38.125,-38.125,-38.125,32.6875,32.6875,32.6875,6.204505,3.10584,1.418259,7.393008,3.216516,9.019521,-0.1683445,-0.4309629,1.362472,0.2762615,-0.4354115,1.34418,0.09224901,0.3983213,1.455428,-0.12213,-0.426022,1.369663,0.3075495,-0.4399267,1.309403,0.06680085,-0.071941,1.475291,0.06568864,-0.3996873,1.4632,-0.09591883,0.1248093,1.46692,-0.02338924,-0.3876172,1.432411,-0.1673011,-0.1236381,1.470818,0.2940115,-0.1480148,1.453712,NA,NA,NotTracked,NotTracked,
1.230469,0.3637695,0.3984375,1.53125,0.800293,0.1079102,-12,-7,-11,-5,-13,-4,-12,-20,-4,-14,-17,1,21,23,41,20,-98.625,-98.625,-98.625,-30.6875,-30.6875,-30.6875,6.131826,3.123985,1.365667,7.257496,3.35756,9.174997,-0.1681984,-0.4169175,1.358021,0.2744483,-0.417283,1.337479,0.09215937,0.398332,1.455415,-0.128924,-0.4028036,1.365269,0.2955821,-0.4254724,1.287195,0.06684401,-0.07194646,1.475571,0.06570515,-0.3997222,1.463446,-0.09590166,0.1248366,1.466891,-0.02343674,-0.3877829,1.432662,-0.167,-0.1235067,1.472665,0.2945859,-0.1478431,1.454938,NA,NA,NotTracked,NotTracked,
1.652344,0.5766602,0.5004883,1.303223,0.9794922,0.5273438,11,15,15,5,2,37,15,-13,4,3,42,30,60,3,26,33,-51,-51,-51,-8.25,-8.25,-8.25,6.079846,3.348389,1.267532,6.894597,3.901574,9.571043,-0.1542729,-0.3608379,1.334525,0.2392002,-0.3538956,1.329009,0.0920957,0.3983415,1.455437,-0.1136929,-0.3712235,1.352389,0.2708821,-0.3692829,1.251833,0.06692447,-0.07183341,1.475584,0.06581272,-0.3993956,1.463401,-0.0959025,0.1249456,1.466902,-0.02332929,-0.3873887,1.432502,-0.1716394,-0.1197505,1.488705,0.3016751,-0.1433716,1.468819,NA,NA,NotTracked,NotTracked,
1.675293,0.6474609,0.793457,0.2490234,0.9394531,0.2265625,34,16,0,-6,-7,-16,-9,-8,-8,-8,-11,-2,-6,15,13,-16,-34.625,-34.625,-34.625,-104.5,-104.5,-104.5,6.047099,3.638439,1.251777,6.793348,4.493304,9.641389,-0.1342661,-0.2620563,1.313396,0.224558,-0.2374993,1.294224,0.09185665,0.3984211,1.454659,-0.1047358,-0.2645402,1.277126,0.1791061,-0.2671213,1.3298,0.06722698,-0.0716347,1.475253,0.06663933,-0.3988226,1.462984,-0.09592555,0.1251861,1.467043,-0.02257885,-0.3874101,1.431839,-0.1738602,-0.0987427,1.513039,0.3074532,-0.1085126,1.489136,NA,NA,Unknown,Unknown,
0.08740234,0.1074219,0.5239258,-0.2524414,0.02099609,0.03320313,13,1,2,4,22,14,3,15,0,12,5,15,12,-2,-13,-28,-20.0625,-20.0625,-20.0625,-6.375,-6.375,-6.375,5.992878,4.524755,1.262216,6.612045,5.140447,9.648422,-0.1296811,-0.1626171,1.286157,0.2143283,-0.1376099,1.257948,0.09156334,0.3983693,1.451912,-0.09043836,-0.1590763,1.281231,0.1734218,-0.1507941,1.283313,0.06759863,-0.07098792,1.474964,0.06792285,-0.3966149,1.463289,-0.09583203,0.1262843,1.467303,-0.02152683,-0.3861243,1.431842,-0.1730438,-0.07591334,1.52122,0.3035042,-0.07868675,1.480621,NA,NA,Closed,Unknown,
-0.2539063,0.02685547,0.3349609,-0.4067383,0.5170898,0.140625,9,-5,-6,-12,-12,-16,-2,1,1,-3,-11,-5,-10,-8,-17,37,-70.0625,-70.0625,-70.0625,14.875,14.875,14.875,5.890279,5.016846,1.217182,6.673906,5.406125,9.693693,-0.1226384,-0.0998088,1.269294,0.1922157,-0.06641933,1.295928,0.0909574,0.3980615,1.449014,-0.1207459,-0.0663129,1.245415,0.1564846,-0.1045723,1.330554,0.06785397,-0.0707181,1.474734,0.06834947,-0.3960958,1.463443,-0.09579758,0.1273433,1.467411,-0.02113776,-0.3857779,1.432026,-0.1761764,-0.05622874,1.511772,0.3663817,-0.09576838,1.486066,NA,NA,Closed,Closed,
-0.2783203,0.1938477,0.5439453,-0.2363281,0.5449219,0.4243164,-25,5,19,8,-4,-1,-6,-10,10,11,-2,-8,-7,-6,5,32,-26.3125,-26.3125,-26.3125,14.6875,14.6875,14.6875,5.791208,5.170175,1.161465,6.686438,5.438974,9.746881,-0.1291559,-0.08089472,1.269464,0.189873,-0.05515349,1.293158,0.09079073,0.3980651,1.447979,-0.1667816,-0.0682831,1.261038,0.1531717,-0.09449393,1.327936,0.0680166,-0.07061736,1.474778,0.0686016,-0.395903,1.463848,-0.09568959,0.1280659,1.467599,-0.0208398,-0.3856735,1.432446,-0.2323423,-0.01973583,1.535456,0.3725999,-0.1059501,1.487758,NA,NA,Closed,Closed,
-0.09277344,0.5371094,0.7207031,-0.1298828,1.01123,0.5932617,17,5,-1,-1,-12,23,7,20,-5,-13,-8,-14,-13,-11,-29,-33,-5.6875,-5.6875,-5.6875,20.5,20.5,20.5,5.787863,5.172948,1.14196,6.73541,5.381369,9.771832,-0.1301599,-0.08706792,1.262581,0.1898941,-0.06005555,1.287555,0.09075404,0.3980525,1.447913,-0.1709902,-0.08811557,1.257435,0.1676173,-0.019258,1.328576,0.06831017,-0.07044513,1.474821,0.0691094,-0.395585,1.464209,-0.09562057,0.1284934,1.467655,-0.02027835,-0.3853567,1.432813,-0.2343001,-0.02201081,1.534707,0.3277996,-0.08507777,1.442318,NA,NA,Closed,Closed,
0.1079102,0.6713867,0.9638672,-0.2646484,0.8745117,0.5341797,6,11,27,24,20,6,7,0,-5,-2,-1,-14,-1,9,2,-29,-0.25,-0.25,-0.25,-8,-8,-8,5.799056,5.127779,1.15423,6.719099,5.356032,9.778258,-0.1286564,-0.08814991,1.261818,0.1941339,-0.06358986,1.279648,0.09076335,0.398076,1.447899,-0.1300707,-0.05679612,1.236751,0.1554317,-0.08401781,1.329187,0.06854662,-0.07033246,1.474861,0.06932271,-0.3954522,1.464411,-0.0955685,0.1287756,1.467697,-0.02004154,-0.385258,1.433051,-0.2051215,-0.04099943,1.509144,0.3792681,-0.1045972,1.468996,NA,NA,Closed,Closed,
-0.121582,0.5073242,0.8227539,-0.2338867,0.7573242,0.4506836,14,1,-10,-7,-11,-6,-5,-5,11,15,6,14,8,10,5,17,12.6875,12.6875,12.6875,-5.25,-5.25,-5.25,5.827089,5.134427,1.154354,6.701877,5.366607,9.765389,-0.1246973,-0.08735157,1.263247,0.1904236,-0.06171822,1.281876,0.09079167,0.3981063,1.447915,-0.1229207,-0.05521293,1.238919,0.1518322,-0.08480532,1.326416,0.06878462,-0.07020352,1.474844,0.06954329,-0.395327,1.464478,-0.09544751,0.1289401,1.467663,-0.01981631,-0.3851213,1.433086,-0.2266807,-0.04074765,1.527024,0.3277982,-0.08433839,1.438737,NA,NA,Closed,Closed,
-0.1308594,0.4248047,0.8432617,-0.175293,0.8681641,0.5136719,-7,-5,-4,-7,-14,-11,-12,-14,4,27,19,9,5,-5,-14,-14,18.9375,18.9375,18.9375,-0.375,-0.375,-0.375,5.845414,5.128747,1.149239,6.695,5.342029,9.75556,-0.1198702,-0.09409579,1.264181,0.1902538,-0.06599094,1.279681,0.090912,0.3980655,1.447718,-0.1523578,-0.08016542,1.248517,0.1512762,-0.08855886,1.323782,0.06895017,-0.07012704,1.474793,0.06967869,-0.3952569,1.464451,-0.09533744,0.1290415,1.467599,-0.01967115,-0.3850659,1.433079,-0.2327372,-0.03759746,1.527479,0.3277527,-0.0843691,1.438721,NA,NA,Closed,Closed,
-0.02880859,0.4970703,0.9301758,-0.2006836,0.8540039,0.4916992,15,14,12,7,-5,7,3,9,5,6,14,8,-7,-14,0,2,2.6875,2.6875,2.6875,-7.5625,-7.5625,-7.5625,5.858264,5.094004,1.148196,6.681328,5.296554,9.762102,-0.1195183,-0.1026427,1.265505,0.1909717,-0.07085072,1.278018,0.09103523,0.3980999,1.447437,-0.1091942,-0.1352149,1.265,0.1516574,-0.08829107,1.324627,0.06908452,-0.07003716,1.474724,0.06978731,-0.3951351,1.4644,-0.09522846,0.1292212,1.467574,-0.01954934,-0.3848769,1.433012,-0.2314161,-0.03967192,1.530393,0.3274405,-0.08390877,1.4392,NA,NA,Closed,Closed,
-0.04980469,0.5249023,0.8706055,-0.159668,0.8417969,0.4780273,3,5,6,4,7,1,3,8,16,48,46,13,-8,4,-11,-17,1.5,1.5,1.5,-1.125,-1.125,-1.125,5.868464,5.049337,1.149903,6.676333,5.253773,9.76441,-0.119763,-0.1066841,1.266135,0.1890055,-0.0786355,1.278374,0.09124013,0.3980575,1.447104,-0.09096278,-0.09159285,1.224667,0.1578938,-0.04922483,1.325024,0.06917647,-0.06998593,1.474597,0.06985718,-0.3950795,1.464276,-0.09517233,0.1293223,1.467538,-0.01945421,-0.3848184,1.432909,-0.2278194,-0.04007677,1.533122,0.3270508,-0.08332606,1.44021,NA,NA,Closed,Closed,
-0.1142578,0.3491211,0.7285156,-0.2109375,0.6694336,0.3950195,-2,-3,0,-3,-5,-5,-6,-1,-6,-1,1,6,4,-3,-1,-6,0.9375,0.9375,0.9375,-9.875,-9.875,-9.875,5.863037,5.010815,1.14901,6.661063,5.189863,9.763021,-0.1212566,-0.1200024,1.267122,0.1902891,-0.09000179,1.278861,0.09140076,0.3979641,1.446619,-0.04148686,-0.07402302,1.346,0.1580695,-0.05861,1.326403,0.0693187,-0.06986261,1.474383,0.07004169,-0.3949321,1.463917,-0.09516157,0.1293868,1.467471,-0.01927387,-0.3847543,1.432557,-0.2209201,-0.0461427,1.537264,0.3759764,-0.08649026,1.474662,NA,NA,Closed,Closed,
-0.09521484,0.2954102,0.5771484,-0.1552734,0.3969727,0.21875,17,3,0,-8,1,10,12,11,6,15,6,4,9,9,11,6,4.6875,4.6875,4.6875,5.8125,5.8125,5.8125,5.869746,4.903113,1.151484,6.663851,4.963168,9.758383,-0.1236288,-0.1553645,1.263939,0.1863718,-0.1228406,1.28191,0.09146832,0.3980295,1.446508,-0.08324806,-0.1729071,1.273072,0.1449202,-0.08909127,1.319677,0.06949765,-0.06958553,1.474098,0.07033382,-0.3944228,1.463422,-0.09515572,0.1294711,1.467397,-0.01894823,-0.3842387,1.431861,-0.1864815,-0.0638412,1.514926,0.3198827,-0.07589187,1.452786,NA,NA,Closed,Closed,
-0.1147461,0.2319336,0.4150391,-0.07617188,0.3798828,0.28125,-3,-3,-4,-4,-2,18,-1,-4,56,71,23,11,-3,1,2,-3,5.375,5.375,5.375,35.625,35.625,35.625,5.882239,4.576722,1.156987,6.707114,4.602585,9.754735,-0.126263,-0.2172788,1.273884,0.1970231,-0.1905833,1.274756,0.09161262,0.3981672,1.446541,-0.05741835,-0.2188492,1.34388,0.1730882,-0.2436699,1.3008,0.0695902,-0.06939898,1.473885,0.07038123,-0.3940449,1.462766,-0.09517462,0.1294449,1.467347,-0.01882606,-0.383927,1.431053,-0.1827771,-0.07333498,1.511736,0.3109368,-0.09305592,1.46488,NA,NA,Closed,Closed,
0.2270508,0.6494141,0.6005859,0.9213867,1.288574,0.4467773,-1,-4,-7,8,-1,-21,-7,-16,-19,3,1,-1,6,4,2,-18,14.25,14.25,14.25,66.1875,66.1875,66.1875,5.901372,4.178036,1.16442,6.868165,4.162538,9.712786,-0.1357581,-0.3122827,1.283875,0.2127214,-0.2831306,1.275741,0.09194399,0.3983115,1.447176,-0.09749287,-0.3827057,1.315833,0.1980984,-0.3617427,1.303,0.0695743,-0.06962309,1.473403,0.06985423,-0.3953514,1.460402,-0.09519032,0.1292572,1.467278,-0.01924015,-0.3852608,1.42901,-0.1801737,-0.09191826,1.500526,0.3110283,-0.1013776,1.467342,NA,NA,Unknown,Closed,
0.6464844,0.3598633,0.6611328,1.558105,0.8608398,0.1875,-2,1,-3,-21,-6,-6,5,20,-3,1,3,-1,6,14,1,-2,-19.0625,-19.0625,-19.0625,51.875,51.875,51.875,5.869003,3.767252,1.14573,7.035703,3.643242,9.643213,-0.1505728,-0.3914719,1.302758,0.2342332,-0.3845691,1.271465,0.09233958,0.3980955,1.449231,-0.1970428,-0.3978973,1.277412,0.193307,-0.373073,1.293,0.06912275,-0.07013253,1.47295,0.0680033,-0.3972186,1.457904,-0.09515441,0.1283265,1.46674,-0.02139736,-0.3862337,1.426496,-0.1747963,-0.1147884,1.476339,0.3020628,-0.1293151,1.453108,NA,NA,Unknown,Unknown,
1.785156,0.4106445,0.5556641,1.267578,0.7021484,0.09521484,1,2,4,5,1,44,7,19,-8,6,1,2,3,11,0,-6,82.1875,82.1875,82.1875,-18.5,-18.5,-18.5,5.869583,3.212831,1.325186,7.149352,3.448663,9.53669,-0.1711848,-0.4610314,1.326222,0.2469785,-0.4401211,1.289662,0.09266712,0.3978249,1.452266,-0.2133618,-0.4567738,1.30871,0.2022733,-0.4044389,1.300261,0.06837284,-0.07132968,1.4729,0.06578935,-0.4005687,1.457129,-0.09486984,0.1269901,1.465499,-0.02335418,-0.3889526,1.425846,-0.1582058,-0.1248005,1.447285,0.2956802,-0.1415068,1.441874,NA,NA,Unknown,Unknown,
1.313477,0.07226563,0.2480469,0.8955078,0.4902344,0.1123047,-3,-3,-1,-8,-5,1,6,25,-7,-6,-1,-6,-3,0,2,8,48.6875,48.6875,48.6875,-16.875,-16.875,-16.875,5.831405,3.007232,1.493275,7.139093,3.400705,9.51402,-0.1696754,-0.451557,1.34627,0.2484156,-0.4465511,1.293017,0.09289831,0.3979992,1.454498,-0.2163086,-0.4454967,1.336767,0.2023415,-0.4053875,1.301625,0.06766558,-0.07196857,1.472926,0.06449602,-0.4019367,1.457003,-0.09478006,0.1260621,1.464296,-0.0245503,-0.3898379,1.425337,-0.1551532,-0.1264444,1.442046,0.2933837,-0.1455956,1.438359,NA,NA,Open,Unknown,
1.000488,0.1699219,0.3066406,0.6938477,0.5126953,0.1254883,-2,-1,-4,-8,-14,-5,-6,-2,1,9,1,1,-3,1,-1,1,8.3125,8.3125,8.3125,-8.5,-8.5,-8.5,5.927135,3.048497,1.429633,7.137845,3.416351,9.523342,-0.1663831,-0.4501202,1.338003,0.2488319,-0.4443163,1.291949,0.09297549,0.3981933,1.455231,-0.2112666,-0.4328588,1.3412,0.2001191,-0.4025941,1.302875,0.0672041,-0.07226612,1.47283,0.06363211,-0.4023864,1.456913,-0.09492096,0.1258092,1.463813,-0.02531595,-0.3900554,1.425066,-0.1559887,-0.1265427,1.44312,0.2928747,-0.1461421,1.438346,NA,NA,Unknown,Unknown,
0.8603516,0.3066406,0.3999023,0.7617188,0.4897461,0.1806641,0,0,0,-1,-1,-1,-3,-8,0,-5,-2,-6,-3,-1,1,4,-24.25,-24.25,-24.25,-10.125,-10.125,-10.125,6.023767,3.168437,1.30955,7.12246,3.408739,9.499421,-0.1637128,-0.4467816,1.329092,0.2499399,-0.4446398,1.293125,0.09298228,0.3983375,1.455445,-0.2116367,-0.4476415,1.319324,0.1999913,-0.4036132,1.301769,0.06684136,-0.07256455,1.47272,0.06312569,-0.402894,1.456727,-0.09508263,0.1256352,1.463544,-0.02589322,-0.3908185,1.424933,-0.1596837,-0.1258002,1.447808,0.2922998,-0.1476139,1.438841,NA,NA,Unknown,Unknown,
0.75,0.331543,0.3105469,0.8139648,0.5405273,0.1669922,0,-2,-3,-12,-20,-5,-1,3,4,-2,-2,-2,-2,2,2,8,28.25,28.25,28.25,-22.875,-22.875,-22.875,6.030696,3.221261,1.326563,7.143401,3.390146,9.450901,-0.1643315,-0.4410707,1.332068,0.2529782,-0.4478188,1.29756,0.09299544,0.3983555,1.455561,-0.2103811,-0.4326431,1.329319,0.201928,-0.4070977,1.305729,0.06668837,-0.07286289,1.472651,0.06306608,-0.4034229,1.456641,-0.0951612,0.1255755,1.463422,-0.02596579,-0.3915303,1.424612,-0.1615335,-0.1253512,1.449733,0.2922144,-0.1478101,1.439834,NA,NA,Unknown,Unknown,
0.8925781,0.2426758,0.3139648,0.8383789,0.5263672,0.1230469,-2,-1,1,-6,-4,0,-3,-4,14,10,2,1,0,3,4,24,1.5625,1.5625,1.5625,11.125,11.125,11.125,6.007741,3.190657,1.369675,7.163245,3.361184,9.413006,-0.1672201,-0.4422497,1.335958,0.257139,-0.4514615,1.299966,0.09295467,0.3983064,1.455595,-0.2111957,-0.4316133,1.33194,0.2059836,-0.4115648,1.311334,0.06654144,-0.07312672,1.472529,0.06301378,-0.4037327,1.456407,-0.09532557,0.1254634,1.463186,-0.02607176,-0.3919768,1.42418,-0.1623261,-0.1252837,1.44984,0.2920503,-0.1479277,1.440179,NA,NA,Open,Unknown,
0.9663086,0.2539063,0.3081055,0.8417969,0.5058594,0.1376953,-1,-2,-2,-2,5,-2,-2,2,-14,-7,-4,-2,-3,0,-2,-9,-2.6875,-2.6875,-2.6875,-4.6875,-4.6875,-4.6875,5.974106,3.134815,1.409224,7.180582,3.354667,9.390646,-0.1699906,-0.4404045,1.340291,0.2589908,-0.4564764,1.301329,0.0928508,0.3982613,1.455768,-0.2113231,-0.4274907,1.336157,0.2054652,-0.4168178,1.3111,0.06635416,-0.0733102,1.472483,0.06281087,-0.4039719,1.456231,-0.09546795,0.1253767,1.463081,-0.02627799,-0.3920422,1.423938,-0.1629022,-0.1252499,1.449747,0.2919577,-0.1480635,1.440936,NA,NA,Open,Unknown,
0.9541016,0.2089844,0.3208008,0.8339844,0.5224609,0.1323242,1,-3,-3,3,-6,-2,3,7,-15,-7,-2,-2,-3,1,-3,-3,1.6875,1.6875,1.6875,-9.4375,-9.4375,-9.4375,5.959526,3.121705,1.417763,7.184524,3.356588,9.372092,-0.1704755,-0.4458441,1.33986,0.2601765,-0.4559039,1.299777,0.09265836,0.3982322,1.456092,-0.2129951,-0.4315626,1.334699,0.2041468,-0.4161105,1.308028,0.06608198,-0.07345565,1.472388,0.0624695,-0.4041479,1.45583,-0.0956347,0.1252756,1.463001,-0.02668004,-0.3920045,1.423314,-0.1635919,-0.1252028,1.449744,0.2913557,-0.1482431,1.441528,NA,NA,Unknown,Unknown,
0.9091797,0.2661133,0.3320313,0.8222656,0.4516602,0.1088867,0,0,1,-1,-1,1,1,1,0,-7,-6,0,1,2,0,0,-4.3125,-4.3125,-4.3125,14.25,14.25,14.25,6.000265,3.132383,1.388931,7.18487,3.346641,9.371801,-0.170397,-0.4399211,1.342686,0.2603384,-0.4584899,1.30005,0.09232562,0.3980802,1.456643,-0.2144244,-0.4326979,1.337238,0.2052142,-0.4179747,1.308615,0.0658019,-0.07363222,1.472231,0.06209788,-0.4044076,1.455116,-0.09578466,0.1251881,1.462953,-0.02705811,-0.3920456,1.422382,-0.1642364,-0.1251484,1.449805,0.2910622,-0.1483245,1.441844,NA,NA,NotTracked,Open,
0.887207,0.2290039,0.3295898,0.8520508,0.487793,0.1049805,-1,-1,-3,-11,-11,6,-1,-4,-11,-9,-6,-2,0,0,-4,-11,11.75,11.75,11.75,-2.625,-2.625,-2.625,6.013441,3.142667,1.378655,7.193285,3.335331,9.369267,-0.168516,-0.4456013,1.340483,0.2589879,-0.4594681,1.29969,0.09199644,0.3979428,1.457067,-0.2133318,-0.4314119,1.336853,0.2044147,-0.419605,1.306785,0.06542998,-0.07387316,1.471991,0.06162234,-0.4048252,1.454255,-0.09592766,0.1250881,1.462912,-0.02748954,-0.3925264,1.421592,-0.1646518,-0.1251698,1.449782,0.2904408,-0.1484829,1.441775,NA,NA,NotTracked,Unknown,
0.8886719,0.2543945,0.3227539,0.8647461,0.4936523,0.06982422,-1,-1,-2,-6,-2,-2,-1,-4,-4,-6,-7,-2,0,-1,-2,-2,0.8125,0.8125,0.8125,7.875,7.875,7.875,6.04312,3.151156,1.358208,7.219243,3.323912,9.352266,-0.16639,-0.4490691,1.340121,0.2589788,-0.4604839,1.301246,0.09166948,0.3978015,1.457974,-0.2109086,-0.4301698,1.337795,0.2051144,-0.421062,1.309129,0.06497567,-0.07405519,1.471785,0.06095284,-0.4050739,1.453442,-0.09615944,0.1249687,1.462969,-0.02805847,-0.3927279,1.420704,-0.1649649,-0.1252606,1.449964,0.2895375,-0.1487232,1.441708,NA,NA,NotTracked,Open,
0.9111328,0.2368164,0.3237305,0.8500977,0.4526367,0.08642578,-1,-1,1,-4,-1,-1,-2,-5,-9,1,3,-1,0,1,-2,-1,-2.875,-2.875,-2.875,-15.125,-15.125,-15.125,6.047361,3.152796,1.34869,7.231252,3.313706,9.315961,-0.1662075,-0.4427334,1.341444,0.2584399,-0.4609723,1.303065,0.09131758,0.3976842,1.458912,-0.2138108,-0.4352922,1.337314,0.2048143,-0.4200596,1.310238,0.06460246,-0.07417968,1.471751,0.06040411,-0.4051751,1.452964,-0.09632658,0.1249198,1.463098,-0.02859656,-0.3928135,1.420146,-0.1651027,-0.125316,1.45008,0.2890428,-0.1489159,1.441592,NA,NA,NotTracked,Unknown,
0.918457,0.2270508,0.3217773,0.8417969,0.4765625,0.07128906,-1,-2,0,1,12,4,-3,0,-6,2,2,1,-1,-2,-1,2,-1.5625,-1.5625,-1.5625,-7.25,-7.25,-7.25,6.047676,3.155583,1.343421,7.249921,3.305632,9.280358,-0.1647696,-0.4481512,1.339297,0.2587357,-0.4609982,1.30329,0.09073869,0.3975574,1.460193,-0.2105034,-0.4297911,1.33778,0.2043235,-0.4317584,1.308912,0.064146,-0.07431337,1.471591,0.05970687,-0.405267,1.45203,-0.09653283,0.1248263,1.463233,-0.02913827,-0.3929086,1.419263,-0.1651736,-0.1254432,1.450288,0.2874956,-0.1491833,1.44116,NA,NA,NotTracked,Unknown,
0.9189453,0.2548828,0.3164063,0.8530273,0.4350586,0.06982422,0,-1,-1,0,-8,-2,0,-1,-25,-2,0,1,1,1,1,3,-0.9375,-0.9375,-0.9375,-16.0625,-16.0625,-16.0625,6.059745,3.156608,1.331337,7.265255,3.297271,9.23208,-0.1640068,-0.4465617,1.340675,0.2615102,-0.4625975,1.305008,0.09020003,0.3971584,1.461906,-0.2165448,-0.4076068,1.330857,0.2084964,-0.4478416,1.311697,0.06385872,-0.07442436,1.471546,0.05926192,-0.4053783,1.451289,-0.09670945,0.1247109,1.463433,-0.02943677,-0.3931391,1.418514,-0.1652541,-0.1255827,1.450473,0.28679,-0.1493935,1.441333,NA,NA,NotTracked,Unknown,
0.9111328,0.2094727,0.328125,0.8652344,0.4814453,0.09423828,-3,-2,-2,2,9,4,2,-1,-1,0,0,-1,0,-1,0,2,7.3125,7.3125,7.3125,-5.9375,-5.9375,-5.9375,6.043499,3.157477,1.346976,7.2848,3.288938,9.194105,-0.1625736,-0.4393891,1.342665,0.2624554,-0.4617727,1.306182,0.08976768,0.3968614,1.463684,-0.2087387,-0.4229785,1.338838,0.2085651,-0.4477876,1.310736,0.06360691,-0.0746234,1.471456,0.05897745,-0.4057741,1.450475,-0.09689579,0.1245497,1.463655,-0.02961744,-0.3939852,1.417365,-0.1653654,-0.1257599,1.450738,0.2861147,-0.14953,1.441469,NA,NA,NotTracked,Unknown,
0.9174805,0.2602539,0.3310547,0.8647461,0.4511719,0.07910156,-1,-2,0,3,0,-3,-3,1,-18,-3,-1,-1,-2,-3,-4,-5,-8,-8,-8,-7.0625,-7.0625,-7.0625,6.043103,3.156912,1.355512,7.309257,3.283005,9.140925,-0.1622912,-0.4362333,1.344265,0.2656863,-0.4612426,1.309496,0.08941848,0.3966161,1.465842,-0.2086487,-0.422157,1.338209,0.2136419,-0.4600578,1.313479,0.06349058,-0.07470939,1.471401,0.05887997,-0.4058329,1.449745,-0.09706652,0.124421,1.463991,-0.02963877,-0.3942888,1.416536,-0.1654503,-0.1259105,1.450992,0.2856341,-0.1497859,1.441947,NA,NA,NotTracked,Unknown,
0.9257813,0.2602539,0.3134766,0.8789063,0.421875,0.08154297,1,1,-1,-3,-1,-2,1,0,-7,-3,-2,-1,-2,-2,-4,2,2,2,2,0,0,0,6.028415,3.1542,1.367725,7.336382,3.272446,9.099642,-0.1623372,-0.4348607,1.344206,0.2676328,-0.4606534,1.310656,0.08931628,0.396116,1.467125,-0.2115968,-0.4239127,1.338091,0.2168234,-0.4649252,1.311434,0.06334558,-0.07480475,1.471321,0.05858044,-0.4059321,1.448895,-0.09715432,0.1243004,1.464236,-0.02984302,-0.3945524,1.415666,-0.1657487,-0.1259674,1.4513,0.2853909,-0.1498976,1.442145,NA,NA,NotTracked,Unknown,
0.9057617,0.2128906,0.324707,0.8769531,0.4921875,0.06103516,-1,-2,-3,-1,-2,-2,-3,0,5,-2,2,0,1,4,5,-9,-4.375,-4.375,-4.375,-6.375,-6.375,-6.375,6.00635,3.153353,1.381524,7.359035,3.27647,9.071037,-0.1645864,-0.4359834,1.34443,0.2694752,-0.4586418,1.313434,0.08935811,0.3958254,1.467868,-0.2105527,-0.4204397,1.338193,0.2188384,-0.4565031,1.317646,0.06323103,-0.07488909,1.471234,0.05848511,-0.4059052,1.448143,-0.0972878,0.1241366,1.464592,-0.02985181,-0.3945601,1.414835,-0.166305,-0.1259995,1.451967,0.2851185,-0.1501246,1.442216,NA,NA,NotTracked,Unknown,
0.9077148,0.2636719,0.3173828,0.9052734,0.4482422,0.08447266,-2,-2,-2,0,0,-2,-2,0,2,4,0,0,1,-1,2,0,-1.75,-1.75,-1.75,3.8125,3.8125,3.8125,6.007475,3.153626,1.37974,7.354817,3.278391,9.057475,-0.1651786,-0.4335622,1.346548,0.2707736,-0.4567561,1.315177,0.08937962,0.3953697,1.468948,-0.2101891,-0.418889,1.339746,0.2214099,-0.4501239,1.316237,0.06323914,-0.07492039,1.471219,0.058715,-0.4058652,1.447848,-0.09732645,0.1240297,1.464898,-0.02956022,-0.3945757,1.414416,-0.1669842,-0.1259091,1.452725,0.2851993,-0.1502918,1.442474,NA,NA,NotTracked,Unknown,
0.9697266,0.2670898,0.3193359,0.8291016,0.4746094,0.03710938,1,0,0,-2,2,1,-2,0,4,1,1,-1,-1,-1,1,3,-9,-9,-9,6.25,6.25,6.25,6.007046,3.146044,1.369902,7.386072,3.280037,9.038225,-0.165097,-0.4349948,1.349072,0.2724215,-0.4565385,1.317062,0.08961304,0.39464,1.469879,-0.2096059,-0.4178448,1.342064,0.2236587,-0.4425144,1.325686,0.06322227,-0.07498451,1.471227,0.05871996,-0.4058636,1.447801,-0.09731399,0.124083,1.465404,-0.02956004,-0.3945903,1.414339,-0.167233,-0.1257707,1.453521,0.2853232,-0.1503288,1.443056,NA,NA,NotTracked,Unknown,
