ALX,ALY,ALZ,ARX,ARY,ARZ,EMG0L,EMG1L,EMG2L,EMG3L,EMG4L,EMG5L,EMG6L,EMG7L,EMG0R,EMG1R,EMG2R,EMG3R,EMG4R,EMG5R,EMG6R,EMG7R,GLX,GLY,GLZ,GRX,GRY,GRZ,ORL,OPL,OYL,ORR,OPR,OYR,LHNX,LHNY,LHNZ,RHNX,RHNY,RHNZ,HX,HY,HZ,LTX,LTY,LTZ,RTX,RTY,RTZ,SpineMidX,SpineMidY,SpineMidZ,SpineBaseX,SpineBaseY,SpineBaseZ,ShoulderLeftX,ShoulderLeftY,ShoulderLeftZ,ShoulderRightX,ShoulderRightY,ShoulderRightZ,ElbowLeftX,ElbowLeftY,ElbowLeftZ,ElbowRightX,ElbowRightY,ElbowRightZ,Myo_Pose_left,Myo_Pose_Right,Kinect_pose_left,Kinect_pose_right
0.9482422,0.2207031,0.21875,0.9248047,0.2973633,-0.01367188,1,-1,0,-1,0,-1,-1,0,11,3,-2,-1,0,-2,0,-2,-0.75,-0.75,-0.75,-1.375,-1.375,-1.375,6.256169,2.995416,5.37205,7.724161,3.029459,1.981494,-0.1469525,-0.4232321,1.463098,0.3184802,-0.4664263,1.484282,0.1120764,0.3967236,1.522602,-0.194163,-0.4315282,1.477829,0.3540091,-0.4241064,1.487123,0.08324119,-0.05312761,1.531837,0.07695165,-0.3643614,1.516122,-0.09680613,0.1321411,1.52977,-0.002178201,-0.3543736,1.480796,-0.1630478,-0.1405592,1.548969,0.3131332,-0.1598579,1.558388,NA,NA,NotTracked,NotTracked,
0.9453125,0.2241211,0.215332,0.9194336,0.3203125,-0.01513672,1,0,-1,-1,-2,-1,0,-2,-1,1,-3,-4,-2,-1,1,-2,-0.625,-0.625,-0.625,-2.375,-2.375,-2.375,6.256676,2.995352,5.372014,7.724538,3.027034,1.976681,-0.1466266,-0.4230815,1.463536,0.3193514,-0.4669004,1.484532,0.1125944,0.3967287,1.5223,-0.1937469,-0.4266191,1.483473,0.3552063,-0.4253235,1.489292,0.08354741,-0.05310058,1.531936,0.07713062,-0.3642973,1.516321,-0.09638795,0.1323179,1.529909,-0.001972934,-0.3542935,1.481059,-0.1627818,-0.1402028,1.549292,0.3133505,-0.1597841,1.558503,NA,NA,NotTracked,NotTracked,
0.9394531,0.2158203,0.2265625,0.9125977,0.309082,-0.01318359,-1,-1,-1,0,-3,-3,-1,0,-14,-2,-1,0,-1,-1,-2,-5,-1.625,-1.625,-1.625,-0.4375,-0.4375,-0.4375,6.250448,2.993564,5.373616,7.720854,3.025763,1.978011,-0.1468774,-0.4232501,1.464122,0.3199194,-0.466758,1.485123,0.1130804,0.3965749,1.52212,-0.1922318,-0.4368432,1.4809,0.3553275,-0.433341,1.492169,0.08386765,-0.05311365,1.531934,0.07727665,-0.3642592,1.516455,-0.09579486,0.1325642,1.529724,-0.001807395,-0.3542232,1.48123,-0.1624813,-0.1399406,1.549495,0.3135531,-0.15989,1.558687,NA,NA,NotTracked,NotTracked,
0.9438477,0.2202148,0.2250977,0.9223633,0.3154297,-0.015625,-1,-2,-1,1,-1,0,-1,0,-7,-1,-1,-2,-3,0,-2,0,-2.625,-2.625,-2.625,-0.5,-0.5,-0.5,6.247148,2.994012,5.374557,7.716395,3.025933,1.981617,-0.1470985,-0.4235567,1.463325,0.3187375,-0.4672878,1.4841,0.1140005,0.3962497,1.521578,-0.19193,-0.4291313,1.478209,0.3508238,-0.4491254,1.473167,0.08411428,-0.05311969,1.532015,0.07742301,-0.3642485,1.516672,-0.09523236,0.1326577,1.529528,-0.001669483,-0.3541766,1.481497,-0.162382,-0.1399279,1.549482,0.3137449,-0.1599374,1.558759,NA,NA,NotTracked,NotTracked,
0.9433594,0.2231445,0.2255859,0.9248047,0.3012695,-0.01660156,-1,-1,0,-1,-1,1,-3,-3,-6,-3,0,0,0,0,0,-3,-1.8125,-1.8125,-1.8125,0.9375,0.9375,0.9375,6.243711,2.992851,5.374935,7.712981,3.02365,1.983408,-0.1469374,-0.4246331,1.464892,0.319563,-0.4685769,1.485517,0.1145912,0.3962357,1.521384,-0.1948738,-0.4219188,1.485316,0.3557184,-0.4324127,1.493,0.084534,-0.05313705,1.532161,0.07765957,-0.3641752,1.51704,-0.09470663,0.1328045,1.529657,-0.001411137,-0.3540887,1.481967,-0.1621645,-0.1400209,1.549678,0.313924,-0.159865,1.558869,NA,NA,NotTracked,NotTracked,
0.9423828,0.2241211,0.2260742,0.921875,0.3022461,-0.0078125,-4,0,0,0,-2,-2,-2,-2,-6,-1,-1,-1,-4,-1,-1,-1,-2.5625,-2.5625,-2.5625,0.3125,0.3125,0.3125,6.235987,2.992047,5.376823,7.710612,3.023362,1.986625,-0.1468002,-0.4234947,1.463997,0.3189892,-0.4682297,1.485127,0.1152768,0.3960492,1.521166,-0.1937087,-0.4275705,1.483781,0.3536702,-0.4473616,1.483009,0.08495477,-0.0531113,1.532292,0.07786551,-0.3641329,1.51726,-0.09402139,0.1327811,1.529379,-0.001236783,-0.3540542,1.482128,-0.1620106,-0.1398786,1.549771,0.3140658,-0.159903,1.558957,NA,NA,NotTracked,NotTracked,
0.9423828,0.2167969,0.2333984,0.9980469,0.3388672,-0.002929688,-1,-1,0,0,-1,-1,0,-3,3,6,3,2,0,0,0,0,-1.625,-1.625,-1.625,4.6875,4.6875,4.6875,6.229096,2.99126,5.379237,7.67683,3.025344,2.024143,-0.1468822,-0.4244285,1.465464,0.3177423,-0.4682727,1.485418,0.1160956,0.3961298,1.521345,-0.196257,-0.4133641,1.488294,0.3563428,-0.4129121,1.4954,0.08528087,-0.05306706,1.532602,0.07817242,-0.3640565,1.517835,-0.09353983,0.1330476,1.529599,-0.0009468988,-0.3539593,1.482628,-0.161927,-0.1398102,1.549893,0.3146209,-0.1600234,1.559444,NA,NA,NotTracked,NotTracked,
0.9423828,0.2202148,0.2275391,1.128906,0.659668,0.03125,-1,-1,-3,0,-1,0,0,-1,0,-13,-12,-10,-4,0,-2,0,-0.5625,-0.5625,-0.5625,-57.75,-57.75,-57.75,6.221292,2.99128,5.384621,7.484119,3.080085,2.180853,-0.147152,-0.4243594,1.464027,0.3162916,-0.4656903,1.477773,0.1166069,0.3961314,1.521325,-0.1945977,-0.423378,1.485319,0.3535907,-0.4206276,1.483449,0.085609,-0.05302819,1.532644,0.07834018,-0.3640226,1.517919,-0.09314697,0.1330743,1.52938,-0.0007713421,-0.3539179,1.482666,-0.1618058,-0.1395419,1.549934,0.3150005,-0.1598008,1.559907,NA,NA,NotTracked,NotTracked,
0.9394531,0.2148438,0.2250977,1.257813,1.072754,0.5498047,0,-2,-2,0,-1,-2,-1,-1,-3,17,66,45,13,3,-1,-10,2.25,2.25,2.25,-34,-34,-34,6.216714,2.995515,5.389467,6.899339,3.363498,2.705092,-0.1469555,-0.423378,1.463842,0.3136013,-0.4375493,1.452718,0.1167488,0.3961694,1.521349,-0.1937484,-0.4242661,1.482549,0.3360979,-0.3988816,1.427205,0.08570383,-0.05295274,1.532765,0.07837798,-0.3639681,1.518079,-0.09287481,0.1330619,1.529162,-0.0007464936,-0.3538568,1.48285,-0.16174,-0.1389975,1.54986,0.3168692,-0.158993,1.561909,NA,NA,NotTracked,NotTracked,
0.90625,0.2460938,0.2167969,1.104004,1.056641,0.8432617,2,-1,-1,0,0,-1,1,-2,2,-14,14,2,-4,-2,-2,-1,2.9375,2.9375,2.9375,-25.8125,-25.8125,-25.8125,6.242662,3.005531,5.3739,6.608405,3.879097,2.998112,-0.1474718,-0.4206962,1.463641,0.3277708,-0.3948038,1.358924,0.1167989,0.3962086,1.521551,-0.1929394,-0.4304121,1.480459,0.309644,-0.4079464,1.283,0.08575709,-0.0527813,1.532989,0.07846384,-0.363654,1.518573,-0.09284103,0.1331228,1.529209,-0.0007038916,-0.3536063,1.483091,-0.1616851,-0.1389338,1.549938,0.3199006,-0.1523803,1.564368,NA,NA,NotTracked,Unknown,
0.9160156,0.2363281,0.2353516,0.5571289,1.055176,0.7871094,-1,0,-1,0,0,-1,-3,-2,4,28,33,13,5,5,5,-2,-10.75,-10.75,-10.75,9.375,9.375,9.375,6.254599,3.003412,5.348092,6.545345,4.611953,3.15727,-0.1468932,-0.4207108,1.463042,0.3205519,-0.231829,1.266778,0.1167393,0.3961212,1.521545,-0.193328,-0.4324959,1.481497,0.2735652,-0.2207231,1.213667,0.08565665,-0.05265348,1.533061,0.07826272,-0.3632552,1.518615,-0.09280775,0.1332378,1.529054,-0.0009267462,-0.353189,1.483029,-0.1614846,-0.1388222,1.549821,0.3164485,-0.1137106,1.566832,NA,NA,NotTracked,Unknown,
0.9682617,0.2475586,0.2548828,-0.2290039,0.5136719,0.4428711,-1,-1,-2,-3,-1,1,-2,0,11,-4,-46,-20,-2,2,2,5,-16.6875,-16.6875,-16.6875,23,23,23,6.249644,2.999602,5.326458,6.582938,5.71127,3.321136,-0.146439,-0.419981,1.462519,0.3160683,-0.01373224,1.231136,0.1166437,0.3956701,1.521707,-0.1933076,-0.417756,1.481672,0.291387,0.01495646,1.228867,0.08532017,-0.05273298,1.533605,0.07805981,-0.3632308,1.518709,-0.09285171,0.1330891,1.528892,-0.001161908,-0.3531474,1.482985,-0.1596766,-0.1351419,1.5476,0.318264,-0.1148059,1.534325,NA,NA,NotTracked,Unknown,
0.9521484,0.2177734,0.2441406,-0.5263672,0.4799805,0.4863281,-1,-1,-1,0,-2,-1,-5,0,-12,-2,0,-2,-9,-16,2,-5,-17.5,-17.5,-17.5,81.0625,81.0625,81.0625,6.244486,3.009756,5.290347,6.833199,6.387056,3.534173,-0.146818,-0.4201333,1.459313,0.3031779,0.1700998,1.251819,0.1166592,0.3947594,1.522414,-0.1931886,-0.4292789,1.481876,0.2716987,0.1783489,1.261346,0.08518001,-0.05310025,1.534905,0.0778459,-0.3633254,1.518829,-0.09280539,0.1328811,1.528895,-0.00143602,-0.3531936,1.482859,-0.159899,-0.1354018,1.547164,0.3583245,-0.07965984,1.429831,NA,NA,NotTracked,Unknown,
0.9501953,0.190918,0.2060547,-0.4868164,0.4755859,0.3334961,0,-3,-1,-2,0,0,0,0,35,1,-4,-1,-2,-3,-6,4,-12.6875,-12.6875,-12.6875,22.75,22.75,22.75,6.240365,3.028096,5.268425,7.291537,6.828543,3.980189,-0.1467957,-0.4183908,1.454786,0.2842367,0.2938606,1.296029,0.1171192,0.3932446,1.523167,-0.1905557,-0.4369892,1.472294,0.2516418,0.2913493,1.3264,0.08485556,-0.05330675,1.536166,0.07752835,-0.3632811,1.518774,-0.09224259,0.1325082,1.52889,-0.002049763,-0.3530478,1.48269,-0.1605747,-0.1356897,1.546146,0.3763157,0.008908586,1.343904,NA,NA,NotTracked,Open,
0.9311523,0.2104492,0.1894531,-0.3994141,0.2133789,0.2456055,-1,0,-1,-1,-1,0,-1,0,2,-6,-6,0,2,-1,1,10,0.5625,0.5625,0.5625,-19.4375,-19.4375,-19.4375,6.252474,3.044488,5.251159,8.073062,7.015696,4.835048,-0.145291,-0.4181803,1.450764,0.2610332,0.3389508,1.340846,0.1176676,0.391732,1.523922,-0.1953561,-0.4080898,1.481294,0.2373233,0.3215724,1.397956,0.08451359,-0.05314004,1.536469,0.07663517,-0.3622932,1.518216,-0.08510251,0.1325556,1.532657,-0.003305874,-0.3519244,1.482373,-0.160952,-0.1358851,1.545095,0.3717742,0.036886,1.327009,NA,NA,NotTracked,Open,
0.9301758,0.2265625,0.1928711,-0.3461914,0.1391602,0.002441406,-1,-2,-1,-1,0,-1,-2,-1,7,2,-4,-5,-9,-25,-2,-4,1.5,1.5,1.5,11.6875,11.6875,11.6875,6.294012,3.055572,5.220451,8.943953,6.978743,5.745946,-0.1432921,-0.4177096,1.451413,0.199216,0.395679,1.403158,0.1191718,0.3909487,1.523896,-0.1950424,-0.3917187,1.480286,0.1767846,0.3504476,1.442628,0.0841148,-0.05255245,1.536722,0.07613582,-0.3610969,1.517653,-0.08066769,0.1324259,1.532626,-0.004114088,-0.3506777,1.482167,-0.1610959,-0.1358122,1.544757,0.3636689,0.1389742,1.301744,NA,NA,NotTracked,Unknown,
0.9399414,0.1865234,0.2460938,-0.675293,0.07958984,-1.038086,0,-1,-2,0,0,1,-1,1,-11,-2,-8,-24,-18,-6,-5,-15,7.25,7.25,7.25,-21.625,-21.625,-21.625,6.293569,3.042362,5.227693,9.349749,6.773714,6.203183,-0.1424694,-0.4169881,1.453562,0.1888582,0.3726072,1.405026,0.1198426,0.3907971,1.523057,-0.1866791,-0.4303871,1.472782,0.1647084,0.3159358,1.435827,0.08390917,-0.05191277,1.536759,0.07608515,-0.3596688,1.5169,-0.07841123,0.1317222,1.532237,-0.004467553,-0.3493122,1.481934,-0.160848,-0.134562,1.544412,0.3595472,0.1519363,1.298411,NA,NA,NotTracked,Unknown,
0.9345703,0.2319336,0.2758789,-0.9848633,0.2143555,-0.1630859,-1,-2,-1,-1,-1,-2,0,-2,-9,-3,4,12,14,2,2,0,17,17,17,31.125,31.125,31.125,6.294626,3.034543,5.251242,9.279615,6.848673,6.10253,-0.1428403,-0.4175767,1.455843,0.1936978,0.3785388,1.403081,0.1194016,0.3910839,1.522723,-0.1849859,-0.4350024,1.4686,0.1506985,0.3158632,1.429429,0.08348049,-0.05126509,1.536646,0.07561079,-0.3583112,1.51606,-0.07770211,0.1313817,1.532665,-0.005142999,-0.3481218,1.48155,-0.160947,-0.1334397,1.544574,0.3574604,0.1588517,1.29663,NA,NA,NotTracked,Unknown,
0.9472656,0.2788086,0.2407227,-1.066406,0.046875,-0.1533203,0,-2,-3,0,-2,-1,0,0,-22,7,-4,-3,-4,-7,-9,-3,10.0625,10.0625,10.0625,-24.375,-24.375,-24.375,6.305778,3.048048,5.267075,9.138424,6.916181,5.977455,-0.1435749,-0.4176307,1.455928,0.1943596,0.3958928,1.395999,0.118061,0.3917367,1.522795,-0.187714,-0.4256072,1.473235,0.1828307,0.3550963,1.417531,0.08303677,-0.05069347,1.536572,0.07535058,-0.3573703,1.515481,-0.07833518,0.1313335,1.532785,-0.005396077,-0.3476397,1.481429,-0.161252,-0.1340147,1.545429,0.3570102,0.1607966,1.295945,NA,NA,NotTracked,Open,
0.9355469,0.3071289,0.2353516,-1.095215,0.1728516,-0.1293945,-2,-1,0,0,-4,-1,-2,-2,14,8,2,2,4,4,-2,1,6.4375,6.4375,6.4375,-29.125,-29.125,-29.125,6.319193,3.053502,5.268928,9.069337,6.927347,5.954947,-0.1443706,-0.4172901,1.457939,0.1697778,0.4073761,1.410058,0.1163995,0.3920755,1.523223,-0.1885361,-0.433812,1.472145,0.1813849,0.3621411,1.432091,0.08268755,-0.05024689,1.536463,0.07515815,-0.356766,1.514994,-0.07868718,0.1311807,1.533058,-0.00558915,-0.3473306,1.481356,-0.1616917,-0.1348366,1.546718,0.356296,0.1611129,1.295177,NA,NA,NotTracked,Unknown,
0.921875,0.2797852,0.2666016,-0.9174805,0.2680664,-0.4892578,-1,-1,-3,-1,-1,0,-1,1,10,4,3,10,7,4,0,-7,-7.875,-7.875,-7.875,-11.4375,-11.4375,-11.4375,6.310193,3.044678,5.2713,9.142827,6.821825,6.066986,-0.1447756,-0.4174238,1.459895,0.1580862,0.405388,1.406934,0.1155428,0.3923461,1.522872,-0.1928685,-0.4074212,1.47629,0.1571811,0.3521531,1.422927,0.08245438,-0.04972753,1.536411,0.07469692,-0.3561122,1.514822,-0.07817015,0.1311874,1.534275,-0.006415376,-0.3463003,1.481302,-0.1621283,-0.1341468,1.547687,0.3527174,0.1615186,1.293295,NA,NA,NotTracked,Unknown,
0.9287109,0.2827148,0.2568359,-0.6958008,-0.0234375,-0.2802734,-2,-2,-2,-2,-2,0,-1,-1,2,-18,-17,-8,-6,-4,0,-5,-6.375,-6.375,-6.375,25.625,25.625,25.625,6.302186,3.040924,5.269985,9.213332,6.83811,6.104476,-0.1462911,-0.4190668,1.460616,0.1836767,0.3773584,1.398753,0.1153371,0.392408,1.522321,-0.1910034,-0.4239402,1.47534,0.1327687,0.3162983,1.417607,0.08217529,-0.04933687,1.536541,0.0746404,-0.3556184,1.514852,-0.07788514,0.1312065,1.53512,-0.006740008,-0.345616,1.481392,-0.1623658,-0.1338428,1.548047,0.3506393,0.1622925,1.292342,NA,NA,NotTracked,Unknown,
0.9277344,0.2255859,0.2250977,-0.8618164,0.2470703,-0.3198242,-1,-1,-3,-1,0,0,0,0,1,1,0,1,-2,0,4,-5,-3.6875,-3.6875,-3.6875,-3.1875,-3.1875,-3.1875,6.29403,3.049284,5.268575,9.171665,6.848416,6.004501,-0.1468767,-0.4195248,1.457317,0.1731498,0.410396,1.399541,0.1156821,0.3929394,1.521059,-0.1944,-0.4298525,1.483572,0.1142137,0.3569817,1.406269,0.08200428,-0.04896099,1.536425,0.07453196,-0.3552979,1.51468,-0.07773391,0.1311786,1.534784,-0.006914453,-0.3452689,1.481301,-0.1626337,-0.1336071,1.548186,0.350372,0.1622976,1.291855,NA,NA,NotTracked,Unknown,
0.9179688,0.2407227,0.2026367,-0.8085938,0.1264648,-0.3774414,0,-1,-1,-2,-1,0,-2,-4,9,0,-2,2,0,1,2,17,3.0625,3.0625,3.0625,-14.6875,-14.6875,-14.6875,6.306597,3.0533,5.259329,9.074628,6.870336,5.925974,-0.1470338,-0.4187708,1.456485,0.1929848,0.3761249,1.394873,0.1157561,0.3930744,1.520524,-0.1908538,-0.4333039,1.471066,0.1423357,0.3155642,1.419621,0.08181824,-0.04885979,1.536422,0.07438057,-0.355174,1.514698,-0.07766991,0.1311157,1.534224,-0.007108932,-0.345093,1.481391,-0.1632081,-0.1329526,1.548256,0.3507079,0.1622241,1.291804,NA,NA,NotTracked,Unknown,
0.9370117,0.2177734,0.2353516,-0.675293,0.2983398,-0.1699219,-1,-2,-3,-3,-1,0,-3,-2,-2,-1,-2,-1,-2,0,0,3,-2,-2,-2,13.625,13.625,13.625,6.304955,3.040297,5.25823,8.841691,6.922591,5.616375,-0.1472496,-0.4188274,1.457431,0.1774074,0.4020432,1.407067,0.1156299,0.3931507,1.520308,-0.1918639,-0.4361694,1.475118,0.1723371,0.3626411,1.431426,0.08156186,-0.04875465,1.536363,0.07411131,-0.3551061,1.514565,-0.07785659,0.1310923,1.53295,-0.007382301,-0.3450109,1.481281,-0.1640586,-0.1332712,1.547955,0.3549515,0.1569979,1.29322,NA,NA,NotTracked,Unknown,
0.9477539,0.2338867,0.2392578,-0.6396484,0.2641602,-0.03515625,-1,-1,0,0,-1,-3,-2,-2,6,3,1,-1,1,0,-1,-11,5.8125,5.8125,5.8125,-30,-30,-30,6.300575,3.031622,5.268635,8.369877,6.915888,5.146074,-0.1474843,-0.4190655,1.458457,0.215375,0.361058,1.375836,0.1142167,0.3930339,1.520777,-0.1925128,-0.4343206,1.476202,0.158826,0.3167601,1.429432,0.0812373,-0.04893883,1.536367,0.07373594,-0.3555342,1.514621,-0.07790814,0.1310394,1.532003,-0.007644887,-0.3453762,1.481099,-0.1647156,-0.1343479,1.547851,0.3676108,0.1276501,1.299477,NA,NA,NotTracked,Open,
0.9248047,0.2651367,0.2143555,-0.6713867,0.3798828,0.1357422,-2,0,-1,-2,-2,-3,-3,0,6,2,-1,0,0,0,0,2,9.375,9.375,9.375,-32.5625,-32.5625,-32.5625,6.315231,3.029185,5.268171,7.606245,6.753425,4.385515,-0.147755,-0.4204781,1.45824,0.2418373,0.313118,1.338146,0.1093626,0.3931337,1.521877,-0.1928249,-0.4298339,1.475341,0.2255927,0.2738329,1.41092,0.08088319,-0.04917236,1.536371,0.07361616,-0.3559251,1.514658,-0.08204561,0.1300292,1.531286,-0.007806527,-0.3459036,1.480741,-0.1651413,-0.1353679,1.547526,0.3828052,0.0631675,1.321951,NA,NA,NotTracked,Open,
0.9238281,0.2456055,0.2231445,-0.6142578,0.4702148,0.2739258,0,-1,-2,-2,-1,1,-2,-2,13,1,0,-1,-2,-1,0,3,7.5,7.5,7.5,-66.9375,-66.9375,-66.9375,6.328517,3.027686,5.266298,7.127375,6.429821,3.934228,-0.1479874,-0.4191374,1.459339,0.2526467,0.2434971,1.300055,0.1046205,0.3942598,1.522521,-0.1925205,-0.4374261,1.473,0.23072,0.2628691,1.304095,0.08028494,-0.04924762,1.536307,0.07338098,-0.3559818,1.514729,-0.09296283,0.1298602,1.531584,-0.00797413,-0.3460108,1.480736,-0.165954,-0.1383512,1.547595,0.3822188,-0.03067989,1.390846,NA,NA,NotTracked,Unknown,
0.9697266,0.265625,0.2119141,-0.7617188,0.6918945,0.4394531,-3,-2,0,-1,0,-1,-2,-2,-3,-1,0,-2,-3,-1,-1,-1,9.125,9.125,9.125,-85,-85,-85,6.338396,3.027544,5.27225,6.795417,5.942398,3.639084,-0.1473379,-0.4253555,1.456214,0.2670932,0.122151,1.275103,0.1009288,0.3953746,1.522939,-0.1918394,-0.434193,1.470516,0.2589876,0.1659646,1.263727,0.07877749,-0.05023283,1.535682,0.07233053,-0.3582053,1.514997,-0.09848313,0.1293624,1.532224,-0.008702056,-0.3487209,1.480794,-0.1660774,-0.1405706,1.547622,0.3603094,-0.08115203,1.4501,NA,NA,NotTracked,Unknown,
0.9570313,0.2573242,0.2094727,-0.4907227,0.6264648,0.3867188,0,-1,-1,-1,-3,-1,-1,-1,-1,0,-1,-2,-3,1,-2,-3,7.0625,7.0625,7.0625,-32.625,-32.625,-32.625,6.344051,3.024606,5.281412,6.595407,5.335939,3.419233,-0.1474799,-0.4264877,1.457892,0.288553,-0.03591287,1.29515,0.0981131,0.3965234,1.522839,-0.1957657,-0.4202086,1.476741,0.2516918,-0.01289501,1.267692,0.07801461,-0.05057433,1.534574,0.07218458,-0.3587484,1.514969,-0.1014795,0.1289822,1.532244,-0.008667348,-0.3496394,1.480819,-0.1659971,-0.1427928,1.547527,0.3439749,-0.1427207,1.540646,NA,NA,NotTracked,Unknown,
0.9248047,0.2719727,0.2412109,0.6918945,0.9692383,0.8046875,-1,-2,-3,-3,-3,-2,-3,-1,0,-1,0,0,0,5,-1,-1,2.8125,2.8125,2.8125,7.4375,7.4375,7.4375,6.348275,3.019031,5.288804,6.568706,4.439261,3.204624,-0.1474155,-0.4262151,1.457683,0.2891093,-0.179416,1.275274,0.09603532,0.3974662,1.52256,-0.1923015,-0.4432248,1.472632,0.2648076,-0.154106,1.26625,0.07714778,-0.05073634,1.533026,0.07187577,-0.359122,1.514772,-0.1029902,0.1288794,1.531678,-0.008780707,-0.350093,1.48066,-0.1656576,-0.1434361,1.547239,0.3452156,-0.08830379,1.573633,NA,NA,NotTracked,Unknown,
0.9233398,0.2592773,0.2485352,1.491699,0.9667969,0.4799805,0,-1,-2,-4,-1,-1,0,0,-1,-2,-1,1,3,-2,-1,0,-4.0625,-4.0625,-4.0625,-0.75,-0.75,-0.75,6.340619,3.01369,5.290115,6.716786,3.634811,2.953372,-0.1474602,-0.4264303,1.457335,0.3080308,-0.3266207,1.332646,0.09519435,0.3978601,1.522285,-0.1918389,-0.4433135,1.47098,0.3213198,-0.2995031,1.295488,0.07680984,-0.05079263,1.531825,0.07189846,-0.3593223,1.514666,-0.1037099,0.1289422,1.530958,-0.008581712,-0.3504266,1.480473,-0.165777,-0.1441765,1.546695,0.3193425,-0.1107875,1.571553,NA,NA,NotTracked,Lasso,
0.9438477,0.2661133,0.2436523,1.472168,0.7265625,0.2797852,-1,-2,-1,-1,-2,-3,-8,-3,-1,-2,-1,1,-1,0,0,0,-10.125,-10.125,-10.125,-25.3125,-25.3125,-25.3125,6.34025,3.013693,5.276417,7.1101,3.213996,2.487952,-0.1472747,-0.4259773,1.455022,0.3279596,-0.4252451,1.414961,0.09490331,0.39791,1.521787,-0.1929801,-0.4368935,1.473897,0.3378115,-0.4173992,1.376766,0.07683674,-0.0510719,1.530941,0.07235094,-0.3600228,1.514445,-0.1041664,0.1286522,1.529783,-0.007851209,-0.3513018,1.480096,-0.1657079,-0.1454262,1.545543,0.3189923,-0.1412911,1.568044,NA,NA,NotTracked,NotTracked,
0.9819336,0.2470703,0.2246094,1.325195,0.5224609,0.2167969,-2,-1,0,-1,-2,-2,0,-1,0,-1,-3,-1,-3,-1,-1,-2,-17.625,-17.625,-17.625,-5.3125,-5.3125,-5.3125,6.331693,3.01967,5.250522,7.647441,3.007851,1.876204,-0.1478655,-0.4257502,1.452809,0.3270565,-0.4551893,1.482751,0.09505126,0.3978642,1.521324,-0.1994538,-0.4052417,1.47731,0.3634329,-0.459967,1.462471,0.07707684,-0.05140675,1.530389,0.07302153,-0.3609526,1.514108,-0.1041099,0.1286108,1.527871,-0.00698159,-0.3521792,1.479517,-0.1657212,-0.1465217,1.54387,0.3179393,-0.1509601,1.569006,NA,NA,NotTracked,NotTracked,
0.9355469,0.1972656,0.2138672,1.603027,0.7104492,0.2719727,0,-2,0,-3,-3,-2,-1,0,0,1,2,0,-1,-1,0,1,-11.5625,-11.5625,-11.5625,33.9375,33.9375,33.9375,6.300966,3.022037,5.246569,7.813629,2.934937,1.74064,-0.1469712,-0.4247514,1.449004,0.3237186,-0.4650001,1.517228,0.09656043,0.3976005,1.520419,-0.1964816,-0.4229626,1.4752,0.3550341,-0.4595756,1.515818,0.07769082,-0.05189567,1.529673,0.07406216,-0.3619794,1.513801,-0.1038609,0.1286192,1.525994,-0.005668194,-0.3531865,1.478744,-0.1655892,-0.1466495,1.541738,0.3165291,-0.1565006,1.572482,NA,NA,NotTracked,NotTracked,
0.9042969,0.2016602,0.2050781,0.2924805,0.3652344,-0.4472656,-1,-2,-2,-1,0,-1,-2,-1,-3,-3,-1,-3,-2,-5,-3,-1,-7.625,-7.625,-7.625,-3.125,-3.125,-3.125,6.281611,3.022581,5.250229,7.818001,2.944717,1.77554,-0.1481866,-0.4235188,1.447302,0.317229,-0.4645257,1.528733,0.09959846,0.3970999,1.519094,-0.195577,-0.4304018,1.466116,0.33678,-0.4670216,1.540167,0.07909257,-0.05235805,1.529085,0.07564151,-0.3625742,1.513809,-0.1029035,0.1291349,1.523991,-0.003912386,-0.3537916,1.478212,-0.1659133,-0.1455315,1.539696,0.3154053,-0.1580244,1.578166,NA,NA,NotTracked,NotTracked,
0.9145508,0.2685547,0.1992188,1.545898,0.3955078,0.4282227,-1,1,0,0,0,-2,-1,0,1,-1,0,2,-2,-4,-1,0,-8.75,-8.75,-8.75,-68.125,-68.125,-68.125,6.283868,3.013832,5.238228,7.546277,2.945834,1.95543,-0.1479095,-0.4230359,1.446743,0.3134473,-0.4641025,1.528213,0.103362,0.3964619,1.517546,-0.1953485,-0.4282752,1.470388,0.3197155,-0.4876579,1.535647,0.08000669,-0.05251478,1.528842,0.07734512,-0.3630418,1.514199,-0.1012767,0.1294215,1.521406,-0.002106635,-0.3542239,1.478099,-0.165891,-0.1441043,1.537779,0.3144549,-0.1579368,1.582852,NA,NA,NotTracked,NotTracked,
0.9443359,0.234375,0.2275391,0.9501953,0.1376953,0.3198242,-4,-1,-1,-3,0,-2,-2,-1,4,-2,-2,1,-2,-2,2,0,-17,-17,-17,24.8125,24.8125,24.8125,6.270455,3.003281,5.234768,7.511312,2.943972,1.978214,-0.1482448,-0.4235913,1.446882,0.3111123,-0.4636159,1.523922,0.1069986,0.3956791,1.51638,-0.1950166,-0.4335324,1.468508,0.3335762,-0.4532493,1.526643,0.08098855,-0.05279392,1.528622,0.07865915,-0.36334,1.514411,-0.10051,0.1295911,1.519714,-0.0006878546,-0.3545203,1.477831,-0.1661265,-0.1434094,1.535818,0.3134433,-0.1578114,1.585235,NA,NA,NotTracked,NotTracked,
0.949707,0.2231445,0.2192383,0.472168,0.3251953,-0.5883789,0,0,-2,-2,0,-1,1,0,0,0,0,-3,-2,-4,0,0,-2.3125,-2.3125,-2.3125,30.75,30.75,30.75,6.273674,2.997735,5.211099,7.628721,2.956773,1.92749,-0.1478692,-0.422759,1.445568,0.3083766,-0.4636332,1.520666,0.1097026,0.3950532,1.515494,-0.1955574,-0.4282693,1.469594,0.3266833,-0.472071,1.52035,0.08175715,-0.05299592,1.528484,0.07988168,-0.3636729,1.514517,-0.09950167,0.1297998,1.518164,0.0006189234,-0.3547752,1.477411,-0.1662442,-0.1411168,1.533869,0.3124825,-0.1573461,1.585674,NA,NA,NotTracked,NotTracked,
0.9360352,0.2138672,0.2163086,0.9257813,0.3183594,-0.046875,-1,-2,-2,-1,0,-2,-2,-1,-1,-1,0,-1,0,0,1,0,-4.125,-4.125,-4.125,-10.4375,-10.4375,-10.4375,6.287263,3.00338,5.190861,7.619026,2.964208,1.931129,-0.1473217,-0.4223823,1.443941,0.3091544,-0.4649023,1.519642,0.1118137,0.3945809,1.514817,-0.1947838,-0.4315636,1.468255,0.3189956,-0.4862057,1.5276,0.08266634,-0.05330758,1.528156,0.0809494,-0.3640043,1.514489,-0.09888235,0.130055,1.516795,0.001773416,-0.3550717,1.476965,-0.1665368,-0.1405264,1.53274,0.3120767,-0.1574847,1.585749,NA,NA,NotTracked,NotTracked,
0.9399414,0.2138672,0.2133789,0.9423828,0.2358398,0.01806641,0,-1,-1,-2,-1,-1,0,-2,1,-1,-2,-1,0,-1,-2,-1,-0.8125,-0.8125,-0.8125,-7.6875,-7.6875,-7.6875,6.279811,3.001986,5.193831,7.622626,2.965427,1.907575,-0.1472205,-0.422891,1.445637,0.3106524,-0.4653625,1.5221,0.1125874,0.3944791,1.514793,-0.1922334,-0.4366991,1.457789,0.3412508,-0.473406,1.510333,0.08304688,-0.05343477,1.528253,0.08164877,-0.3642645,1.514695,-0.09852069,0.1300472,1.516354,0.002405298,-0.3552657,1.476963,-0.1665617,-0.1407745,1.532412,0.3118441,-0.1575162,1.586058,NA,NA,NotTracked,NotTracked,
0.9448242,0.2329102,0.2094727,0.9174805,0.3134766,0.004882813,-1,-1,-1,-1,-1,-3,-10,-4,-1,-1,-1,-1,-2,-1,1,-2,1.5,1.5,1.5,6.625,6.625,6.625,6.28155,2.997605,5.195896,7.606596,2.97257,1.934936,-0.1470775,-0.4227527,1.445007,0.3112968,-0.4657414,1.520297,0.1129504,0.3943684,1.514694,-0.192565,-0.4386653,1.46372,0.2993135,-0.5107391,1.552572,0.08341765,-0.05353906,1.528297,0.08223623,-0.3644434,1.514785,-0.09841291,0.1300253,1.516147,0.002990266,-0.3554493,1.476891,-0.1666097,-0.1406893,1.532091,0.3117233,-0.1574888,1.586286,NA,NA,NotTracked,NotTracked,
0.9477539,0.2197266,0.2216797,0.9350586,0.2553711,-0.01171875,-1,-1,-1,-2,-2,0,-1,0,-2,-2,1,0,-3,-1,0,-1,-0.9375,-0.9375,-0.9375,4.875,4.875,4.875,6.285141,2.99604,5.190325,7.592841,2.974963,1.954445,-0.1464784,-0.4232527,1.446132,0.3110448,-0.4650113,1.518677,0.1130352,0.3943319,1.514779,-0.1928459,-0.4323051,1.464653,0.3215146,-0.4774635,1.534417,0.08359712,-0.05357726,1.52839,0.08248894,-0.3645219,1.514929,-0.09834246,0.1299983,1.516048,0.00322691,-0.355534,1.476939,-0.1665334,-0.1407551,1.532028,0.3116805,-0.1574549,1.586347,NA,NA,NotTracked,NotTracked,
0.9550781,0.2246094,0.2314453,0.9267578,0.3095703,-0.04736328,0,0,0,0,-1,0,1,0,-2,-2,0,-2,0,0,-1,0,1.375,1.375,1.375,13.5625,13.5625,13.5625,6.286873,2.996192,5.191067,7.6089,2.979465,1.962678,-0.1465138,-0.4204897,1.446652,0.3107593,-0.4657091,1.516755,0.1130761,0.3943202,1.514799,-0.1928007,-0.4357161,1.464409,0.3206099,-0.4908415,1.531733,0.08370731,-0.05359611,1.528415,0.08276029,-0.3645771,1.514937,-0.09831008,0.1299573,1.515901,0.003517746,-0.3555798,1.476888,-0.1663234,-0.1415589,1.531595,0.3115883,-0.1573499,1.586241,NA,NA,NotTracked,NotTracked,
0.9487305,0.2285156,0.2275391,0.9213867,0.2890625,-0.02392578,1,-2,-2,-1,-3,0,-2,0,-8,-3,-4,-3,0,-3,-4,-3,3.0625,3.0625,3.0625,-0.9375,-0.9375,-0.9375,6.286886,2.997777,5.19446,7.62643,2.981827,1.94987,-0.1467523,-0.4208946,1.448079,0.3108501,-0.4647095,1.516878,0.1130526,0.3944301,1.514982,-0.1968839,-0.4008361,1.470393,0.3218111,-0.4720194,1.539727,0.0838782,-0.05356371,1.528512,0.08301283,-0.3645481,1.515056,-0.09828748,0.129955,1.515982,0.003768238,-0.3556038,1.476992,-0.166268,-0.1415341,1.531557,0.311579,-0.157327,1.586104,NA,NA,NotTracked,NotTracked,
0.9365234,0.2353516,0.2197266,0.9262695,0.2910156,0.002441406,-2,-2,-2,-1,-1,-1,-2,-2,0,-3,-2,-3,0,2,2,1,0.6875,0.6875,0.6875,2.5,2.5,2.5,6.285408,3.000446,5.200199,7.640658,2.981658,1.93872,-0.1463361,-0.4202509,1.44805,0.311038,-0.4644496,1.515183,0.1130094,0.3945464,1.515231,-0.1929627,-0.4272475,1.466595,0.3153399,-0.49704,1.538,0.0841243,-0.05351873,1.528659,0.0831175,-0.3645648,1.515108,-0.09818983,0.1299337,1.516189,0.003880023,-0.355619,1.477066,-0.1661072,-0.1414576,1.531704,0.3116196,-0.1571595,1.585871,NA,NA,NotTracked,NotTracked,
