ALX,ALY,ALZ,ARX,ARY,ARZ,EMG0L,EMG1L,EMG2L,EMG3L,EMG4L,EMG5L,EMG6L,EMG7L,EMG0R,EMG1R,EMG2R,EMG3R,EMG4R,EMG5R,EMG6R,EMG7R,GLX,GLY,GLZ,GRX,GRY,GRZ,ORL,OPL,OYL,ORR,OPR,OYR,LHNX,LHNY,LHNZ,RHNX,RHNY,RHNZ,HX,HY,HZ,LTX,LTY,LTZ,RTX,RTY,RTZ,SpineMidX,SpineMidY,SpineMidZ,SpineBaseX,SpineBaseY,SpineBaseZ,ShoulderLeftX,ShoulderLeftY,ShoulderLeftZ,ShoulderRightX,ShoulderRightY,ShoulderRightZ,ElbowLeftX,ElbowLeftY,ElbowLeftZ,ElbowRightX,ElbowRightY,ElbowRightZ,Myo_Pose_left,Myo_Pose_Right,Kinect_pose_left,Kinect_pose_right
0.9458008,0.2089844,0.2075195,0.9116211,0.3046875,-0.07226563,-2,1,-2,-5,-2,0,0,1,-1,-1,0,0,-1,0,0,0,-0.9375,-0.9375,-0.9375,2.25,2.25,2.25,6.290772,2.967685,4.740411,7.968184,3.045233,0.9431269,-0.1569814,-0.4291411,1.447886,0.3146513,-0.4660924,1.492726,0.104353,0.3992541,1.510592,-0.2109395,-0.4120338,1.477474,0.2618247,-0.4590585,1.448178,0.06993033,-0.04995146,1.518132,0.06589302,-0.3620961,1.501349,-0.109521,0.1329396,1.513154,-0.01320301,-0.3530933,1.465131,-0.1764101,-0.1415887,1.532276,0.3021848,-0.1592748,1.553249,NA,NA,NotTracked,NotTracked,
0.9462891,0.2114258,0.2050781,0.918457,0.3188477,-0.06201172,1,-1,-1,0,-1,-1,-1,-3,1,1,0,2,2,1,0,1,-1.125,-1.125,-1.125,-3,-3,-3,6.290284,2.968092,4.739501,7.962078,3.046961,0.9471719,-0.1570151,-0.4273475,1.447316,0.3144596,-0.4663104,1.49192,0.1049517,0.399326,1.510585,-0.2077022,-0.4239283,1.471076,0.2593362,-0.4891841,1.450833,0.0702063,-0.04986238,1.518026,0.06606229,-0.3620482,1.501437,-0.1092248,0.133131,1.513035,-0.01306769,-0.3530433,1.465159,-0.1762663,-0.1414184,1.532206,0.3023303,-0.1590347,1.553472,NA,NA,NotTracked,NotTracked,
0.9477539,0.2148438,0.203125,0.9135742,0.3208008,-0.06640625,-1,-1,-1,-1,-1,-2,0,-1,0,0,-1,0,-1,-1,0,0,-0.5,-0.5,-0.5,2.0625,2.0625,2.0625,6.289934,2.968215,4.73992,7.960347,3.047128,0.9481541,-0.1562382,-0.4277371,1.44776,0.3141305,-0.4658497,1.492095,0.1054474,0.39937,1.51053,-0.2097727,-0.4072065,1.475428,0.2620865,-0.4583603,1.450954,0.07042559,-0.04978345,1.518011,0.06619001,-0.362022,1.501562,-0.1090276,0.1332075,1.513009,-0.01295637,-0.3529974,1.465305,-0.1761186,-0.1413778,1.532062,0.3025409,-0.1590753,1.553726,NA,NA,NotTracked,NotTracked,
0.9511719,0.2109375,0.2084961,0.9111328,0.3222656,-0.06201172,0,-1,1,-1,-1,-2,0,-3,-1,1,0,-5,-3,1,-1,-3,-0.25,-0.25,-0.25,-0.25,-0.25,-0.25,6.289447,2.96862,4.73901,7.955686,3.048894,0.9528472,-0.155821,-0.4265811,1.448141,0.3151287,-0.4663349,1.492857,0.1061966,0.3993857,1.510819,-0.204074,-0.4326164,1.466526,0.2606694,-0.4510575,1.453583,0.07066825,-0.04970872,1.518041,0.06636718,-0.3619563,1.501677,-0.1086824,0.133262,1.512927,-0.01281179,-0.3529172,1.46538,-0.1760153,-0.1414781,1.531974,0.302787,-0.1592053,1.553879,NA,NA,NotTracked,NotTracked,
0.9467773,0.21875,0.2099609,0.9150391,0.3115234,-0.07568359,0,0,-2,-2,-2,-2,0,-2,0,0,-1,-3,0,-1,-1,0,0.6875,0.6875,0.6875,2.75,2.75,2.75,6.290067,2.9691,4.738946,7.956276,3.050207,0.9529009,-0.1561979,-0.4278682,1.446997,0.3158788,-0.4656208,1.491317,0.1065391,0.3993739,1.510913,-0.2043121,-0.4341799,1.464215,0.2610037,-0.4622331,1.451339,0.07095729,-0.04967663,1.517976,0.06649269,-0.3619449,1.501661,-0.1082939,0.1332943,1.512705,-0.01269649,-0.3528756,1.465358,-0.175842,-0.1413092,1.531776,0.3029342,-0.1592213,1.553898,NA,NA,NotTracked,NotTracked,
0.9501953,0.2104492,0.2109375,0.9150391,0.3203125,-0.06445313,-2,-2,-1,0,-2,-2,-4,-1,-1,0,1,1,0,-1,-1,0,-2.375,-2.375,-2.375,0.5,0.5,0.5,6.28831,2.969043,4.738906,7.951664,3.05063,0.9602026,-0.1559553,-0.427639,1.446806,0.3155111,-0.4657717,1.489806,0.106845,0.3995305,1.511122,-0.2051978,-0.4275113,1.466948,0.2618105,-0.460163,1.449988,0.07141072,-0.04953955,1.517864,0.06702907,-0.3618324,1.501726,-0.1080146,0.1333431,1.512483,-0.01212385,-0.3527921,1.465384,-0.1753937,-0.1410723,1.531551,0.3032922,-0.1590717,1.553807,NA,NA,NotTracked,NotTracked,
0.9501953,0.2172852,0.2138672,0.9082031,0.3286133,-0.06445313,-1,-1,1,-2,-2,0,-1,0,-1,0,-4,-1,0,-2,0,-2,-2.5625,-2.5625,-2.5625,5.8125,5.8125,5.8125,6.285323,2.968615,4.73931,7.953255,3.049488,0.9676632,-0.1557833,-0.4275973,1.448307,0.3163589,-0.4658006,1.490682,0.1070556,0.3996065,1.511255,-0.208267,-0.413598,1.474625,0.2626484,-0.4573302,1.450464,0.07171188,-0.04942767,1.517876,0.06739081,-0.3617821,1.501867,-0.1077464,0.133419,1.512324,-0.01174076,-0.3527337,1.46546,-0.1751453,-0.1409314,1.531459,0.3037206,-0.1591314,1.553792,NA,NA,NotTracked,NotTracked,
0.9492188,0.2148438,0.2094727,0.9199219,0.3017578,-0.0859375,-1,-1,0,-1,-2,-2,-1,0,0,0,3,2,0,-1,0,1,-3,-3,-3,-3.3125,-3.3125,-3.3125,6.279154,2.968683,4.741274,7.954132,3.049119,0.9615663,-0.1555434,-0.4269225,1.446991,0.3182168,-0.4656454,1.490354,0.1073088,0.3996642,1.511337,-0.2048264,-0.4314967,1.469808,0.2632254,-0.4556014,1.453886,0.07185426,-0.04933637,1.517716,0.06741666,-0.361739,1.50178,-0.1074151,0.1334426,1.512143,-0.0117165,-0.3526535,1.465342,-0.1750504,-0.1411426,1.531257,0.3040347,-0.1591039,1.553603,NA,NA,NotTracked,NotTracked,
0.9472656,0.2172852,0.2021484,0.9194336,0.3251953,-0.08056641,1,-1,0,1,0,0,0,0,-1,1,1,-3,-4,-3,-1,-2,0.625,0.625,0.625,1.6875,1.6875,1.6875,6.277885,2.968534,4.741742,7.96203,3.048239,0.9569942,-0.1556085,-0.4278589,1.447168,0.318804,-0.4654488,1.489585,0.1075073,0.3997727,1.511438,-0.2053555,-0.4278397,1.46805,0.263991,-0.4521523,1.451598,0.07210284,-0.04925469,1.517663,0.06762829,-0.3617303,1.50176,-0.1070792,0.1335379,1.511983,-0.01148702,-0.3526446,1.465324,-0.1748319,-0.1411442,1.531143,0.3043372,-0.1590597,1.553437,NA,NA,NotTracked,NotTracked,
0.9448242,0.2109375,0.2080078,0.9233398,0.3051758,-0.07470703,-1,-1,-2,0,-3,-1,-1,-1,-2,-1,-1,-1,-2,-3,0,-2,-3.4375,-3.4375,-3.4375,1.4375,1.4375,1.4375,6.27591,2.967939,4.740924,7.965502,3.04635,0.9538389,-0.1549939,-0.4265718,1.447753,0.3187477,-0.4662483,1.490133,0.1077214,0.3998186,1.511652,-0.2053033,-0.4342531,1.47009,0.2665645,-0.4629812,1.442598,0.07244438,-0.0492181,1.517614,0.06794324,-0.3617235,1.501805,-0.1065866,0.1336787,1.511882,-0.01113101,-0.3526145,1.465322,-0.1746339,-0.1408144,1.53123,0.3046426,-0.1590163,1.553351,NA,NA,NotTracked,NotTracked,
0.9511719,0.2124023,0.2080078,0.9091797,0.3188477,-0.06982422,0,-1,-3,-2,0,-1,1,0,-1,0,-1,-3,-1,-1,-2,-1,0,0,0,2.75,2.75,2.75,6.271264,2.967487,4.743876,7.968698,3.044583,0.955645,-0.1551975,-0.4274943,1.44752,0.3191643,-0.4653804,1.490018,0.1079103,0.3998711,1.511655,-0.2055946,-0.4240153,1.471153,0.2638074,-0.4565625,1.451427,0.07274307,-0.04917022,1.517517,0.06824841,-0.3616916,1.50178,-0.1061854,0.1338189,1.5116,-0.01079517,-0.3526081,1.465255,-0.1742736,-0.1408829,1.531183,0.3050199,-0.1591536,1.553127,NA,NA,NotTracked,NotTracked,
0.9501953,0.2099609,0.2036133,0.9179688,0.2924805,-0.07128906,-1,-2,-1,0,-1,0,-1,-2,-1,-2,-1,1,-2,-1,-2,-3,-1.3125,-1.3125,-1.3125,-1.125,-1.125,-1.125,6.267158,2.966395,4.746091,7.969015,3.041808,0.9510397,-0.1552928,-0.4275775,1.447565,0.3187624,-0.4649599,1.490641,0.1081179,0.3999126,1.511661,-0.2051277,-0.4293974,1.468434,0.2639277,-0.4568721,1.450816,0.07319955,-0.04907898,1.517436,0.06848326,-0.3616453,1.501799,-0.1056911,0.1339792,1.511408,-0.01055024,-0.3525759,1.465295,-0.1739012,-0.1407625,1.53088,0.3054227,-0.159524,1.552796,NA,NA,NotTracked,NotTracked,
0.9458008,0.2055664,0.2104492,0.9174805,0.3081055,-0.07080078,-1,-2,-2,-1,-2,0,-3,0,-1,1,1,-2,0,-1,-2,-1,-1.0625,-1.0625,-1.0625,-0.6875,-0.6875,-0.6875,6.262341,2.964108,4.74854,7.975564,3.037625,0.9454328,-0.1548238,-0.4273288,1.447228,0.3188639,-0.46532,1.489748,0.1082337,0.399962,1.511697,-0.2054743,-0.4290119,1.469882,0.2657453,-0.4565213,1.447567,0.07354512,-0.04901693,1.517261,0.06862005,-0.3616196,1.501742,-0.1052925,0.1340955,1.511119,-0.01041793,-0.3525222,1.465267,-0.1735158,-0.1406468,1.530721,0.3057955,-0.1600427,1.552602,NA,NA,NotTracked,NotTracked,
0.9501953,0.2045898,0.2080078,0.9208984,0.3022461,-0.06835938,0,-1,-2,-2,-3,-3,-6,-2,-1,1,1,1,-1,2,-1,0,-2.1875,-2.1875,-2.1875,2.6875,2.6875,2.6875,6.257551,2.961625,4.749281,7.98424,3.032859,0.9373652,-0.1544705,-0.4274229,1.447574,0.3185129,-0.4657882,1.491555,0.1083434,0.3999708,1.511663,-0.1914403,-0.4521513,1.3765,0.2644291,-0.4633479,1.449989,0.07383303,-0.04896838,1.517161,0.06886335,-0.361573,1.501757,-0.1050653,0.1341984,1.511087,-0.01016029,-0.3524775,1.465328,-0.1731845,-0.1405976,1.530592,0.3060171,-0.1601391,1.552561,NA,NA,NotTracked,NotTracked,
0.9438477,0.2080078,0.2143555,0.9296875,0.3056641,-0.07666016,-2,-3,-3,0,0,0,-1,1,-5,-4,-3,1,0,-1,0,0,0.3125,0.3125,0.3125,-0.5,-0.5,-0.5,6.254025,2.96001,4.751673,7.985352,3.029914,0.9356853,-0.1541656,-0.4248873,1.448206,0.3177594,-0.4655775,1.491735,0.1086847,0.4000435,1.511456,-0.2079595,-0.4084761,1.475917,0.2648732,-0.4555834,1.449911,0.07423688,-0.04891555,1.517036,0.0692211,-0.3616129,1.501804,-0.1046605,0.1343588,1.51086,-0.009796704,-0.3524928,1.465394,-0.17297,-0.1405116,1.530451,0.3062317,-0.1601274,1.552572,NA,NA,NotTracked,NotTracked,
0.9477539,0.2050781,0.2143555,1.084961,0.684082,-0.09912109,0,1,-1,-2,-1,-1,-2,0,5,-15,-6,-2,1,-1,-3,10,0.6875,0.6875,0.6875,-41.625,-41.625,-41.625,6.250881,2.957345,4.753433,7.925848,3.056663,0.9691291,-0.1537986,-0.4240995,1.44869,0.3179425,-0.4648729,1.489995,0.1090701,0.4000669,1.510848,-0.2029672,-0.4343699,1.466455,0.2655587,-0.4606171,1.447148,0.07446128,-0.04886489,1.516846,0.06923847,-0.3615932,1.501793,-0.1043339,0.1345117,1.510568,-0.009793231,-0.3524538,1.465398,-0.1727569,-0.1404364,1.530323,0.3065594,-0.160065,1.552539,NA,NA,NotTracked,NotTracked,
0.934082,0.1977539,0.2104492,1.223633,0.6806641,0.3339844,0,0,-2,1,-1,-1,-3,-1,-1,-5,7,9,-1,1,2,1,4.5,4.5,4.5,-49.9375,-49.9375,-49.9375,6.247087,2.957966,4.762864,7.245158,3.221683,1.46923,-0.1540786,-0.4242446,1.448657,0.3259806,-0.4647335,1.468441,0.1091481,0.4000822,1.510553,-0.205117,-0.4269636,1.472194,0.2907064,-0.4747472,1.412889,0.07467084,-0.04874983,1.516638,0.06930343,-0.3614565,1.50177,-0.1041758,0.1345634,1.510372,-0.009742385,-0.3523124,1.465359,-0.1724795,-0.1402415,1.530241,0.3073328,-0.1596568,1.553232,NA,NA,NotTracked,NotTracked,
0.9228516,0.2211914,0.1962891,1.28125,1.509766,0.7231445,1,-2,0,-1,0,0,1,-1,-7,-21,-8,3,1,-1,-2,2,7.1875,7.1875,7.1875,-42.4375,-42.4375,-42.4375,6.264719,2.96218,4.755862,6.861206,3.628902,1.914002,-0.1537598,-0.4246504,1.448971,0.354568,-0.4158098,1.399001,0.1091079,0.3999817,1.510106,-0.2039585,-0.4383072,1.467545,0.3135887,-0.4243275,1.33075,0.07466039,-0.04873016,1.516618,0.06931164,-0.3613346,1.501947,-0.1040916,0.1346111,1.510292,-0.009747991,-0.3521773,1.465517,-0.1724468,-0.1401465,1.530211,0.3107536,-0.1575817,1.554294,NA,NA,NotTracked,Unknown,
0.9414063,0.2348633,0.2055664,0.6660156,0.8579102,0.8891602,-4,-2,1,1,-1,0,1,0,3,-16,-89,-30,1,5,4,-2,-6.125,-6.125,-6.125,-25.875,-25.875,-25.875,6.290062,2.960862,4.727925,6.506285,4.491448,2.20648,-0.1532057,-0.4247435,1.447995,0.3726254,-0.2933445,1.301275,0.1090383,0.399637,1.509284,-0.2020383,-0.4290914,1.465876,0.3519281,-0.2545285,1.2628,0.07458633,-0.04867981,1.516557,0.06923917,-0.361084,1.502014,-0.1040301,0.1345692,1.510191,-0.009843582,-0.3519454,1.465449,-0.172154,-0.140376,1.530118,0.3148789,-0.1208522,1.552692,NA,NA,NotTracked,Unknown,
0.956543,0.2358398,0.237793,0.1865234,0.7148438,0.730957,0,-2,-1,-2,-2,0,1,-3,1,10,16,3,-3,-2,1,4,-11.375,-11.375,-11.375,47.25,47.25,47.25,6.30097,2.95903,4.69738,6.526728,5.267593,2.362031,-0.1532893,-0.4245777,1.448479,0.3783519,-0.1068727,1.214903,0.1093245,0.3990808,1.508385,-0.2012037,-0.4420549,1.468182,0.3520855,-0.06182991,1.204812,0.07450873,-0.04867278,1.516642,0.06914943,-0.3608894,1.502076,-0.1039653,0.1343361,1.509824,-0.009975943,-0.3517644,1.46533,-0.1718665,-0.1403673,1.529832,0.3197405,-0.100608,1.537157,NA,NA,NotTracked,Open,
0.9638672,0.230957,0.2236328,-0.3984375,0.5249023,0.4404297,0,-2,-1,-1,-1,-2,-3,-2,1,3,27,11,0,4,2,3,-19.375,-19.375,-19.375,37.875,37.875,37.875,6.300429,2.96808,4.661577,6.689416,6.006032,2.602244,-0.1521011,-0.424117,1.445294,0.3525401,0.09704866,1.229302,0.1097064,0.3985229,1.50792,-0.2015213,-0.4328496,1.467162,0.3185511,0.1226768,1.241,0.07442521,-0.04872655,1.517126,0.06909239,-0.3607661,1.502146,-0.1038803,0.1341598,1.509622,-0.01009275,-0.3514974,1.465087,-0.17176,-0.1401239,1.529303,0.356164,-0.08617282,1.473222,NA,NA,NotTracked,Unknown,
0.9570313,0.1982422,0.1782227,-0.4140625,0.4228516,0.3959961,-1,-2,-2,-2,-1,-2,-1,0,-1,-3,0,3,4,5,5,4,-10.9375,-10.9375,-10.9375,57.25,57.25,57.25,6.29452,2.978753,4.64131,7.087939,6.534679,3.016054,-0.1516835,-0.4268609,1.440796,0.3149008,0.2518453,1.256855,0.1101433,0.3978844,1.507735,-0.2022264,-0.4258488,1.467902,0.2871365,0.2710821,1.271087,0.0740578,-0.04873347,1.517708,0.06857659,-0.3603936,1.501894,-0.1035556,0.1338204,1.509175,-0.01095192,-0.3508683,1.464346,-0.1714939,-0.1383895,1.527744,0.3951277,-0.01230467,1.378622,NA,NA,NotTracked,Open,
0.9399414,0.1796875,0.1601563,-0.4086914,0.215332,0.1621094,1,-1,-1,-3,-1,0,0,0,-6,-1,5,2,-10,-19,3,1,-8.5625,-8.5625,-8.5625,29.125,29.125,29.125,6.289883,2.988834,4.623377,7.993492,6.871931,3.938032,-0.1504086,-0.4262173,1.438996,0.2804811,0.3355958,1.30053,0.1106245,0.3972937,1.508326,-0.2018956,-0.4268225,1.469566,0.2530665,0.3340383,1.340353,0.07374141,-0.04840377,1.518464,0.06765431,-0.3591726,1.501541,-0.1035132,0.133184,1.510978,-0.01205704,-0.349575,1.464128,-0.1712539,-0.1380897,1.526902,0.3950782,0.03928385,1.337332,NA,NA,NotTracked,Open,
0.9492188,0.171875,0.168457,-0.375,0.2763672,0.01416016,0,-2,-2,-2,-1,-1,-2,-2,-4,2,-2,-9,-8,0,1,-7,6.8125,6.8125,6.8125,-19.8125,-19.8125,-19.8125,6.285663,2.987005,4.630982,8.686642,6.873854,4.680103,-0.1495334,-0.4289925,1.437152,0.2432155,0.3900512,1.330889,0.1107933,0.3963875,1.509081,-0.2006345,-0.4355351,1.465702,0.220377,0.3769776,1.376294,0.07374282,-0.04792255,1.518792,0.06732,-0.3576307,1.501162,-0.09976171,0.1337542,1.510124,-0.0124328,-0.3480759,1.463879,-0.1708024,-0.137337,1.525774,0.3889115,0.1404499,1.303735,NA,NA,NotTracked,Open,
0.9628906,0.1782227,0.1860352,-0.5576172,0.1416016,-0.234375,-1,-3,-2,0,1,-1,0,-1,14,-3,-1,4,4,4,2,0,10.5,10.5,10.5,-39.375,-39.375,-39.375,6.29148,2.980231,4.641507,9.039463,6.707974,5.151991,-0.1491595,-0.4263207,1.440662,0.209535,0.3627079,1.366044,0.111236,0.3965345,1.50914,-0.1964706,-0.4363578,1.458093,0.1459744,0.3234085,1.405667,0.07443663,-0.04562744,1.518734,0.06726433,-0.3543412,1.500433,-0.09328716,0.133681,1.508918,-0.01260456,-0.3452084,1.463822,-0.1707628,-0.137162,1.525553,0.3849908,0.1567203,1.295402,NA,NA,NotTracked,Unknown,
0.9516602,0.2172852,0.2226563,-0.04345703,-0.1850586,-0.4199219,-1,-1,0,0,-3,-2,-3,-3,11,9,6,7,4,1,-1,13,13.3125,13.3125,13.3125,30.25,30.25,30.25,6.303755,2.972251,4.650557,9.165857,6.598418,5.354518,-0.1485217,-0.4266063,1.445581,0.1746193,0.3688422,1.386779,0.1107761,0.396818,1.508731,-0.1979563,-0.4262635,1.464855,0.1195927,0.291428,1.396,0.07460376,-0.0447797,1.518839,0.06736245,-0.3529192,1.500172,-0.09217435,0.1331691,1.508927,-0.01275724,-0.343807,1.463985,-0.1703641,-0.136496,1.526012,0.3778027,0.1700161,1.28941,NA,NA,NotTracked,Unknown,
0.9458008,0.2353516,0.2236328,-0.7783203,0.9663086,-0.2265625,-1,0,0,0,0,0,0,0,-10,-2,-3,-2,-1,-2,-3,-7,15.1875,15.1875,15.1875,82.9375,82.9375,82.9375,6.306161,2.974614,4.676478,9.160025,6.641841,5.224475,-0.1487513,-0.4272974,1.445742,0.1780561,0.3720927,1.38266,0.1089803,0.3978574,1.508724,-0.1963381,-0.43845,1.465105,0.1343834,0.2920993,1.419533,0.0745152,-0.04375546,1.519006,0.06752779,-0.3513651,1.499797,-0.09127591,0.1331637,1.509862,-0.01274975,-0.3426113,1.464074,-0.1700424,-0.1361255,1.527369,0.3746665,0.1759544,1.286048,NA,NA,NotTracked,Unknown,
0.965332,0.2451172,0.2026367,-1.22168,-0.0004882813,-0.1855469,0,-1,-1,-1,-2,-2,-3,0,-6,-5,1,7,3,4,2,2,18.6875,18.6875,18.6875,-42.4375,-42.4375,-42.4375,6.326423,2.987754,4.684911,9.03943,6.731423,5.190958,-0.1507475,-0.4251842,1.449397,0.1939218,0.374637,1.37361,0.1065285,0.3988248,1.509474,-0.1987218,-0.4335084,1.466508,0.1275339,0.3062938,1.407,0.07436576,-0.04308806,1.519083,0.06747217,-0.3504768,1.499831,-0.09137011,0.1334656,1.511761,-0.01276314,-0.3419465,1.464556,-0.1700073,-0.1372522,1.529661,0.3758165,0.175331,1.284897,NA,NA,Unknown,Unknown,
0.9628906,0.2773438,0.2104492,-0.9736328,0.3261719,-0.1923828,-1,-1,1,-1,-1,-2,-1,-1,0,0,-4,-2,2,2,-2,-10,11.1875,11.1875,11.1875,30.125,30.125,30.125,6.362371,2.994173,4.677591,9.203035,6.744348,5.32289,-0.1506343,-0.4226554,1.451862,0.176355,0.4038604,1.390135,0.1055734,0.399143,1.50996,-0.197992,-0.4179401,1.469783,0.10902,0.3434848,1.385444,0.07434149,-0.04238024,1.519266,0.06741441,-0.3495251,1.500248,-0.09153246,0.1336621,1.513074,-0.01279021,-0.3411158,1.465487,-0.1701508,-0.1376437,1.532354,0.3766175,0.1744433,1.283513,NA,NA,Unknown,Open,
0.9624023,0.2636719,0.2543945,-0.890625,-0.06591797,-1.058105,-2,0,0,-1,0,0,0,0,4,-4,1,5,10,1,0,8,-1.0625,-1.0625,-1.0625,-39.875,-39.875,-39.875,6.366545,2.986173,4.676842,9.291944,6.612821,5.471498,-0.1505537,-0.4244197,1.452366,0.1738068,0.3733191,1.3885,0.1053785,0.3996791,1.509683,-0.1973439,-0.4346249,1.467962,0.1349685,0.2982613,1.410046,0.07443518,-0.04193669,1.519259,0.06756038,-0.3491342,1.500328,-0.09123529,0.1335829,1.513143,-0.01271719,-0.3407576,1.465851,-0.1699462,-0.1378572,1.533798,0.3734639,0.1791167,1.281056,NA,NA,Unknown,Unknown,
0.8930664,0.2543945,0.2553711,-1.048828,0.2797852,-0.1884766,-1,-1,-2,-1,-2,0,-2,-2,6,-6,-6,4,5,1,-2,-14,-8.9375,-8.9375,-8.9375,88.1875,88.1875,88.1875,6.336577,2.978896,4.693296,9.33407,6.652723,5.451362,-0.1518751,-0.4224061,1.453045,0.163411,0.4060317,1.390549,0.1053091,0.3996907,1.509464,-0.203194,-0.419069,1.479048,0.1375736,0.3642947,1.407071,0.07448085,-0.04173905,1.519245,0.06750294,-0.3487308,1.500327,-0.09079265,0.1335783,1.513288,-0.01287809,-0.3402713,1.466067,-0.1699054,-0.1377684,1.534214,0.3702176,0.1844632,1.279464,NA,NA,Unknown,Unknown,
0.9462891,0.2236328,0.1938477,-0.8574219,0.4477539,-0.3618164,-2,-2,-2,-2,0,-1,-3,-1,8,4,-2,-1,0,-2,1,6,-7.1875,-7.1875,-7.1875,-0.25,-0.25,-0.25,6.309259,2.99499,4.7008,9.2952,6.675418,5.377463,-0.1527316,-0.424946,1.450153,0.1803966,0.3790116,1.389324,0.1054065,0.3999687,1.509293,-0.2009403,-0.4321434,1.472102,0.1258489,0.2965267,1.4013,0.07459666,-0.0413263,1.519337,0.0675144,-0.3483457,1.500403,-0.09029377,0.133773,1.513351,-0.01287652,-0.3398497,1.466316,-0.1699727,-0.1374768,1.534277,0.3709703,0.1837553,1.279525,NA,NA,Unknown,Unknown,
0.9506836,0.2216797,0.1601563,-0.859375,0.03417969,-0.4287109,-1,1,0,-1,0,-3,-3,-1,2,0,-3,-2,-6,-3,-4,5,0.3125,0.3125,0.3125,7.5,7.5,7.5,6.326022,3.001997,4.682113,9.210619,6.746353,5.324843,-0.1521142,-0.4247708,1.448333,0.1789993,0.4064813,1.393684,0.1057067,0.4000503,1.509119,-0.1999502,-0.4336179,1.470322,0.163819,0.3672205,1.421394,0.07463443,-0.04118497,1.519361,0.06749821,-0.3482119,1.500462,-0.09001981,0.1337945,1.513324,-0.01290189,-0.3397491,1.466483,-0.1702323,-0.1366568,1.534245,0.3742353,0.1805998,1.28079,NA,NA,Unknown,Unknown,
0.9458008,0.2094727,0.1938477,-0.7646484,0.3095703,-0.2900391,-2,-3,-2,-2,0,-1,0,-1,-1,4,1,0,1,1,-2,-11,-7.625,-7.625,-7.625,31.25,31.25,31.25,6.338953,2.994912,4.660882,9.157874,6.805239,5.181054,-0.1520767,-0.4247929,1.448719,0.189696,0.4051782,1.388686,0.1066624,0.3999046,1.508852,-0.2005134,-0.4309403,1.471969,0.1472732,0.3673107,1.4158,0.0746631,-0.04114211,1.519407,0.06737614,-0.3482181,1.500744,-0.08985939,0.1338422,1.513248,-0.01296287,-0.3397958,1.466731,-0.1703533,-0.1367333,1.534091,0.3809668,0.1741168,1.285586,NA,NA,Unknown,Unknown,
0.9511719,0.2001953,0.2231445,-0.6796875,0.215332,-0.2202148,-2,-1,1,-1,-3,0,-3,-1,3,3,3,-1,0,-1,-2,5,-3.0625,-3.0625,-3.0625,-13.4375,-13.4375,-13.4375,6.312304,2.979005,4.67307,8.790535,6.844359,4.806195,-0.1525007,-0.425097,1.44902,0.2095919,0.3947081,1.375436,0.1071056,0.3996237,1.508887,-0.2002793,-0.4313623,1.470772,0.1429569,0.3496937,1.407833,0.07437576,-0.04150058,1.519597,0.0669089,-0.3485937,1.501002,-0.09328032,0.1339372,1.515574,-0.01331287,-0.3401345,1.466729,-0.1703644,-0.1369581,1.533835,0.3895026,0.1594812,1.295371,NA,NA,Unknown,Open,
0.9375,0.2475586,0.1889648,-0.6450195,0.2246094,-0.006347656,0,-1,-2,0,0,0,1,-1,-8,-4,1,3,2,-1,-2,1,1.6875,1.6875,1.6875,-2.8125,-2.8125,-2.8125,6.319214,2.976854,4.677003,8.374872,6.858945,4.370091,-0.1528249,-0.4256814,1.45004,0.2442044,0.3569725,1.348409,0.1060263,0.3994417,1.509617,-0.2007006,-0.4302438,1.47139,0.1515842,0.3298543,1.417,0.07394911,-0.04209474,1.520042,0.06652226,-0.3491489,1.501262,-0.09559399,0.1338953,1.516491,-0.01369273,-0.3406782,1.466643,-0.1704794,-0.1368823,1.533773,0.4005838,0.1281017,1.30969,NA,NA,NotTracked,Open,
0.9414063,0.2241211,0.1914063,-0.8706055,0.4018555,-0.03564453,-1,-1,0,-2,0,-2,2,0,2,1,-2,-1,-1,-1,0,-3,4.3125,4.3125,4.3125,-58.5625,-58.5625,-58.5625,6.334203,2.980862,4.665454,7.818326,6.765391,3.83755,-0.1529491,-0.425106,1.44962,0.2588129,0.3203018,1.32188,0.1031,0.3997805,1.510733,-0.2003167,-0.43277,1.470828,0.2402796,0.2965544,1.371091,0.07334085,-0.04265758,1.520087,0.06614386,-0.3501189,1.50146,-0.09842706,0.1331727,1.515944,-0.01411084,-0.341745,1.466654,-0.1707564,-0.1375436,1.533396,0.409965,0.03519728,1.360396,NA,NA,NotTracked,Unknown,
0.9404297,0.2158203,0.1962891,-0.671875,0.5263672,0.2890625,0,0,-2,-2,-2,-1,1,1,-2,1,1,-2,-2,0,0,-5,6.5,6.5,6.5,-59.375,-59.375,-59.375,6.34595,2.979904,4.663065,7.191998,6.436876,3.215214,-0.1529375,-0.4248378,1.449811,0.2737629,0.2453827,1.295336,0.1009328,0.4003021,1.510903,-0.2003838,-0.4319418,1.469953,0.2490773,0.2486289,1.341222,0.07271206,-0.04321757,1.520165,0.06572747,-0.351423,1.501691,-0.1019636,0.1322621,1.51552,-0.01450841,-0.3429369,1.466747,-0.1713284,-0.1386231,1.533256,0.3972549,-0.01095867,1.38768,NA,NA,NotTracked,Unknown,
0.9594727,0.2260742,0.2021484,-0.6542969,0.5991211,0.3051758,-2,-1,-1,-1,0,0,-1,2,-2,-1,-1,0,-1,-2,0,-5,10.75,10.75,10.75,-71.875,-71.875,-71.875,6.346668,2.975965,4.678924,6.85074,6.0187,2.885987,-0.153048,-0.4251986,1.450343,0.2880535,0.149936,1.263546,0.09857467,0.4010193,1.510819,-0.2042791,-0.4113632,1.474133,0.2540698,0.1624022,1.2853,0.07181133,-0.04407478,1.520054,0.06514151,-0.3532296,1.502073,-0.105234,0.1318012,1.51571,-0.01500924,-0.3446149,1.46704,-0.1713535,-0.1412069,1.533381,0.3864198,-0.05812876,1.441146,NA,NA,NotTracked,Closed,
0.9570313,0.2119141,0.2006836,-0.4990234,0.5947266,0.3232422,-1,-1,0,-1,-2,-3,-6,-4,1,1,-1,2,1,-5,-2,1,8.1875,8.1875,8.1875,-82.3125,-82.3125,-82.3125,6.345058,2.969087,4.694315,6.586529,5.464284,2.623234,-0.1524381,-0.4276833,1.450924,0.2988569,0.02720664,1.221604,0.09631243,0.4017,1.510522,-0.1998786,-0.4345822,1.46496,0.2869377,0.06033263,1.22,0.0710071,-0.04477319,1.519566,0.06476866,-0.3545876,1.502308,-0.1073672,0.1316509,1.515697,-0.0153189,-0.3460733,1.467024,-0.1710074,-0.1424022,1.533737,0.3627749,-0.131869,1.541308,NA,NA,NotTracked,Unknown,
0.9365234,0.2441406,0.2045898,0.2045898,0.8032227,0.581543,0,0,-1,-1,0,1,0,-1,-1,1,-1,3,2,1,-2,-2,2.5625,2.5625,2.5625,-55.125,-55.125,-55.125,6.345717,2.964193,4.705941,6.451475,4.625476,2.390679,-0.1523536,-0.4287695,1.452274,0.3106096,-0.1272915,1.234201,0.09492172,0.4020794,1.509705,-0.2008999,-0.4355886,1.470497,0.3229518,-0.09760037,1.223956,0.0704091,-0.04523465,1.519058,0.06468897,-0.3551039,1.50248,-0.1084452,0.1318482,1.515786,-0.01532552,-0.3467317,1.467296,-0.1706887,-0.1433105,1.533798,0.3265999,-0.09271792,1.55871,NA,NA,NotTracked,Unknown,
0.9243164,0.2236328,0.2299805,0.6542969,0.7685547,0.6855469,-2,0,-1,-2,-2,-1,0,0,0,0,-1,8,2,-8,-2,-1,1.5,1.5,1.5,62.3125,62.3125,62.3125,6.341107,2.958632,4.709585,6.582687,4.036005,2.212919,-0.1524119,-0.4306945,1.451705,0.3262644,-0.2633435,1.30811,0.09411564,0.4022998,1.508724,-0.1999412,-0.4405914,1.469483,0.3266651,-0.2387247,1.2637,0.07020362,-0.04552642,1.518662,0.06476685,-0.3556029,1.502809,-0.108936,0.1319827,1.515472,-0.01514023,-0.3472874,1.467571,-0.1706686,-0.1438043,1.533753,0.3228719,-0.09979656,1.556509,NA,NA,NotTracked,Lasso,
0.9604492,0.2641602,0.230957,1.926758,0.8369141,1.064453,0,0,-2,-2,1,0,-1,-3,0,0,-1,-6,-1,-2,0,0,-13.5625,-13.5625,-13.5625,75.6875,75.6875,75.6875,6.349505,2.958217,4.686004,6.851044,3.54919,1.968529,-0.1526801,-0.4282799,1.451588,0.3319504,-0.3751733,1.37253,0.09390296,0.4022746,1.50825,-0.2009688,-0.4318298,1.470422,0.3308855,-0.3580691,1.33225,0.07026018,-0.04590184,1.51843,0.065213,-0.3562896,1.503278,-0.1095115,0.1319497,1.514991,-0.01455761,-0.3480289,1.467885,-0.1706198,-0.1439676,1.533695,0.3168162,-0.1268097,1.553442,NA,NA,NotTracked,Lasso,
0.9570313,0.2197266,0.2167969,1.097656,0.8837891,0.5498047,-3,-1,-1,-2,-1,-2,0,0,-2,-1,-2,-4,-2,-2,1,-1,-14,-14,-14,19.75,19.75,19.75,6.33529,2.964627,4.675722,7.40362,3.143421,1.495629,-0.152316,-0.4307827,1.447655,0.3317569,-0.4279618,1.441031,0.0939551,0.4021869,1.507982,-0.1997399,-0.4320554,1.466613,0.3586198,-0.4406142,1.39375,0.07033601,-0.04636925,1.518175,0.06571826,-0.3573823,1.503552,-0.1098952,0.1318858,1.514215,-0.0139891,-0.3489633,1.468092,-0.1707055,-0.1453241,1.532707,0.3130464,-0.1456128,1.55084,NA,NA,NotTracked,NotTracked,
0.9575195,0.2094727,0.1938477,1.194336,0.550293,0.05517578,-2,0,-1,-1,-3,1,-1,-1,-2,-4,-1,-5,-2,-1,-2,-2,-10.625,-10.625,-10.625,-55.5,-55.5,-55.5,6.332381,2.969728,4.665586,7.654488,3.016187,1.132429,-0.1509036,-0.4275465,1.44335,0.311445,-0.4564624,1.486519,0.09438053,0.4019484,1.507336,-0.2002887,-0.4270087,1.46751,0.3497508,-0.4306466,1.479077,0.07062519,-0.04701433,1.517691,0.06681187,-0.3587978,1.503402,-0.1099391,0.1317198,1.512952,-0.01279474,-0.3504357,1.467732,-0.1704669,-0.1450379,1.530981,0.3104981,-0.1527579,1.552977,NA,NA,NotTracked,NotTracked,
