ALX,ALY,ALZ,ARX,ARY,ARZ,EMG0L,EMG1L,EMG2L,EMG3L,EMG4L,EMG5L,EMG6L,EMG7L,EMG0R,EMG1R,EMG2R,EMG3R,EMG4R,EMG5R,EMG6R,EMG7R,GLX,GLY,GLZ,GRX,GRY,GRZ,ORL,OPL,OYL,ORR,OPR,OYR,LHNX,LHNY,LHNZ,RHNX,RHNY,RHNZ,HX,HY,HZ,LTX,LTY,LTZ,RTX,RTY,RTZ,SpineMidX,SpineMidY,SpineMidZ,SpineBaseX,SpineBaseY,SpineBaseZ,ShoulderLeftX,ShoulderLeftY,ShoulderLeftZ,ShoulderRightX,ShoulderRightY,ShoulderRightZ,ElbowLeftX,ElbowLeftY,ElbowLeftZ,ElbowRightX,ElbowRightY,ElbowRightZ,Myo_Pose_left,Myo_Pose_Right,Kinect_pose_left,Kinect_pose_right
0.8662109,0.4257813,0.04101563,-0.671875,0.4003906,0.5668945,-2,-2,-1,-3,0,-1,0,-3,2,-3,0,-3,-3,0,0,-4,-3.5,-3.5,-3.5,-4.9375,-4.9375,-4.9375,7.426805,3.256391,2.753795,5.759082,6.40687,7.489108,-0.8163515,-0.6799181,1.313302,-0.6974854,-0.5620871,1.48048,-0.810079,-0.1099088,1.499017,-0.7873582,-0.6828451,1.3375,-0.7511502,-0.519623,1.503464,-0.803963,-0.4704134,1.550007,-0.7747444,-0.7195994,1.565532,-0.9163497,-0.3004708,1.451762,-0.8060733,-0.7143695,1.505291,-0.9695984,-0.504061,1.441731,-0.630336,-0.4694718,1.67828,NA,NA,Unknown,Unknown,
0.8662109,0.4291992,0.04296875,-0.7182617,0.2827148,0.543457,0,1,-5,3,0,-2,-1,1,0,-6,1,-2,-1,-3,-2,-4,-4.6875,-4.6875,-4.6875,-21.625,-21.625,-21.625,7.419382,3.252446,2.752814,5.777333,6.391506,7.570847,-0.819909,-0.6818651,1.313299,-0.6975003,-0.5637075,1.480084,-0.8099572,-0.1132018,1.499557,-0.7854469,-0.6843765,1.332024,-0.7516762,-0.5229836,1.500816,-0.8038124,-0.4704869,1.54999,-0.7736959,-0.7202043,1.565075,-0.9161153,-0.300858,1.451661,-0.8048836,-0.7150464,1.504514,-0.9707229,-0.5040427,1.44102,-0.6347563,-0.4736056,1.687958,NA,NA,Unknown,Unknown,
0.8779297,0.4326172,0.04589844,-0.7114258,0.3310547,0.5214844,1,-2,-1,-1,-1,-2,-1,-4,4,2,3,3,-2,0,0,2,-7.5,-7.5,-7.5,-9.125,-9.125,-9.125,7.413431,3.245485,2.747503,5.857643,6.35925,7.702148,-0.8205767,-0.6805482,1.31138,-0.6997036,-0.565103,1.477108,-0.8097559,-0.1147262,1.500065,-0.7875469,-0.6842305,1.332622,-0.7533516,-0.523851,1.500211,-0.8032458,-0.4708867,1.549942,-0.7731526,-0.7204695,1.565054,-0.9159218,-0.3011343,1.451629,-0.8043357,-0.7153369,1.50446,-0.9713851,-0.5040464,1.441375,-0.6298834,-0.4756109,1.684723,NA,NA,Unknown,Unknown,
0.8833008,0.4296875,0.04638672,-0.7138672,0.4204102,0.5239258,-3,-1,-1,-2,0,-3,0,-1,3,-5,-4,-4,0,1,-2,0,-6,-6,-6,-6.25,-6.25,-6.25,7.410843,3.229816,2.729566,5.971233,6.311364,7.863142,-0.8211821,-0.6786849,1.31054,-0.7094495,-0.5712867,1.467878,-0.8096498,-0.1145521,1.500065,-0.7733094,-0.6954833,1.320455,-0.7573547,-0.5287503,1.477445,-0.8032377,-0.4706734,1.549942,-0.7730206,-0.7204091,1.564942,-0.9158693,-0.3011528,1.451639,-0.8042635,-0.7152792,1.50443,-0.9729682,-0.5035291,1.442395,-0.6274074,-0.4754208,1.68195,NA,NA,Unknown,Unknown,
0.8657227,0.4604492,0.03710938,-0.7797852,0.5087891,0.4956055,-1,-2,1,3,0,0,-2,0,-2,2,-5,2,0,4,0,0,-12.6875,-12.6875,-12.6875,-6.9375,-6.9375,-6.9375,7.415725,3.219915,2.706242,6.128618,6.235377,8.095327,-0.823667,-0.6804641,1.310599,-0.6975024,-0.5557089,1.483794,-0.8092679,-0.1134537,1.499646,-0.7838814,-0.6884505,1.332084,-0.7505887,-0.5211356,1.51,-0.8033115,-0.4700798,1.550098,-0.7729676,-0.7200207,1.565064,-0.9158649,-0.3010893,1.451675,-0.8042911,-0.7148397,1.504542,-0.9739131,-0.503146,1.443029,-0.626502,-0.4751866,1.681209,NA,NA,Unknown,Unknown,
0.8623047,0.425293,0.06787109,-0.7563477,0.5102539,0.5063477,-3,-1,-2,-1,1,2,0,1,-1,-4,-3,-7,-6,0,-2,-3,-6.5625,-6.5625,-6.5625,3.0625,3.0625,3.0625,7.415477,3.209166,2.673698,6.224256,6.177596,8.231194,-0.8332733,-0.6682342,1.355531,-0.6966389,-0.5610148,1.484681,-0.8092215,-0.1128339,1.499408,-0.806689,-0.6652259,1.377,-0.7234841,-0.5176783,1.488308,-0.8033087,-0.4702474,1.550002,-0.7731525,-0.7199829,1.565112,-0.9158777,-0.3010761,1.45167,-0.804562,-0.7147726,1.504654,-0.9652957,-0.5057154,1.44404,-0.6270203,-0.4756976,1.679674,NA,NA,NotTracked,Unknown,
0.8754883,0.440918,0.05078125,-0.7441406,0.5722656,0.5107422,4,-1,-3,-2,0,-3,0,2,2,-1,4,0,-7,2,1,3,3.9375,3.9375,3.9375,3.3125,3.3125,3.3125,7.433407,3.203603,2.65531,6.305272,6.12791,8.335979,-0.822062,-0.6856892,1.313917,-0.6974103,-0.5599274,1.483834,-0.8092538,-0.1127793,1.499457,-0.7925999,-0.6910809,1.338046,-0.716101,-0.5145231,1.490931,-0.8031527,-0.4709883,1.55025,-0.7732726,-0.7203717,1.565594,-0.9158853,-0.3011717,1.451756,-0.8045677,-0.7152205,1.50522,-0.9673227,-0.505204,1.445108,-0.6310102,-0.475327,1.687426,NA,NA,Unknown,Unknown,
0.8823242,0.4360352,0.05957031,-0.7402344,0.5639648,0.5249023,-2,-1,1,-3,-1,-1,1,-1,1,-5,-2,0,-1,-1,0,-2,5.1875,5.1875,5.1875,-1.6875,-1.6875,-1.6875,7.445155,3.199704,2.647904,6.347038,6.097923,8.405824,-0.8261528,-0.6844717,1.315986,-0.6973898,-0.5620751,1.482887,-0.809187,-0.1125885,1.499464,-0.8006221,-0.6807438,1.347205,-0.7518438,-0.5298463,1.489868,-0.8033736,-0.4709645,1.550413,-0.7735153,-0.7205707,1.565856,-0.9158984,-0.3011834,1.451862,-0.8048298,-0.7154332,1.50545,-0.970037,-0.5043358,1.447174,-0.6317573,-0.4760344,1.685563,NA,NA,Unknown,Unknown,
0.8759766,0.4267578,0.05712891,-0.6855469,0.5771484,0.5307617,1,-1,-1,-2,0,-1,1,-1,-1,-4,-3,3,-1,0,-5,0,14.25,14.25,14.25,-6.1875,-6.1875,-6.1875,7.450185,3.200256,2.665272,6.366136,6.074339,8.457193,-0.8256741,-0.6821806,1.320853,-0.697167,-0.5625864,1.483033,-0.8092566,-0.1120283,1.499569,-0.8060706,-0.6724406,1.3524,-0.7530661,-0.5210525,1.508303,-0.8035381,-0.4706867,1.550665,-0.7734778,-0.7206953,1.566153,-0.9159201,-0.301178,1.451927,-0.8047769,-0.7155914,1.505863,-0.974112,-0.5029337,1.449576,-0.632704,-0.4754943,1.688968,NA,NA,Unknown,Unknown,
0.875,0.4233398,0.03759766,-0.6411133,0.5898438,0.5175781,-1,0,-4,0,-1,-1,-2,0,1,4,1,-3,0,0,2,0,13.4375,13.4375,13.4375,-10.3125,-10.3125,-10.3125,7.448747,3.204162,2.69253,6.360265,6.064991,8.465848,-0.8263193,-0.6803679,1.32232,-0.6976965,-0.5629142,1.482662,-0.8093487,-0.1103664,1.498998,-0.7986894,-0.681304,1.347648,-0.7517664,-0.5246282,1.504236,-0.8035384,-0.4706987,1.550681,-0.7737426,-0.720359,1.566435,-0.9159483,-0.3011373,1.451959,-0.8051292,-0.7152327,1.506218,-0.9699951,-0.4909243,1.441012,-0.6294399,-0.4748706,1.686816,NA,NA,Unknown,Unknown,
0.8735352,0.4145508,0.0390625,-0.6025391,0.5419922,0.4931641,-1,0,-5,2,-2,-2,-3,1,-3,3,-5,-2,-4,0,-2,2,5.1875,5.1875,5.1875,-10.9375,-10.9375,-10.9375,7.437276,3.209817,2.718159,6.346304,6.042615,8.473866,-0.8228503,-0.6855676,1.318236,-0.6977126,-0.563484,1.482575,-0.809283,-0.110216,1.498922,-0.7939709,-0.6885581,1.341128,-0.7374682,-0.5255024,1.486053,-0.8034891,-0.4709123,1.550764,-0.7739462,-0.7203377,1.566639,-0.9159427,-0.301161,1.451996,-0.805372,-0.7151961,1.506418,-0.9669185,-0.5052928,1.446292,-0.6281992,-0.474846,1.685534,NA,NA,Unknown,Unknown,
0.8793945,0.4135742,0.03564453,-0.4921875,0.5756836,0.5053711,1,0,0,-2,2,0,0,1,-3,-2,-4,1,-1,-4,-3,1,4.0625,4.0625,4.0625,-3.6875,-3.6875,-3.6875,7.411377,3.214534,2.755399,6.350093,5.932528,8.503225,-0.8218737,-0.6861544,1.31609,-0.6979653,-0.564377,1.481831,-0.8091218,-0.1101103,1.498867,-0.7859416,-0.6942762,1.336383,-0.726923,-0.526032,1.477008,-0.8038948,-0.4706043,1.55104,-0.7742434,-0.7203864,1.566883,-0.9159521,-0.301154,1.452065,-0.8057101,-0.7152197,1.506667,-0.9653969,-0.5057517,1.445505,-0.6304163,-0.4744194,1.689994,NA,NA,Unknown,Unknown,
0.8808594,0.3969727,0.04736328,-0.4526367,0.5595703,0.4907227,-3,-1,2,2,0,0,-1,-1,2,2,3,-1,3,-3,-2,-2,3.1875,3.1875,3.1875,1,1,1,7.388563,3.213733,2.785259,6.362566,5.788834,8.530135,-0.8212411,-0.681538,1.329751,-0.6974954,-0.5638312,1.482805,-0.8092257,-0.1096252,1.499113,-0.8070698,-0.6701623,1.364967,-0.7545115,-0.5264031,1.498766,-0.8038819,-0.470738,1.551178,-0.7744795,-0.7203454,1.567197,-0.9159607,-0.3011833,1.452158,-0.8059836,-0.7151856,1.507079,-0.9756353,-0.5024151,1.450385,-0.6295132,-0.4748665,1.687058,NA,NA,Unknown,Unknown,
0.8735352,0.40625,0.04101563,-0.3046875,0.6479492,0.4995117,0,-2,0,-1,1,0,1,1,2,-3,-1,2,2,0,1,0,3.8125,3.8125,3.8125,14.4375,14.4375,14.4375,7.374397,3.208803,2.806982,6.399046,5.584608,8.556284,-0.8162919,-0.6859105,1.321426,-0.6983722,-0.5632517,1.481929,-0.8091548,-0.1094541,1.499153,-0.7820305,-0.6919359,1.3412,-0.753512,-0.5204182,1.508711,-0.803828,-0.4707447,1.551243,-0.7746266,-0.7202485,1.567436,-0.9159546,-0.3011791,1.452194,-0.8062278,-0.7150617,1.50736,-0.9608508,-0.5069649,1.446499,-0.6287999,-0.4747101,1.686457,NA,NA,Unknown,Unknown,
0.8959961,0.4204102,0.04541016,-0.199707,0.6894531,0.5317383,-2,-2,-2,-3,0,1,-3,-1,4,-6,0,4,0,1,2,1,-3,-3,-3,25.875,25.875,25.875,7.368364,3.203053,2.812235,6.439928,5.34319,8.582685,-0.8222247,-0.6832598,1.334427,-0.6980004,-0.5649323,1.482953,-0.809184,-0.1092905,1.499158,-0.8049345,-0.6764388,1.364233,-0.7517455,-0.5229475,1.50233,-0.8038663,-0.470707,1.551273,-0.7749032,-0.7198249,1.567786,-0.9158558,-0.300994,1.450691,-0.8064506,-0.7146584,1.507746,-0.9607456,-0.5067544,1.445687,-0.6287305,-0.4732135,1.685943,NA,NA,Unknown,Unknown,
0.8950195,0.4165039,0.05615234,-0.03125,0.8852539,0.5249023,-4,0,2,1,0,0,-1,-2,0,-3,-5,-4,-5,-3,0,0,-6.3125,-6.3125,-6.3125,28.5,28.5,28.5,7.353479,3.204757,2.818116,6.519554,5.019468,8.600641,-0.8249528,-0.6851505,1.319014,-0.6966778,-0.5660308,1.483784,-0.8091942,-0.1093092,1.499164,-0.7922253,-0.6901563,1.341767,-0.7541731,-0.5260658,1.505595,-0.8039236,-0.4708347,1.551308,-0.7748918,-0.7200494,1.567792,-0.9158658,-0.3011273,1.450942,-0.8064209,-0.714968,1.507686,-0.9726251,-0.503293,1.44949,-0.6327843,-0.4730458,1.692353,NA,NA,Unknown,Unknown,
0.9033203,0.425293,0.06835938,0.1508789,0.8901367,0.6044922,0,-1,3,-3,-3,-1,-1,0,-2,5,-1,1,-4,2,0,0,-3.75,-3.75,-3.75,39.4375,39.4375,39.4375,7.335013,3.212138,2.829195,6.560731,4.794714,8.616895,-0.8289216,-0.6731122,1.353468,-0.6905942,-0.5581158,1.490705,-0.8090522,-0.109188,1.499079,-0.8066851,-0.6651868,1.380097,-0.7456818,-0.522585,1.520123,-0.8038055,-0.4712049,1.551186,-0.7751146,-0.7202473,1.567701,-0.9158601,-0.301157,1.451054,-0.8067276,-0.7151805,1.507655,-0.9658863,-0.5055777,1.444847,-0.6316997,-0.4730193,1.692166,NA,NA,NotTracked,Unknown,
0.8759766,0.4316406,0.09033203,0.2026367,0.8852539,0.5639648,-3,-2,-1,4,-4,1,3,0,-2,-1,-6,-3,3,-3,-3,0,5.625,5.625,5.625,1.1875,1.1875,1.1875,7.304837,3.223943,2.866571,6.605797,4.589164,8.624146,-0.8277942,-0.6730872,1.349352,-0.6941751,-0.5628026,1.484817,-0.8090715,-0.1090383,1.499067,-0.8073025,-0.6652728,1.375905,-0.7482586,-0.5220137,1.509752,-0.8041099,-0.4704446,1.55133,-0.7751259,-0.7199909,1.56775,-0.915845,-0.300395,1.449474,-0.8066396,-0.7149343,1.507737,-0.965557,-0.504849,1.444799,-0.6308256,-0.4723118,1.69091,NA,NA,NotTracked,Unknown,
0.8525391,0.4291992,0.08251953,0.347168,0.9702148,0.6054688,0,-1,-1,0,-1,-3,0,-2,-6,-4,-6,-4,-1,-3,1,-2,3.25,3.25,3.25,18,18,18,7.275805,3.238837,2.90484,6.633957,4.48396,8.614374,-0.8230862,-0.6795329,1.321414,-0.6942417,-0.5625932,1.484059,-0.8089824,-0.1085212,1.498809,-0.7903422,-0.6817231,1.343541,-0.7486891,-0.5218018,1.509999,-0.8042088,-0.4699474,1.551331,-0.7748808,-0.7198624,1.567689,-0.915828,-0.3003855,1.449893,-0.8062804,-0.7148197,1.507669,-0.9731047,-0.5024276,1.447815,-0.6286858,-0.4725362,1.687579,NA,NA,Unknown,Unknown,
0.8569336,0.4428711,0.08300781,0.3066406,0.7661133,0.5488281,1,3,-2,3,0,1,0,0,-9,-4,-4,1,-1,3,1,0,4.0625,4.0625,4.0625,9.9375,9.9375,9.9375,7.273032,3.245199,2.915196,6.642316,4.422986,8.603091,-0.8222506,-0.6861122,1.324059,-0.6975573,-0.5645598,1.482428,-0.8091243,-0.1091476,1.498961,-0.7912391,-0.6885306,1.347042,-0.7503208,-0.5274739,1.511061,-0.8043157,-0.4699471,1.55139,-0.7747924,-0.7201811,1.567713,-0.9158587,-0.3006301,1.45023,-0.8061684,-0.7151811,1.507601,-0.9716178,-0.5031893,1.447492,-0.6315602,-0.4740502,1.686838,NA,NA,Unknown,Unknown,
0.8666992,0.4423828,0.07568359,0.2890625,0.737793,0.425293,0,0,-2,1,-3,1,-1,0,4,1,-1,-3,-3,2,1,-4,3.25,3.25,3.25,7.375,7.375,7.375,7.26926,3.250429,2.92626,6.6692,4.35782,8.59276,-0.8223637,-0.6930373,1.321213,-0.6948705,-0.5644581,1.487264,-0.8093257,-0.1129585,1.499417,-0.7978978,-0.6886809,1.347765,-0.7494233,-0.5219034,1.52392,-0.8043727,-0.4726929,1.551215,-0.7753727,-0.7225207,1.567204,-0.9158317,-0.301402,1.450596,-0.8066654,-0.7174329,1.506768,-0.9657861,-0.5059141,1.441916,-0.6346838,-0.4774139,1.68812,NA,NA,Unknown,Unknown,
0.8735352,0.4331055,0.07714844,0.5263672,0.7822266,0.3964844,-1,-1,-2,-1,2,-2,-1,1,1,-1,-4,0,1,-5,-4,-1,0.25,0.25,0.25,-35,-35,-35,7.265475,3.253505,2.93179,6.655513,4.207375,8.585968,-0.8222603,-0.6894127,1.321785,-0.6921208,-0.5641907,1.489118,-0.8092964,-0.1144068,1.4996,-0.7931629,-0.6883727,1.344843,-0.7506965,-0.5273696,1.513184,-0.8046225,-0.4728136,1.551269,-0.7756808,-0.7231719,1.567171,-0.9158145,-0.3019046,1.450794,-0.8070439,-0.7180634,1.506807,-0.9689523,-0.5054721,1.4427,-0.6390947,-0.4781472,1.693245,NA,NA,Unknown,Unknown,
0.8720703,0.425293,0.08398438,0.4624023,0.6303711,0.4023438,-2,-1,0,-2,0,0,-2,4,-7,-7,0,-1,-4,-1,-1,1,-0.8125,-0.8125,-0.8125,-24.125,-24.125,-24.125,7.260996,3.254891,2.934872,6.6005,4.068226,8.572899,-0.8223683,-0.681541,1.321122,-0.6926627,-0.5632573,1.487028,-0.8092194,-0.1130071,1.499588,-0.801367,-0.6770561,1.353469,-0.7495075,-0.5184107,1.515647,-0.8044236,-0.4726544,1.551295,-0.7755234,-0.7224281,1.567442,-0.9157156,-0.3015946,1.44958,-0.8067324,-0.7173618,1.507088,-0.9728069,-0.5038,1.445275,-0.6323054,-0.4756457,1.68911,NA,NA,Unknown,Unknown,
0.8554688,0.4433594,0.06445313,0.7651367,0.7587891,0.3452148,-1,1,0,-1,0,1,2,-1,1,-5,-3,2,-1,-1,-1,-1,-3.0625,-3.0625,-3.0625,-22.1875,-22.1875,-22.1875,7.264697,3.251611,2.926453,6.615821,3.91479,8.531639,-0.8204635,-0.6783574,1.314755,-0.6941651,-0.5612292,1.48353,-0.8091017,-0.1114371,1.499227,-0.7915741,-0.6776281,1.341389,-0.7488647,-0.5199248,1.511019,-0.8042998,-0.4712441,1.551362,-0.7750659,-0.7207705,1.567587,-0.9156827,-0.3012951,1.449944,-0.8064538,-0.7156571,1.507179,-0.9737923,-0.503212,1.444785,-0.6293221,-0.474882,1.686926,NA,NA,Unknown,Unknown,
0.8730469,0.4472656,0.08056641,0.8349609,0.6889648,0.3256836,-1,-1,-1,0,0,-1,-2,1,-5,4,0,-4,-2,-3,-4,-4,-1.5625,-1.5625,-1.5625,-14.75,-14.75,-14.75,7.270935,3.248401,2.913942,6.617631,3.741741,8.460546,-0.8272381,-0.6841488,1.27725,-0.6949146,-0.5616003,1.484115,-0.8089369,-0.1105474,1.499002,-0.7738521,-0.684108,1.257125,-0.7500863,-0.5245181,1.501364,-0.8041072,-0.4711668,1.551275,-0.7749109,-0.7205653,1.567605,-0.9156857,-0.3012712,1.450176,-0.8063039,-0.7154605,1.507223,-0.9580799,-0.5077264,1.443135,-0.6294606,-0.4747533,1.687409,NA,NA,Unknown,Unknown,
0.8657227,0.4365234,0.07373047,0.8398438,0.4970703,0.5092773,-1,-2,-1,0,-1,2,1,-1,-3,5,0,-1,3,-2,0,1,-5.4375,-5.4375,-5.4375,-13,-13,-13,7.277198,3.245053,2.89872,6.602945,3.654096,8.421431,-0.8323936,-0.6892232,1.279177,-0.6967703,-0.5642686,1.482744,-0.8087919,-0.111185,1.498703,-0.7793278,-0.680672,1.245,-0.7483957,-0.516915,1.520046,-0.8038548,-0.4718485,1.551128,-0.7746175,-0.721449,1.567116,-0.9156624,-0.3015652,1.450398,-0.8058804,-0.7164407,1.5066,-0.9585435,-0.5079207,1.442613,-0.6289451,-0.4753636,1.685081,NA,NA,Unknown,Unknown,
0.8608398,0.4345703,0.08300781,0.8134766,0.7250977,0.4272461,-1,0,-2,-1,0,0,1,0,-6,4,-2,-2,-6,-2,-4,1,1.4375,1.4375,1.4375,46,46,46,7.276668,3.238133,2.895908,6.630869,3.628788,8.46051,-0.819016,-0.6960586,1.274482,-0.6918899,-0.5615887,1.489933,-0.8087975,-0.11257,1.498951,-0.7770842,-0.7040352,1.289096,-0.7357658,-0.5181476,1.515769,-0.8038878,-0.4735633,1.550966,-0.7750142,-0.7225299,1.567083,-0.9156398,-0.3019687,1.45062,-0.8062724,-0.7173853,1.506666,-0.9684487,-0.5056107,1.443325,-0.6393535,-0.4776224,1.694442,NA,NA,Unknown,Unknown,
0.8618164,0.4462891,0.08251953,0.734375,0.5932617,0.3320313,-2,2,-3,-4,0,-2,-3,-2,-1,1,1,0,-2,1,-3,0,0.25,0.25,0.25,-11.9375,-11.9375,-11.9375,7.274338,3.233766,2.89903,6.610754,3.63838,8.49202,-0.8348566,-0.687255,1.277735,-0.6887129,-0.566789,1.488028,-0.8087757,-0.1132091,1.499126,-0.7955166,-0.689449,1.27385,-0.7477639,-0.5253435,1.517269,-0.8039249,-0.4736834,1.550935,-0.7750625,-0.7227442,1.566995,-0.9156572,-0.3021123,1.450779,-0.8063677,-0.7175643,1.506544,-0.9707741,-0.5049952,1.445111,-0.6398819,-0.4778269,1.695026,NA,NA,Unknown,Unknown,
0.8608398,0.4521484,0.08642578,0.7363281,0.5639648,0.3334961,0,-1,-2,3,-1,-1,-2,-1,1,2,0,0,0,1,-2,-1,3.5,3.5,3.5,-3.9375,-3.9375,-3.9375,7.270453,3.23213,2.90996,6.585597,3.631996,8.499311,-0.807146,-0.6945572,1.266521,-0.6916839,-0.5662937,1.484894,-0.8087715,-0.1127235,1.499074,-0.7572461,-0.6998104,1.275478,-0.7471675,-0.5249736,1.511576,-0.8039146,-0.4732014,1.550948,-0.7749444,-0.7224815,1.567088,-0.915646,-0.3020446,1.450842,-0.8062729,-0.7173531,1.506607,-0.9669856,-0.506056,1.445307,-0.6365014,-0.4769765,1.693721,NA,NA,Unknown,Unknown,
0.8876953,0.4145508,0.08398438,0.7763672,0.6010742,0.3388672,0,1,-3,4,0,-1,2,0,-1,-1,4,3,-1,2,0,1,0,0,0,-12.5625,-12.5625,-12.5625,7.256851,3.236224,2.924041,6.583306,3.620262,8.48793,-0.8317454,-0.6862022,1.27979,-0.6938389,-0.5674906,1.483297,-0.8088015,-0.1124645,1.499088,-0.7802621,-0.6850567,1.2528,-0.7487845,-0.5270913,1.505988,-0.804061,-0.4722202,1.551059,-0.7747448,-0.7220896,1.567145,-0.9156389,-0.3020356,1.450883,-0.8060837,-0.7169253,1.506771,-0.9721028,-0.5044664,1.445961,-0.6313198,-0.4760536,1.690851,NA,NA,NotTracked,Unknown,
0.8754883,0.4106445,0.07519531,0.7573242,0.5263672,0.3632813,-3,-1,-2,-2,-1,-3,-2,1,-1,-3,-6,0,-3,-1,-3,-2,-0.875,-0.875,-0.875,-20.3125,-20.3125,-20.3125,7.239063,3.238715,2.941722,6.551998,3.614908,8.468643,-0.8191386,-0.6878508,1.286307,-0.6949677,-0.5670725,1.483106,-0.808795,-0.1125008,1.499094,-0.7701336,-0.6963202,1.276031,-0.749373,-0.5271003,1.508109,-0.8045482,-0.4720259,1.55103,-0.7756431,-0.7221788,1.566995,-0.915634,-0.3020823,1.450941,-0.8073726,-0.7169354,1.506628,-0.9731494,-0.504173,1.446092,-0.6335096,-0.4764851,1.692001,NA,NA,Unknown,Unknown,
0.8632813,0.4082031,0.06591797,0.7558594,0.5068359,0.3515625,1,-5,1,-3,0,0,1,-2,-2,-5,-3,-1,1,-1,-2,0,-3.9375,-3.9375,-3.9375,-3.8125,-3.8125,-3.8125,7.209636,3.23902,2.969738,6.534647,3.610475,8.470316,-0.8185263,-0.6892695,1.284353,-0.6940843,-0.5619203,1.486814,-0.8088325,-0.1126548,1.499112,-0.774816,-0.6988127,1.289733,-0.7359581,-0.5230576,1.500217,-0.804578,-0.4720154,1.551058,-0.775638,-0.7222325,1.566959,-0.9156323,-0.30215,1.450978,-0.8073384,-0.7169979,1.506602,-0.9738169,-0.5039675,1.447317,-0.6365935,-0.4765454,1.694377,NA,NA,Unknown,Unknown,
0.8798828,0.4462891,0.08789063,0.7661133,0.5292969,0.3505859,-2,0,-3,-2,0,-1,-1,-1,-2,1,-2,0,1,0,-2,-3,-5.375,-5.375,-5.375,0.25,0.25,0.25,7.190382,3.238043,2.985444,6.531044,3.603574,8.476636,-0.8243896,-0.6799064,1.321929,-0.6923084,-0.5648933,1.486085,-0.808785,-0.1127388,1.499214,-0.788007,-0.6895095,1.3315,-0.7494959,-0.5223755,1.516143,-0.8046212,-0.471839,1.551122,-0.7754983,-0.7222037,1.567012,-0.9156274,-0.3021723,1.451062,-0.8071829,-0.7169957,1.506714,-0.9754396,-0.5034193,1.448017,-0.6338695,-0.4759679,1.693623,NA,NA,NotTracked,Unknown,
0.8867188,0.4257813,0.1157227,0.7558594,0.5268555,0.3564453,-1,1,-2,-1,-2,-1,-1,-1,2,-2,-3,0,5,-3,0,-1,0.0625,0.0625,0.0625,-3.125,-3.125,-3.125,7.176156,3.236701,2.994279,6.526467,3.593537,8.480061,-0.8312855,-0.6791481,1.281539,-0.6947638,-0.5637825,1.483181,-0.8088234,-0.1112052,1.499009,-0.7825623,-0.6789734,1.265333,-0.6412929,-0.621335,1.492392,-0.8043365,-0.4707588,1.551194,-0.774386,-0.7211848,1.567104,-0.9156239,-0.3018894,1.45123,-0.8058003,-0.7160284,1.506748,-0.9685831,-0.5054244,1.445737,-0.6299422,-0.4755862,1.689305,NA,NA,Unknown,Unknown,
0.8608398,0.4306641,0.1259766,0.7739258,0.5283203,0.3730469,-1,-2,1,-3,-2,0,1,0,-11,-6,-4,-3,0,-5,-1,0,3,3,3,-0.3125,-0.3125,-0.3125,7.159676,3.236929,3.01557,6.522009,3.582261,8.48387,-0.8163771,-0.6837737,1.284029,-0.6964245,-0.5613953,1.483099,-0.8085783,-0.109427,1.498776,-0.7817073,-0.6914183,1.306818,-0.6531875,-0.6167874,1.503936,-0.8037319,-0.4703429,1.551411,-0.7738082,-0.7195669,1.567702,-0.9153867,-0.3003163,1.449575,-0.8048785,-0.7145106,1.507321,-0.9723265,-0.5024217,1.448275,-0.6297114,-0.4724057,1.688522,NA,NA,Unknown,Unknown,
0.8564453,0.4174805,0.1503906,0.7714844,0.5214844,0.3769531,2,1,-3,0,-2,0,-1,-1,5,2,-1,1,2,0,1,-1,0.5,0.5,0.5,-5.1875,-5.1875,-5.1875,7.134105,3.240044,3.043302,6.511501,3.578188,8.488605,-0.8173729,-0.6856779,1.283516,-0.6972851,-0.5619287,1.482475,-0.8084535,-0.1091943,1.498601,-0.7651722,-0.6944864,1.283,-0.6607558,-0.6157063,1.511489,-0.8037598,-0.4702285,1.551353,-0.7738575,-0.7194619,1.567734,-0.915404,-0.3003924,1.449792,-0.8049405,-0.7144375,1.507387,-0.9721283,-0.5026435,1.447153,-0.6314654,-0.4720767,1.690145,NA,NA,Unknown,Unknown,
0.8774414,0.4179688,0.1777344,0.78125,0.5004883,0.3779297,1,-3,-2,3,1,0,-2,0,9,5,-2,-3,-1,4,1,0,1.375,1.375,1.375,-6.6875,-6.6875,-6.6875,7.10253,3.242919,3.074914,6.493592,3.58024,8.496507,-0.8191152,-0.687829,1.28574,-0.6931026,-0.5568061,1.487713,-0.8084779,-0.1096216,1.498694,-0.7780288,-0.6953296,1.294542,-0.6543342,-0.6090904,1.525263,-0.8037965,-0.470292,1.551396,-0.7737191,-0.7199891,1.567746,-0.9154164,-0.3007649,1.450243,-0.8048599,-0.7149684,1.507354,-0.973133,-0.5026669,1.448088,-0.6358036,-0.4732539,1.693385,NA,NA,Unknown,Unknown,
0.8793945,0.4033203,0.1870117,0.7905273,0.503418,0.3979492,0,-2,-3,-3,-1,-2,-1,0,5,1,-3,-4,-1,-1,-1,-1,-1.0625,-1.0625,-1.0625,-4.875,-4.875,-4.875,7.077805,3.241645,3.097501,6.474396,3.587294,8.507792,-0.8179029,-0.6858362,1.284738,-0.6929252,-0.5638338,1.486084,-0.8085111,-0.1103151,1.498869,-0.7718572,-0.6914297,1.284191,-0.6454428,-0.6199968,1.503182,-0.8037522,-0.4707793,1.551152,-0.7734618,-0.7205434,1.567522,-0.9153972,-0.301011,1.450412,-0.804595,-0.7156535,1.507037,-0.9740227,-0.5026025,1.448455,-0.6368287,-0.4738558,1.694454,NA,NA,Unknown,Unknown,
0.8808594,0.4243164,0.203125,0.7905273,0.503418,0.3979492,-3,2,0,1,-1,-2,-1,0,-3,-7,-2,0,-1,-1,-3,1,5,5,5,-4.875,-4.875,-4.875,7.052167,3.236002,3.12745,6.474396,3.587294,8.507792,-0.8361697,-0.6777947,1.284681,-0.7116814,-0.5747265,1.470079,-0.8084048,-0.1095024,1.498382,-0.7910837,-0.673413,1.257715,-0.6674824,-0.638237,1.481032,-0.8035439,-0.4704352,1.550938,-0.7733534,-0.7192072,1.567407,-0.915403,-0.3009276,1.450545,-0.8044569,-0.7144103,1.506858,-0.9768091,-0.5015951,1.44838,-0.6324812,-0.4719468,1.688794,NA,NA,Unknown,Unknown,
0.8452148,0.4404297,0.1875,0.8193359,0.456543,0.4492188,1,-1,2,-2,-1,0,1,1,5,-6,1,0,0,3,1,-1,2.5,2.5,2.5,-5.1875,-5.1875,-5.1875,7.022908,3.234428,3.16531,6.42443,3.611451,8.538067,-0.8069552,-0.6888149,1.263744,-0.6956583,-0.5624182,1.482562,-0.8084021,-0.1087559,1.497842,-0.7681206,-0.6925603,1.284333,-0.6492218,-0.6165755,1.503747,-0.8033326,-0.470115,1.550795,-0.7729871,-0.7192013,1.567302,-0.9154005,-0.3008757,1.450655,-0.8040007,-0.7144447,1.506787,-0.9688387,-0.504295,1.444675,-0.6306524,-0.4719229,1.687177,NA,NA,Unknown,Unknown,
0.8486328,0.434082,0.2011719,0.7607422,0.4633789,0.4355469,-1,0,-2,1,1,1,4,1,-1,-5,-2,-1,-2,0,1,0,2.5,2.5,2.5,6.5625,6.5625,6.5625,6.999026,3.241416,3.194379,6.393309,3.634953,8.581896,-0.800714,-0.6939684,1.263217,-0.6955654,-0.565379,1.48249,-0.8084468,-0.1090215,1.498142,-0.7571903,-0.7012062,1.276188,-0.6532567,-0.6207716,1.503842,-0.8034449,-0.4702961,1.550811,-0.7731444,-0.7193573,1.567263,-0.9153929,-0.3009446,1.45079,-0.8042885,-0.7146088,1.506667,-0.963423,-0.5060096,1.44147,-0.6324348,-0.4725105,1.689501,NA,NA,Unknown,Unknown,
0.8754883,0.4125977,0.2026367,0.7089844,0.4819336,0.4077148,0,2,2,-2,-2,0,-1,1,2,2,-2,-3,2,3,0,2,-0.5625,-0.5625,-0.5625,0.25,0.25,0.25,6.980498,3.248189,3.212157,6.382336,3.649789,8.601521,-0.8159744,-0.6869261,1.28181,-0.6929768,-0.5634884,1.485205,-0.8087143,-0.1097375,1.49818,-0.7674042,-0.6952873,1.278154,-0.6534803,-0.6180885,1.510897,-0.8030531,-0.4714094,1.550702,-0.7729383,-0.7200184,1.566907,-0.9153734,-0.301059,1.450845,-0.804072,-0.7152382,1.506258,-0.9728542,-0.5031911,1.445509,-0.6362552,-0.4736563,1.693017,NA,NA,Unknown,Unknown,
0.8969727,0.4077148,0.1831055,0.7524414,0.5,0.4511719,-1,-1,1,-1,0,-4,0,-3,0,-1,-1,1,-1,-1,-3,-1,-0.875,-0.875,-0.875,3.5625,3.5625,3.5625,6.964468,3.249755,3.22594,6.355138,3.641392,8.636246,-0.7979946,-0.6896833,1.263918,-0.6948208,-0.5647343,1.483528,-0.8088027,-0.1099202,1.498372,-0.7610728,-0.6978423,1.280818,-0.6473306,-0.6205692,1.501911,-0.8031227,-0.4713222,1.550691,-0.7729802,-0.7200356,1.566872,-0.9153734,-0.3010895,1.450915,-0.8041422,-0.71524,1.506247,-0.9147605,-0.4835947,1.403013,-0.6330922,-0.4742078,1.689182,NA,NA,Unknown,Unknown,
0.8735352,0.4077148,0.159668,0.7709961,0.4814453,0.4467773,0,0,-3,1,-1,-3,-1,-1,-1,4,1,0,0,0,0,-1,5.5625,5.5625,5.5625,-1,-1,-1,6.938346,3.242485,3.258332,6.347744,3.636422,8.643839,-0.7806851,-0.6888865,1.25919,-0.6983002,-0.5611182,1.478031,-0.8088252,-0.1095021,1.498384,-0.7452241,-0.6955057,1.272191,-0.6495603,-0.6162217,1.500024,-0.8032271,-0.470304,1.55073,-0.7727345,-0.7194126,1.566777,-0.9153872,-0.3010091,1.450957,-0.8039589,-0.7145658,1.506173,-0.9099854,-0.4875171,1.402753,-0.6301184,-0.4737897,1.687131,NA,NA,Unknown,NotTracked,
0.8710938,0.4262695,0.1552734,0.7338867,0.5068359,0.4091797,-2,1,1,0,2,0,-1,-3,-5,-2,-2,-3,1,-2,0,-1,14.5,14.5,14.5,6.6875,6.6875,6.6875,6.932729,3.233213,3.287987,6.349122,3.634395,8.659088,-0.8299731,-0.6833338,1.274951,-0.698917,-0.5616721,1.478815,-0.8090872,-0.108361,1.497973,-0.7925903,-0.6784012,1.282695,-0.6575916,-0.617003,1.505536,-0.80287,-0.4701623,1.550579,-0.7723275,-0.7192225,1.566716,-0.9153985,-0.3009077,1.450994,-0.803472,-0.7143819,1.506094,-0.9687088,-0.5043004,1.446593,-0.6289421,-0.473584,1.686246,NA,NA,Unknown,Unknown,
