ALX,ALY,ALZ,ARX,ARY,ARZ,EMG0L,EMG1L,EMG2L,EMG3L,EMG4L,EMG5L,EMG6L,EMG7L,EMG0R,EMG1R,EMG2R,EMG3R,EMG4R,EMG5R,EMG6R,EMG7R,GLX,GLY,GLZ,GRX,GRY,GRZ,ORL,OPL,OYL,ORR,OPR,OYR,LHNX,LHNY,LHNZ,RHNX,RHNY,RHNZ,HX,HY,HZ,LTX,LTY,LTZ,RTX,RTY,RTZ,SpineMidX,SpineMidY,SpineMidZ,SpineBaseX,SpineBaseY,SpineBaseZ,ShoulderLeftX,ShoulderLeftY,ShoulderLeftZ,ShoulderRightX,ShoulderRightY,ShoulderRightZ,ElbowLeftX,ElbowLeftY,ElbowLeftZ,ElbowRightX,ElbowRightY,ElbowRightZ,Myo_Pose_left,Myo_Pose_Right,Kinect_pose_left,Kinect_pose_right
-0.09814453,0.6259766,0.8168945,-0.1723633,0.9248047,0.3461914,-2,-6,1,4,-1,-1,0,-2,-3,-4,-6,0,-5,1,0,1,0.4375,0.4375,0.4375,2.375,2.375,2.375,6.036445,5.113294,5.00462,6.926476,5.254579,8.774405,-0.124109,-0.06493479,1.259015,-0.04506357,-0.07683542,1.260579,-0.1076942,0.3839948,1.442038,-0.1279251,-0.1168508,1.28624,-0.05138386,-0.1032752,1.264821,-0.1117686,-0.07173264,1.469084,-0.118736,-0.3867437,1.457874,-0.2929959,0.1241862,1.498951,-0.1984317,-0.3806652,1.425444,-0.3622537,-0.08540806,1.504591,0.1326919,-0.09931961,1.407427,NA,NA,NotTracked,NotTracked,
-0.09130859,0.6186523,0.8168945,-0.1748047,0.9389648,0.3461914,4,3,3,-1,-1,-2,-1,-2,4,-4,-4,0,1,-1,1,2,-1.4375,-1.4375,-1.4375,0,0,0,6.034516,5.112131,5.003134,6.929924,5.255116,8.771955,-0.1253142,-0.06370597,1.260977,-0.04412033,-0.07550233,1.26164,-0.1081873,0.3840864,1.442745,-0.1219464,-0.1170681,1.278999,-0.08376572,-0.09861542,1.217665,-0.1123372,-0.07140432,1.470436,-0.1192959,-0.386298,1.459406,-0.2936846,0.1248031,1.500206,-0.1990455,-0.38017,1.427096,-0.3644701,-0.08439213,1.507561,0.1325817,-0.09900829,1.409114,NA,NA,NotTracked,NotTracked,
-0.08935547,0.625,0.8222656,-0.1728516,0.9370117,0.3393555,-3,-4,0,4,-2,1,-2,-2,-3,6,0,1,-6,-2,-1,1,-2.375,-2.375,-2.375,3.3125,3.3125,3.3125,6.03115,5.108817,5.001902,6.933488,5.254555,8.770729,-0.1341704,-0.0682547,1.269748,-0.04398702,-0.07463042,1.263135,-0.1087044,0.3844754,1.4435,-0.1303194,-0.1178145,1.274351,-0.05203037,-0.1019419,1.269786,-0.1127921,-0.07110387,1.471414,-0.1194756,-0.385971,1.460443,-0.2946784,0.1252199,1.501452,-0.1992361,-0.3798282,1.427996,-0.373035,-0.08268823,1.523352,0.1323472,-0.09814174,1.410428,NA,NA,NotTracked,NotTracked,
-0.08886719,0.6289063,0.8154297,-0.1694336,0.9335938,0.3427734,0,2,-2,-4,1,-1,1,0,4,-2,-2,-4,0,-3,-3,-1,-0.75,-0.75,-0.75,-2.0625,-2.0625,-2.0625,6.027243,5.105684,5.002563,6.933878,5.254869,8.770913,-0.1287913,-0.06676593,1.265654,-0.04576501,-0.07476883,1.262645,-0.1091724,0.3847426,1.444046,-0.1251505,-0.1178873,1.281536,-0.05023588,-0.1027158,1.273385,-0.1130603,-0.07088177,1.47216,-0.1197801,-0.3858758,1.461337,-0.2949948,0.1254204,1.502044,-0.1996102,-0.3796793,1.428916,-0.3664297,-0.08415032,1.514024,0.1324044,-0.09737574,1.412438,NA,NA,NotTracked,NotTracked,
-0.09082031,0.6240234,0.8276367,-0.1674805,0.9370117,0.3291016,-1,-1,0,-2,0,-1,-5,-2,3,5,-1,1,-1,0,-1,0,-0.9375,-0.9375,-0.9375,0.5625,0.5625,0.5625,6.026615,5.104023,5.003219,6.933214,5.255217,8.77109,-0.1278413,-0.06849997,1.266394,-0.04781649,-0.07617531,1.263112,-0.1095145,0.3848377,1.444682,-0.1252227,-0.1200412,1.28872,-0.05229383,-0.1041668,1.274526,-0.11322,-0.07071482,1.472831,-0.1199788,-0.3856703,1.462084,-0.2954293,0.1254234,1.502798,-0.1997553,-0.3794501,1.429384,-0.3653141,-0.08387438,1.513741,0.1318154,-0.09682653,1.412758,NA,NA,NotTracked,NotTracked,
-0.09130859,0.6269531,0.8320313,-0.1665039,0.9379883,0.3320313,2,3,-1,-2,-1,0,1,-1,0,-2,1,0,-1,1,-2,-1,1.8125,1.8125,1.8125,-2.1875,-2.1875,-2.1875,6.028502,5.10482,5.003957,6.932412,5.255253,8.772254,-0.1217529,-0.06643895,1.262764,-0.0465048,-0.0769638,1.263866,-0.1096543,0.3848146,1.445235,-0.1265352,-0.1185895,1.283844,-0.05782692,-0.1041998,1.267166,-0.1132265,-0.07091435,1.473379,-0.1199036,-0.3860589,1.462678,-0.2955886,0.1252763,1.503868,-0.1997277,-0.3799978,1.429908,-0.3592875,-0.0867996,1.507244,0.1319708,-0.09720547,1.413984,NA,NA,NotTracked,NotTracked,
-0.08642578,0.6103516,0.8330078,-0.1694336,0.9355469,0.3339844,-4,-7,-6,-2,-2,-3,-1,1,1,0,-4,-2,-5,1,0,2,2,2,2,-0.1875,-0.1875,-0.1875,6.029891,5.107341,5.00198,6.932355,5.256014,8.772591,-0.1230429,-0.06529717,1.264236,-0.04649903,-0.07706264,1.26427,-0.1097242,0.3849593,1.446056,-0.09705979,-0.1144767,1.262056,-0.05332945,-0.1047791,1.275265,-0.1133596,-0.07109565,1.473845,-0.1199557,-0.3864482,1.462987,-0.2954561,0.1245725,1.504306,-0.1998186,-0.3802625,1.430024,-0.3602436,-0.08620612,1.509173,0.1320367,-0.09720112,1.414525,NA,NA,NotTracked,NotTracked,
-0.1054688,0.6196289,0.8232422,-0.1679688,0.9389648,0.340332,2,-1,-1,-1,0,4,1,0,11,4,0,4,0,-1,0,-2,1.1875,1.1875,1.1875,-1.0625,-1.0625,-1.0625,6.03154,5.110418,5.000813,6.932515,5.256875,8.772903,-0.1451719,-0.04814723,1.271976,-0.04381434,-0.07595909,1.266108,-0.1097468,0.3852797,1.446919,-0.1243728,-0.08934063,1.224905,-0.0547468,-0.1040734,1.272195,-0.1133858,-0.07097054,1.474432,-0.1199418,-0.3864503,1.46327,-0.295518,0.124933,1.505573,-0.1998089,-0.3802504,1.430305,-0.3590452,-0.08539843,1.508335,0.1330111,-0.0967434,1.415351,NA,NA,NotTracked,NotTracked,
-0.09179688,0.6137695,0.8217773,-0.1689453,0.9262695,0.34375,1,-1,0,-1,2,0,0,-2,-3,-3,-2,-1,-5,-1,-4,-4,-0.625,-0.625,-0.625,0.0625,0.0625,0.0625,6.029008,5.108142,5.000169,6.931777,5.260071,8.774565,-0.09790701,-0.06335289,1.25066,-0.04443215,-0.07643594,1.265982,-0.1096673,0.3855075,1.447791,-0.09393964,-0.1097085,1.252185,-0.06303963,-0.1050694,1.266042,-0.1133231,-0.07091356,1.474784,-0.1199254,-0.3864695,1.463445,-0.2950689,0.1250395,1.506263,-0.1998303,-0.3801623,1.430359,-0.3590996,-0.08362103,1.510531,0.132756,-0.0965937,1.415439,NA,NA,NotTracked,NotTracked,
-0.08496094,0.6142578,0.8134766,-0.1655273,0.9199219,0.3422852,-1,-2,2,-2,-2,2,-4,1,-4,0,-2,-1,-2,1,-1,-3,-0.375,-0.375,-0.375,-0.5625,-0.5625,-0.5625,6.028994,5.104578,5.000408,6.932024,5.258962,8.778123,-0.09742979,-0.06338552,1.25054,-0.04302169,-0.0776566,1.266891,-0.1093895,0.3856325,1.448544,-0.1182225,-0.09712116,1.225981,-0.05828718,-0.1048214,1.270095,-0.1130485,-0.07093224,1.475391,-0.1195938,-0.3866324,1.463762,-0.2946847,0.1247122,1.507178,-0.1995478,-0.3803074,1.430685,-0.3523067,-0.08642507,1.50525,0.1339924,-0.09583586,1.41645,NA,NA,NotTracked,NotTracked,
-0.07568359,0.6162109,0.8300781,-0.171875,0.9370117,0.3305664,-1,-5,-2,-1,-3,-2,-2,0,-6,-2,1,1,2,-4,0,-4,-1.9375,-1.9375,-1.9375,2.0625,2.0625,2.0625,6.026723,5.098925,5.001311,6.937385,5.257492,8.782449,-0.1022895,-0.0602029,1.248325,-0.04260921,-0.07813179,1.266962,-0.1092575,0.3858444,1.449432,-0.115252,-0.09514387,1.224591,-0.05600308,-0.1050099,1.27061,-0.1125406,-0.07100224,1.476094,-0.1192058,-0.3866869,1.464294,-0.2939008,0.1242114,1.507652,-0.1990279,-0.3805475,1.432047,-0.3518129,-0.08888009,1.505574,0.1345269,-0.09606587,1.41694,NA,NA,NotTracked,NotTracked,
-0.08154297,0.6206055,0.8378906,-0.1611328,0.934082,0.3325195,3,2,1,1,-1,-1,1,-1,-2,-3,1,1,1,-2,1,-1,-3,-3,-3,0.5,0.5,0.5,6.019925,5.090263,5.003755,6.940372,5.253684,8.789592,-0.09922581,-0.07789537,1.264328,-0.04252975,-0.07806228,1.268813,-0.1090972,0.3859296,1.449716,-0.0939894,-0.1221849,1.29402,-0.08532984,-0.1050644,1.232183,-0.1120244,-0.0706445,1.477237,-0.1187129,-0.3862679,1.465726,-0.2931282,0.1250278,1.50962,-0.1984306,-0.3800882,1.433965,-0.3491616,-0.0874223,1.502625,0.133925,-0.09639494,1.416734,NA,NA,NotTracked,NotTracked,
-0.08105469,0.6186523,0.8320313,-0.1699219,0.9335938,0.3232422,-6,-3,-4,0,-4,0,-2,-2,1,-2,-5,-3,-4,1,-6,-3,-0.875,-0.875,-0.875,3.0625,3.0625,3.0625,6.017056,5.085048,5.004605,6.945389,5.2526,8.793894,-0.1644574,-0.01866204,1.319108,-0.06346972,-0.08310471,1.27395,-0.1088974,0.3861617,1.450069,-0.1099762,0.006064101,1.339776,-0.05750629,-0.1574601,1.312211,-0.1116598,-0.07014001,1.478141,-0.1179615,-0.3855633,1.467396,-0.2925137,0.1255478,1.51094,-0.1976366,-0.379147,1.435849,-0.3771327,-0.08716982,1.563441,0.1338467,-0.09651133,1.416717,NA,NA,NotTracked,NotTracked,
-0.07763672,0.6254883,0.831543,-0.1743164,0.9438477,0.3291016,0,-2,-5,1,1,-2,-1,1,-3,-1,0,4,-2,3,-3,0,0.6875,0.6875,0.6875,2.9375,2.9375,2.9375,6.018874,5.081542,5.005951,6.954525,5.250686,8.802558,-0.09517513,-0.06691576,1.25328,-0.04322744,-0.0789113,1.268809,-0.108805,0.3864026,1.450433,-0.1267488,-0.02547294,1.256418,-0.08203171,-0.1033704,1.229833,-0.1112064,-0.06995989,1.47919,-0.1174148,-0.3856885,1.469296,-0.2915554,0.1256025,1.511669,-0.1972627,-0.3792955,1.437544,-0.3571823,-0.08753407,1.530007,0.1340147,-0.09662358,1.416765,NA,NA,NotTracked,NotTracked,
-0.07519531,0.6030273,0.8349609,-0.1791992,0.9301758,0.331543,0,-4,9,2,-1,-1,0,-2,1,2,-3,0,-1,-2,-3,0,2.1875,2.1875,2.1875,2.5625,2.5625,2.5625,6.019907,5.081662,5.006838,6.95821,5.252285,8.806515,-0.1428068,-0.02808571,1.306273,-0.06365318,-0.08222915,1.273899,-0.1086913,0.3864915,1.450565,-0.09454187,0.00711879,1.337896,-0.05779017,-0.1573128,1.312777,-0.1103881,-0.06994273,1.480309,-0.1167282,-0.3857809,1.471252,-0.2903816,0.1254793,1.511823,-0.1966154,-0.3795887,1.440113,-0.3500892,-0.09018829,1.520792,0.1343695,-0.09669787,1.416893,NA,NA,NotTracked,NotTracked,
-0.06835938,0.6152344,0.8271484,-0.1748047,0.9316406,0.3217773,0,1,1,-4,2,-2,-2,-2,0,-7,0,-4,2,-1,-4,-1,0.6875,0.6875,0.6875,2.75,2.75,2.75,6.025057,5.083313,5.006294,6.962956,5.255199,8.806316,-0.14994,-0.02766626,1.312132,-0.06363544,-0.08083726,1.273164,-0.1087649,0.3860686,1.450674,-0.1006084,0.005801735,1.343113,-0.06525051,-0.1364066,1.314774,-0.1097275,-0.07053722,1.481838,-0.1160807,-0.3863277,1.473702,-0.2894886,0.1245758,1.512668,-0.1959176,-0.3802536,1.442962,-0.3510796,-0.08990677,1.523433,0.134502,-0.09712823,1.416871,NA,NA,NotTracked,NotTracked,
-0.05615234,0.5991211,0.8369141,-0.1640625,0.9375,0.3291016,0,3,1,0,-1,1,-1,5,4,2,-3,-4,-2,2,-1,-2,2.25,2.25,2.25,0.4375,0.4375,0.4375,6.025179,5.08227,5.003285,6.965123,5.256581,8.805076,-0.1366291,-0.03874138,1.302146,-0.06264423,-0.08210418,1.272754,-0.1090926,0.3836057,1.450703,-0.0884629,-0.003743558,1.342052,-0.1076205,-0.1235279,1.271111,-0.1085348,-0.07249333,1.484215,-0.1146744,-0.3876298,1.476088,-0.2882456,0.1210147,1.513923,-0.1945718,-0.3817273,1.445779,-0.3478753,-0.09350936,1.522833,0.1360656,-0.09889971,1.418037,NA,NA,NotTracked,NotTracked,
-0.04980469,0.6079102,0.8237305,-0.1542969,0.934082,0.3095703,-2,0,-1,-6,0,-3,-3,-2,1,-3,-4,4,-2,2,-1,2,0.4375,0.4375,0.4375,1.375,1.375,1.375,6.027474,5.077537,4.999715,6.968567,5.257724,8.800386,-0.151092,-0.02927176,1.317709,-0.06343098,-0.082248,1.275582,-0.1096402,0.3796704,1.449889,-0.1032051,0.00276726,1.350028,-0.051957,-0.1546281,1.323,-0.1077133,-0.07506353,1.486711,-0.1139645,-0.3893046,1.478497,-0.2877734,0.1194579,1.5158,-0.1938935,-0.383483,1.448129,-0.3467114,-0.09577686,1.524364,0.1373503,-0.09994001,1.419098,NA,NA,NotTracked,NotTracked,
-0.05615234,0.6064453,0.8129883,-0.1699219,0.9306641,0.3027344,0,-1,2,1,0,0,-1,0,-1,-1,-1,-1,-3,2,-1,-1,-3,-3,-3,3.9375,3.9375,3.9375,6.022772,5.064507,4.994444,6.973926,5.25561,8.799623,-0.1418982,-0.06783064,1.303143,-0.07893914,-0.07339379,1.259847,-0.110613,0.3761725,1.448141,-0.1500648,-0.02379929,1.305379,-0.08239049,-0.1102833,1.258649,-0.1068997,-0.07665296,1.488992,-0.1127335,-0.3899126,1.481219,-0.2876065,0.1191372,1.517877,-0.1926957,-0.3841399,1.450809,-0.3443353,-0.09677905,1.52556,0.1371457,-0.1000879,1.419866,NA,NA,NotTracked,NotTracked,
-0.06640625,0.6201172,0.824707,-0.1708984,0.9316406,0.3032227,0,5,4,0,1,0,-2,1,-3,-6,0,-2,-2,0,0,-3,-3.1875,-3.1875,-3.1875,10.6875,10.6875,10.6875,6.017976,5.048518,4.990075,6.988711,5.249605,8.797213,-0.1374172,-0.07100856,1.300576,-0.07841866,-0.07419892,1.262279,-0.1114836,0.3738416,1.44659,-0.1482447,-0.02538185,1.30739,-0.0851417,-0.1025194,1.236632,-0.1062816,-0.07741398,1.490494,-0.1117342,-0.3902717,1.483666,-0.2880573,0.1197129,1.517194,-0.1919035,-0.3843839,1.452616,-0.3415475,-0.09572244,1.522524,0.1375506,-0.09948725,1.423241,NA,NA,NotTracked,NotTracked,
-0.06445313,0.6401367,0.831543,-0.1777344,0.9438477,0.3164063,0,0,-1,0,-1,-1,1,1,2,-1,-4,-1,-2,0,0,2,-1,-1,-1,9.9375,9.9375,9.9375,6.017089,5.032347,4.986351,7.006986,5.239004,8.789967,-0.1756825,-0.05731383,1.302348,-0.07737774,-0.07500686,1.263202,-0.1120852,0.3728123,1.445692,-0.1547554,-0.03003839,1.295717,-0.08520543,-0.1055389,1.238585,-0.1058888,-0.07782515,1.491758,-0.1111791,-0.3902887,1.485969,-0.2888543,0.120904,1.516035,-0.1912384,-0.3843337,1.455465,-0.3426971,-0.09903575,1.527793,0.1394042,-0.09833928,1.428257,NA,NA,NotTracked,NotTracked,
-0.05761719,0.6347656,0.8354492,-0.1767578,0.9677734,0.3164063,0,-2,-2,-2,-3,1,-1,1,0,1,0,1,-8,0,-3,-5,5.25,5.25,5.25,3.0625,3.0625,3.0625,6.024422,5.022427,4.979421,7.014204,5.234815,8.782137,-0.1361531,-0.08640678,1.31298,-0.07666475,-0.07414366,1.264621,-0.1126427,0.373112,1.445027,-0.1424641,-0.03014441,1.296656,-0.08669315,-0.1050503,1.240395,-0.1056243,-0.07741627,1.492787,-0.1104821,-0.3890752,1.488339,-0.2895658,0.1224188,1.515096,-0.1905008,-0.3830054,1.457832,-0.342381,-0.0985409,1.528225,0.1392993,-0.09658822,1.430041,NA,NA,NotTracked,NotTracked,
-0.05419922,0.628418,0.8374023,-0.175293,0.9682617,0.3193359,-1,0,-2,-3,-1,-4,0,0,1,-5,-1,-1,-1,-3,-2,2,4.25,4.25,4.25,-0.0625,-0.0625,-0.0625,6.032559,5.024712,4.971621,7.012986,5.238896,8.77529,-0.1470005,-0.06538548,1.299656,-0.07600164,-0.07424419,1.266705,-0.1134714,0.3736749,1.445091,-0.1831249,-0.03736709,1.272613,-0.07371066,-0.1113327,1.270091,-0.1055623,-0.07698615,1.493956,-0.1103628,-0.3883923,1.490315,-0.2898393,0.123209,1.51456,-0.1905205,-0.3821964,1.459738,-0.3427105,-0.09712383,1.530577,0.1393685,-0.09510659,1.432499,NA,NA,NotTracked,NotTracked,
-0.05517578,0.621582,0.8154297,-0.1738281,0.9619141,0.300293,1,0,0,2,-1,-5,-4,-2,0,-8,-3,-1,-6,-2,0,-1,3.4375,3.4375,3.4375,-5.8125,-5.8125,-5.8125,6.037824,5.032165,4.964319,7.005934,5.249111,8.768863,-0.1490654,-0.06564675,1.301807,-0.07562147,-0.07507382,1.26787,-0.114544,0.3737137,1.446843,-0.1794497,-0.03586239,1.270732,-0.0803233,-0.1033508,1.241729,-0.1056175,-0.07706333,1.495657,-0.1100848,-0.3885269,1.491619,-0.2899594,0.1222427,1.517397,-0.1903239,-0.3824207,1.461134,-0.3427133,-0.09748109,1.531241,0.1396765,-0.09438634,1.434477,NA,NA,NotTracked,NotTracked,
-0.05224609,0.6342773,0.7944336,-0.1645508,0.9433594,0.3017578,-2,-1,-1,0,-3,-3,0,-5,-3,-4,1,2,-1,-2,0,-5,3.375,3.375,3.375,-6.5,-6.5,-6.5,6.04757,5.042572,4.959514,6.995206,5.262204,8.762455,-0.1693186,-0.06367031,1.30211,-0.07592449,-0.07489258,1.269072,-0.1158876,0.3738539,1.450999,-0.1702048,-0.02778386,1.275567,-0.07470077,-0.111919,1.26804,-0.105612,-0.07730623,1.497463,-0.1095598,-0.3889182,1.492871,-0.2905815,0.1194842,1.523275,-0.1897146,-0.3831166,1.462532,-0.3429578,-0.09938703,1.531578,0.1400164,-0.09427346,1.43826,NA,NA,NotTracked,NotTracked,
-0.04541016,0.6357422,0.8149414,-0.1567383,0.9467773,0.2915039,0,-3,-5,0,-1,0,-1,1,-7,-9,-6,-1,-5,0,-1,-1,5.875,5.875,5.875,-9.625,-9.625,-9.625,6.056139,5.047368,4.957954,6.983099,5.272481,8.759549,-0.1473586,-0.06286476,1.30159,-0.07517505,-0.07286554,1.270445,-0.1169169,0.3747744,1.45455,-0.1713758,-0.02609976,1.270989,-0.08119305,-0.1104995,1.268647,-0.1059273,-0.07704461,1.498661,-0.1093893,-0.3891222,1.493321,-0.2907418,0.1194845,1.525557,-0.1895918,-0.3833091,1.462748,-0.342786,-0.1001417,1.530989,0.1402107,-0.09400421,1.43923,NA,NA,NotTracked,NotTracked,
-0.05761719,0.6333008,0.8076172,-0.1723633,0.9404297,0.2890625,-1,-1,2,0,0,1,-2,-2,-3,-4,2,2,3,-3,-2,0,2.625,2.625,2.625,0.0625,0.0625,0.0625,6.062881,5.052859,4.958489,6.981355,5.282103,8.76007,-0.1496798,-0.05805928,1.304294,-0.07523797,-0.06963463,1.270709,-0.1176972,0.3773421,1.458584,-0.1456372,-0.01630451,1.321095,-0.08147431,-0.1063749,1.270265,-0.105909,-0.07598593,1.499981,-0.1090668,-0.3886106,1.493824,-0.2909019,0.1200129,1.527253,-0.1893734,-0.3829331,1.463064,-0.3433892,-0.1008138,1.532838,0.1399205,-0.09344438,1.439533,NA,NA,NotTracked,NotTracked,
-0.04882813,0.6308594,0.8095703,-0.1928711,0.9370117,0.2978516,-1,-2,4,-2,-1,-1,0,-1,3,-5,-5,-2,1,-3,0,0,-1,-1,-1,1.6875,1.6875,1.6875,6.063495,5.05416,4.95833,6.983335,5.282791,8.757365,-0.1151771,-0.0665824,1.289737,-0.07584326,-0.07013777,1.271803,-0.118277,0.3786639,1.461686,-0.1035648,-0.02288326,1.29035,-0.08094568,-0.1081496,1.268955,-0.1059433,-0.075339,1.500592,-0.1087945,-0.3883258,1.493847,-0.2907335,0.1197601,1.527946,-0.1891256,-0.3827041,1.463055,-0.346918,-0.09846411,1.535947,0.1396586,-0.0929933,1.440366,NA,NA,NotTracked,NotTracked,
-0.05908203,0.6445313,0.8032227,-0.1787109,0.934082,0.328125,-2,1,3,-1,-1,-1,-1,1,-4,1,-1,4,-1,1,-1,0,2.625,2.625,2.625,3.375,3.375,3.375,6.064888,5.055431,4.956527,6.985855,5.278262,8.753018,-0.1150437,-0.06886455,1.291361,-0.07597119,-0.07203387,1.273499,-0.1185135,0.3787799,1.464712,-0.1494277,-0.02986116,1.287,-0.08092059,-0.1078687,1.26732,-0.1060427,-0.07542614,1.501304,-0.1085428,-0.3886387,1.493806,-0.2907511,0.1186928,1.530024,-0.1889093,-0.3830426,1.462837,-0.3457361,-0.1006719,1.536425,0.1398742,-0.09239588,1.44154,NA,NA,NotTracked,NotTracked,
-0.05371094,0.6347656,0.8037109,-0.1923828,0.9580078,0.3164063,1,-2,-6,-1,1,2,0,-2,-2,-3,-3,-1,2,0,-2,0,1.375,1.375,1.375,-0.5625,-0.5625,-0.5625,6.069966,5.057728,4.951421,6.986874,5.276234,8.751555,-0.1519251,-0.05583786,1.298905,-0.08777752,-0.07167387,1.270106,-0.118431,0.3787574,1.466987,-0.1413671,-0.02697966,1.288427,-0.0994854,-0.108342,1.2665,-0.105743,-0.07531356,1.501805,-0.1080999,-0.3886392,1.493716,-0.2903546,0.1184723,1.531236,-0.188374,-0.3831599,1.462742,-0.3429878,-0.09703633,1.532188,0.1403982,-0.09250807,1.442749,NA,NA,NotTracked,NotTracked,
-0.06835938,0.6308594,0.7978516,-0.1865234,0.9477539,0.3168945,-4,-1,-1,-12,-3,2,-1,-3,-1,2,0,-1,0,-1,3,-1,7.4375,7.4375,7.4375,-1.375,-1.375,-1.375,6.077258,5.061296,4.947004,6.980893,5.276525,8.752007,-0.1553266,-0.05369847,1.301468,-0.09000419,-0.06997602,1.269484,-0.1179839,0.3793544,1.468261,-0.1415542,-0.02419232,1.308412,-0.1013419,-0.1072971,1.269414,-0.1058463,-0.07486464,1.502368,-0.1080196,-0.3885021,1.493658,-0.2901461,0.1181655,1.532114,-0.188287,-0.3829901,1.462644,-0.3442539,-0.1003354,1.536487,0.1404438,-0.09225098,1.443038,NA,NA,NotTracked,NotTracked,
-0.06591797,0.6337891,0.7988281,-0.1875,0.9306641,0.315918,-3,-1,0,-4,-2,2,0,0,1,-5,-2,-2,1,0,1,1,0.625,0.625,0.625,0.5625,0.5625,0.5625,6.082099,5.062831,4.938331,6.977169,5.279614,8.753967,-0.1499459,-0.05305627,1.299457,-0.09454052,-0.06993224,1.267819,-0.1174477,0.3801437,1.469307,-0.1221987,-0.02246283,1.302333,-0.1082795,-0.1057997,1.271304,-0.1055955,-0.0743477,1.50279,-0.1076916,-0.388089,1.4934,-0.2897707,0.118893,1.533052,-0.187842,-0.3823985,1.462116,-0.3438182,-0.09981112,1.536295,0.1410509,-0.09202051,1.443358,NA,NA,NotTracked,NotTracked,
-0.06640625,0.6401367,0.8100586,-0.1811523,0.9575195,0.3061523,-2,-1,-3,-3,-1,1,0,-1,1,1,-1,-2,-2,1,-2,-3,-1.5,-1.5,-1.5,-4.6875,-4.6875,-4.6875,6.078268,5.063725,4.932004,6.97718,5.28344,8.758749,-0.1495567,-0.05712104,1.298728,-0.09389841,-0.0708625,1.268676,-0.1167774,0.380688,1.47079,-0.149726,-0.02043273,1.304393,-0.1078892,-0.1064512,1.271789,-0.1054813,-0.07408309,1.503149,-0.107499,-0.3879246,1.49324,-0.2893298,0.1188347,1.533782,-0.1875933,-0.3821634,1.461909,-0.3436432,-0.1007028,1.53676,0.1415835,-0.09173081,1.444286,NA,NA,NotTracked,NotTracked,
-0.05566406,0.6411133,0.8012695,-0.1938477,0.9116211,0.3125,-1,-2,-3,-4,-4,1,1,-3,4,6,0,-3,-2,5,0,-1,1.3125,1.3125,1.3125,-3.9375,-3.9375,-3.9375,6.07762,5.063128,4.92663,6.967207,5.285929,8.762877,-0.08686801,-0.06564587,1.277851,-0.09347285,-0.07232118,1.269075,-0.115543,0.380211,1.472678,-0.06224752,-0.03127798,1.285192,-0.1068669,-0.1072878,1.271665,-0.1052229,-0.07406121,1.503455,-0.1072271,-0.3878775,1.492986,-0.2888161,0.1177612,1.534105,-0.1873388,-0.3822312,1.461778,-0.3418421,-0.09835072,1.533035,0.1416494,-0.09182657,1.444454,NA,NA,NotTracked,NotTracked,
-0.02441406,0.6293945,0.7734375,-0.1811523,0.9091797,0.3095703,0,1,1,-3,-2,0,0,1,-7,-1,-2,-1,1,-1,-1,-2,5.25,5.25,5.25,3.0625,3.0625,3.0625,6.085298,5.053775,4.911233,6.968725,5.28283,8.764594,-0.09242425,-0.06527895,1.276403,-0.09194233,-0.07174539,1.268494,-0.1140448,0.3804668,1.475144,-0.06876796,-0.03249551,1.278048,-0.1067869,-0.1071554,1.269928,-0.1050506,-0.07409006,1.503891,-0.1069549,-0.3880113,1.492865,-0.288423,0.1168692,1.534654,-0.1870087,-0.3824688,1.461558,-0.3424639,-0.09927191,1.533933,0.1422137,-0.09231149,1.445417,NA,NA,NotTracked,NotTracked,
-0.03417969,0.6298828,0.7216797,-0.112793,0.9277344,0.3310547,-6,2,-3,3,-4,-1,-1,2,6,0,0,-2,-4,0,-2,-4,12.4375,12.4375,12.4375,0.375,0.375,0.375,6.102022,5.023617,4.881879,6.976757,5.260486,8.768114,-0.08971344,-0.06953833,1.272691,-0.08519601,-0.07354098,1.265562,-0.1127645,0.3813224,1.476709,-0.07555951,-0.03334009,1.274748,-0.09385571,-0.1107931,1.263727,-0.1049491,-0.07395568,1.50429,-0.1067899,-0.3881303,1.4928,-0.2884049,0.117005,1.535022,-0.1868431,-0.3826427,1.461338,-0.3532131,-0.09221435,1.548256,0.1423325,-0.09282753,1.446578,NA,NA,NotTracked,NotTracked,
-0.02832031,0.5454102,0.6630859,-0.1015625,0.8496094,0.3227539,-3,0,0,-4,-2,-3,0,-2,3,0,-1,0,0,-2,-2,0,3,3,3,-7.5,-7.5,-7.5,6.108074,4.927803,4.815176,6.957002,5.184336,8.80048,-0.08359327,-0.08254976,1.268821,-0.02779559,-0.09067625,1.286853,-0.111413,0.382101,1.478241,-0.07477243,-0.04471895,1.2696,-0.04857484,-0.1217457,1.275533,-0.1049002,-0.07337417,1.50488,-0.106613,-0.387978,1.492749,-0.2884436,0.1173812,1.535373,-0.1866474,-0.3823044,1.46086,-0.3476186,-0.09604291,1.539678,0.1419547,-0.09294291,1.447088,NA,NA,NotTracked,NotTracked,
0.03710938,0.4682617,0.5986328,-0.07617188,0.7714844,0.3212891,-1,-1,-3,-1,2,-2,-1,-1,10,5,-1,-3,-3,2,0,2,55,55,55,-18.8125,-18.8125,-18.8125,6.172514,4.78529,4.719715,6.929708,5.084363,8.838341,-0.06194903,-0.1158275,1.271434,-0.07334884,-0.1226905,1.259849,-0.1099771,0.3824827,1.480992,-0.01288833,-0.09307799,1.272733,-0.07498401,-0.1585561,1.253526,-0.1048679,-0.07254691,1.506513,-0.1065544,-0.3875619,1.493257,-0.2883911,0.1181584,1.535961,-0.1866639,-0.3820619,1.461105,-0.3457349,-0.09774601,1.537315,0.1446342,-0.0897169,1.457876,NA,NA,NotTracked,NotTracked,
0.1586914,0.5864258,0.5068359,0.09716797,0.7294922,0.3012695,-1,-1,0,-4,2,-5,-1,1,0,-4,-1,-4,-1,-1,-3,1,83.3125,83.3125,83.3125,4.75,4.75,4.75,6.326516,4.570998,4.597973,6.88381,4.742098,8.943042,-0.2002775,-0.1650924,1.339409,-0.03873066,-0.1786686,1.280047,-0.1078792,0.3819543,1.48613,-0.1524483,-0.1213191,1.350929,-0.03614084,-0.2391366,1.316425,-0.1058511,-0.07204819,1.510016,-0.1069164,-0.3873071,1.494798,-0.2892655,0.1187917,1.53817,-0.1871286,-0.38172,1.462164,-0.3511834,-0.09543353,1.566276,0.1427311,-0.0896745,1.468589,NA,NA,NotTracked,NotTracked,
0.5791016,0.6894531,0.4858398,0.4194336,0.8051758,0.3017578,-1,1,-4,0,-1,0,-1,-1,0,-1,-4,1,2,0,-1,-4,38.4375,38.4375,38.4375,-28.4375,-28.4375,-28.4375,6.520917,4.202873,4.416846,6.854738,4.470128,9.008673,-0.232115,-0.236321,1.350837,-0.0111843,-0.2367253,1.290689,-0.1073976,0.3825057,1.491577,-0.2397131,-0.1909148,1.305825,0.00721042,-0.3008547,1.305438,-0.1070879,-0.07212891,1.513503,-0.1074729,-0.387886,1.497021,-0.29096,0.1196488,1.541341,-0.1874849,-0.3819229,1.463683,-0.3528797,-0.1020766,1.574571,0.1379908,-0.09503216,1.481742,NA,NA,Unknown,NotTracked,
0.7490234,0.6801758,0.4101563,0.6801758,0.9350586,0.2592773,3,-4,-1,-2,3,-1,1,0,-4,-3,-5,-3,-3,-4,0,0,-11.1875,-11.1875,-11.1875,-16.1875,-16.1875,-16.1875,6.633537,3.920168,4.237044,6.839936,4.126651,9.082908,-0.2656792,-0.2946296,1.37647,0.01806579,-0.2979233,1.301771,-0.1083197,0.3838588,1.496838,-0.2790565,-0.2617894,1.326164,0.04554915,-0.364967,1.320286,-0.1097323,-0.07195253,1.51667,-0.1111461,-0.388947,1.499221,-0.293108,0.1201533,1.544487,-0.1915988,-0.3828714,1.466334,-0.3543496,-0.1086217,1.578731,0.1322332,-0.10256,1.496634,NA,NA,Unknown,Unknown,
0.9785156,0.6352539,0.3681641,0.7915039,0.7124023,0.3051758,-1,-1,-4,-4,-1,-2,-1,-1,-2,2,-4,-2,-2,-4,1,1,-8.25,-8.25,-8.25,-11.5625,-11.5625,-11.5625,6.774814,3.668371,4.009144,6.769981,3.895475,9.133843,-0.2802386,-0.3485533,1.406942,0.04146843,-0.3568091,1.337332,-0.1102533,0.3843873,1.504013,-0.2853967,-0.3106861,1.353072,-0.00691226,-0.367329,1.3746,-0.1140309,-0.07179639,1.521913,-0.1167206,-0.3897792,1.50456,-0.2966984,0.1202198,1.548862,-0.1977882,-0.3832269,1.471878,-0.3540362,-0.1237043,1.584557,0.1271108,-0.1124007,1.507802,NA,NA,NotTracked,Unknown,
0.9389648,0.590332,0.2182617,0.8427734,0.6650391,0.3432617,-3,1,-4,-4,-2,2,2,1,-6,2,-5,-2,-3,1,-2,-4,1.875,1.875,1.875,-17.125,-17.125,-17.125,7.052217,3.44536,3.662161,6.71424,3.702521,9.179556,-0.3109696,-0.3751999,1.415573,0.08849214,-0.3856727,1.346837,-0.1152067,0.3845581,1.513323,-0.3157413,-0.3801591,1.370569,0.05698901,-0.3836446,1.364269,-0.1192532,-0.07300827,1.530613,-0.1211907,-0.3914436,1.513355,-0.3024988,0.117118,1.556913,-0.2028203,-0.3854389,1.481155,-0.3563599,-0.1277815,1.591673,0.1183416,-0.1289718,1.522232,NA,NA,NotTracked,Unknown,
0.9208984,0.5517578,0.1704102,0.890625,0.5957031,0.3305664,-2,1,-3,-5,0,2,-1,2,0,-4,-3,1,-4,-1,-1,-6,7.1875,7.1875,7.1875,22.75,22.75,22.75,7.268466,3.339155,3.414771,6.70094,3.551316,9.210647,-0.3167354,-0.393108,1.452384,0.1128723,-0.409445,1.383463,-0.1206005,0.3822644,1.523735,-0.3597303,-0.4073609,1.4567,0.07980836,-0.4066485,1.387222,-0.1234804,-0.07483979,1.540858,-0.1244862,-0.3935599,1.524624,-0.3101251,0.1132358,1.567548,-0.2063169,-0.3883134,1.492416,-0.3632846,-0.1305395,1.607264,0.114681,-0.136869,1.53629,NA,NA,NotTracked,NotTracked,
0.8945313,0.5,0.1274414,0.8256836,0.6459961,0.2919922,-3,-3,-3,-3,0,-1,-2,0,-6,4,-1,1,-5,-2,-1,-3,3.5625,3.5625,3.5625,9.625,9.625,9.625,7.489695,3.257179,3.165732,6.731131,3.453498,9.212172,-0.3251626,-0.4038401,1.476683,0.1274293,-0.4214085,1.420186,-0.1276383,0.3818602,1.532039,-0.3660222,-0.4275805,1.480385,0.08926883,-0.4162598,1.41848,-0.1291417,-0.07535453,1.552894,-0.1293842,-0.393953,1.540033,-0.3161459,0.1124278,1.576416,-0.2110142,-0.3890787,1.506903,-0.368957,-0.129594,1.622862,0.1125881,-0.1354172,1.545851,NA,NA,NotTracked,NotTracked,
0.9023438,0.5209961,0.1040039,0.8769531,0.6176758,0.3295898,1,0,-2,-5,-1,-1,0,0,4,4,-2,0,-3,-3,-3,-5,-1,-1,-1,-15.9375,-15.9375,-15.9375,7.588329,3.223544,3.049894,6.733741,3.386819,9.185402,-0.3320243,-0.4050115,1.495262,0.1333348,-0.4272988,1.449239,-0.1340647,0.3821347,1.539206,-0.3731779,-0.4286276,1.49575,0.0947067,-0.4250693,1.452364,-0.135508,-0.0752646,1.564852,-0.1347498,-0.393985,1.554988,-0.3231813,0.1133249,1.586262,-0.2164658,-0.3895658,1.522724,-0.3752227,-0.1280002,1.635627,0.1095997,-0.1339109,1.558318,NA,NA,NotTracked,NotTracked,
