ALX,ALY,ALZ,ARX,ARY,ARZ,EMG0L,EMG1L,EMG2L,EMG3L,EMG4L,EMG5L,EMG6L,EMG7L,EMG0R,EMG1R,EMG2R,EMG3R,EMG4R,EMG5R,EMG6R,EMG7R,GLX,GLY,GLZ,GRX,GRY,GRZ,ORL,OPL,OYL,ORR,OPR,OYR,LHNX,LHNY,LHNZ,RHNX,RHNY,RHNZ,HX,HY,HZ,LTX,LTY,LTZ,RTX,RTY,RTZ,SpineMidX,SpineMidY,SpineMidZ,SpineBaseX,SpineBaseY,SpineBaseZ,ShoulderLeftX,ShoulderLeftY,ShoulderLeftZ,ShoulderRightX,ShoulderRightY,ShoulderRightZ,ElbowLeftX,ElbowLeftY,ElbowLeftZ,ElbowRightX,ElbowRightY,ElbowRightZ,Myo_Pose_left,Myo_Pose_Right,Kinect_pose_left,Kinect_pose_right
0.9418945,0.2099609,0.2050781,0.9121094,0.3286133,0.04394531,-1,0,-1,-2,-2,-1,-1,-1,-1,-2,-1,-1,0,-1,4,0,-2.1875,-2.1875,-2.1875,0.875,0.875,0.875,6.25028,2.964337,6.252168,7.399215,3.058285,9.276948,-0.1944028,-0.4433448,1.467348,0.2426898,-0.4244285,1.472187,0.05789097,0.4006038,1.537137,-0.1393058,-0.4273327,1.43078,0.1979559,-0.3918688,1.430415,0.03511481,-0.05132543,1.536517,0.03149643,-0.3640048,1.520583,-0.1471798,0.1276039,1.536961,-0.04675038,-0.3537371,1.485821,-0.2087638,-0.1511655,1.554072,0.2662773,-0.1507248,1.559157,NA,NA,NotTracked,NotTracked,
0.9453125,0.2143555,0.2075195,0.9179688,0.328125,0.04492188,-2,0,0,-1,0,1,-2,-1,-2,0,-2,-1,1,-5,-1,-3,-2.375,-2.375,-2.375,-0.375,-0.375,-0.375,6.250035,2.965226,6.249093,7.401325,3.054708,9.274687,-0.1953584,-0.4426112,1.468135,0.2426882,-0.4246021,1.473915,0.057974,0.4005805,1.537099,-0.1394639,-0.4298402,1.429701,0.1979299,-0.3921638,1.431799,0.03513627,-0.05128781,1.5369,0.03145396,-0.3639615,1.521218,-0.1470918,0.1277803,1.537078,-0.04677184,-0.3536533,1.48641,-0.2088751,-0.1510655,1.554343,0.2662086,-0.1507987,1.559436,NA,NA,NotTracked,NotTracked,
0.9492188,0.2099609,0.2104492,0.9189453,0.3261719,0.04394531,-1,-2,-1,-2,-1,0,-1,-1,-1,-2,0,-1,-1,-1,-1,-1,-1.8125,-1.8125,-1.8125,-0.875,-0.875,-0.875,6.245548,2.963692,6.248386,7.405864,3.050505,9.26676,-0.1951524,-0.4442104,1.469673,0.2429789,-0.4252843,1.476567,0.05819207,0.4005539,1.537132,-0.1369661,-0.462731,1.4307,0.1975072,-0.3946817,1.433537,0.03520572,-0.05126186,1.537478,0.03149806,-0.3639342,1.522033,-0.1469378,0.12802,1.537336,-0.04672454,-0.3536255,1.487049,-0.2090652,-0.150792,1.554725,0.2662836,-0.1508374,1.559977,NA,NA,NotTracked,NotTracked,
0.9477539,0.2084961,0.2143555,0.921875,0.3305664,0.03808594,-1,0,0,-1,-2,-3,-1,-3,0,-3,-1,0,2,0,-3,1,-1.5,-1.5,-1.5,2.9375,2.9375,2.9375,6.247437,2.96284,6.242696,7.418808,3.043458,9.253908,-0.1957924,-0.4409966,1.468444,0.2428217,-0.4251047,1.47663,0.05857272,0.4005375,1.537082,-0.1413907,-0.4250562,1.434934,0.1977666,-0.3916114,1.434212,0.03527266,-0.05115492,1.537785,0.03162425,-0.3638598,1.52256,-0.1470744,0.1281703,1.537459,-0.04657305,-0.3535789,1.487541,-0.2091219,-0.1506528,1.554848,0.2663084,-0.150709,1.560388,NA,NA,NotTracked,NotTracked,
0.9477539,0.2109375,0.2163086,0.9023438,0.359375,0.04833984,-1,0,-3,-1,-2,-1,-1,-2,-1,-4,-1,-1,1,1,-8,-1,-2.0625,-2.0625,-2.0625,-0.9375,-0.9375,-0.9375,6.250872,2.962537,6.23665,7.425164,3.045647,9.248855,-0.195464,-0.4412281,1.468781,0.2431026,-0.4227954,1.478476,0.05903724,0.4004877,1.536979,-0.1400789,-0.4350232,1.432686,0.1975175,-0.3914752,1.435772,0.03541042,-0.05112303,1.538055,0.03178712,-0.3638549,1.523303,-0.1469364,0.1283612,1.537343,-0.04642852,-0.3535603,1.488167,-0.209238,-0.1502838,1.554892,0.2662664,-0.1505784,1.560845,NA,NA,NotTracked,NotTracked,
0.9365234,0.1982422,0.2148438,0.9121094,0.3193359,0.04980469,-2,0,1,-2,0,0,-1,-1,-1,-2,-2,-4,-4,-3,-1,0,-7,-7,-7,-0.5625,-0.5625,-0.5625,6.25358,2.961214,6.222194,7.419091,3.049013,9.249919,-0.1951524,-0.4413044,1.467467,0.2428146,-0.4228611,1.477407,0.05971033,0.4003515,1.536705,-0.1852794,-0.4659345,1.4034,0.1974026,-0.3954695,1.433943,0.03545926,-0.05111062,1.53817,0.03183934,-0.3638281,1.523752,-0.1469088,0.1285125,1.537195,-0.04637756,-0.3535115,1.488549,-0.209457,-0.1499619,1.554953,0.2662328,-0.1505791,1.561164,NA,NA,NotTracked,NotTracked,
0.9428711,0.2075195,0.2182617,0.9169922,0.3388672,0.03857422,-1,-1,-2,-4,0,-1,-2,0,-1,-2,-1,-1,0,-3,2,-1,-6.75,-6.75,-6.75,-1.0625,-1.0625,-1.0625,6.253795,2.960305,6.214738,7.422963,3.053956,9.244129,-0.1961543,-0.4415172,1.468166,0.2427985,-0.4230828,1.477238,0.06018617,0.4001475,1.536494,-0.1405637,-0.4289238,1.43547,0.1975438,-0.394622,1.433555,0.03547503,-0.05108301,1.538349,0.03184974,-0.3637772,1.52427,-0.1469916,0.1287557,1.536952,-0.04636882,-0.353483,1.488973,-0.209901,-0.1494065,1.554896,0.2661282,-0.1505556,1.561526,NA,NA,NotTracked,NotTracked,
0.9516602,0.1987305,0.2138672,0.9541016,0.3886719,0.01269531,1,-1,0,0,-2,-2,-2,-2,4,-3,-2,-1,-3,-4,-2,3,0.3125,0.3125,0.3125,2.6875,2.6875,2.6875,6.237605,2.960423,6.222371,7.433775,3.062966,9.2361,-0.196902,-0.4426491,1.466985,0.2430514,-0.4229316,1.477144,0.06041626,0.3999506,1.536378,-0.1414748,-0.4290061,1.436158,0.1977392,-0.3971885,1.434258,0.03546191,-0.05109414,1.538502,0.03185327,-0.3637548,1.524532,-0.1469956,0.1288591,1.536737,-0.04636773,-0.353467,1.489173,-0.2105116,-0.1484157,1.554643,0.2660306,-0.1505372,1.56167,NA,NA,NotTracked,NotTracked,
0.9624023,0.2021484,0.2114258,1.091797,0.7080078,0.02978516,-2,0,0,-1,-1,-1,-1,-3,-2,-1,51,22,3,-1,-2,-3,4.75,4.75,4.75,-22.375,-22.375,-22.375,6.232253,2.964895,6.231308,7.372202,3.135001,9.281497,-0.1979056,-0.4417682,1.465311,0.2428633,-0.4221298,1.472319,0.06038679,0.3998944,1.536401,-0.141478,-0.4283089,1.435037,0.1933891,-0.4188767,1.428963,0.03526841,-0.05104819,1.538568,0.03180493,-0.3637289,1.524568,-0.1473343,0.1288893,1.536561,-0.04641341,-0.3534508,1.489183,-0.2110419,-0.1477743,1.554349,0.2660082,-0.150417,1.561708,NA,NA,NotTracked,NotTracked,
0.9335938,0.1796875,0.1992188,1.217773,0.784668,0.3305664,0,0,-1,1,-2,1,0,-1,-2,-4,-25,-13,-2,0,-1,3,15,15,15,-31.1875,-31.1875,-31.1875,6.236866,2.984327,6.255886,7.003481,3.433727,9.598036,-0.1984658,-0.4423854,1.463062,0.2399902,-0.4186023,1.45181,0.06005069,0.3998151,1.536489,-0.141922,-0.430975,1.433941,0.1913241,-0.3956124,1.428803,0.03492424,-0.05107085,1.538628,0.03171642,-0.3637224,1.52457,-0.1476948,0.1289402,1.536548,-0.04651405,-0.3534562,1.489141,-0.2115027,-0.1473446,1.554127,0.2672243,-0.1495694,1.562745,NA,NA,NotTracked,NotTracked,
0.9414063,0.2226563,0.1894531,1.086426,1.188477,0.5703125,1,-1,-1,-1,0,-2,-1,-1,-1,-14,-28,-7,0,4,3,-1,13.125,13.125,13.125,-59.5,-59.5,-59.5,6.264399,2.997811,6.254701,6.810135,3.85948,9.797883,-0.1995964,-0.4429125,1.462739,0.2368729,-0.3622672,1.387391,0.05920179,0.3998123,1.536898,-0.1431307,-0.4261388,1.433731,0.2046064,-0.3670685,1.4301,0.03401107,-0.05090733,1.538571,0.03075938,-0.3634713,1.524469,-0.1482608,0.1289865,1.536732,-0.04749922,-0.353157,1.488912,-0.2121387,-0.1463937,1.554521,0.2722934,-0.1415143,1.564869,NA,NA,NotTracked,Unknown,
0.9208984,0.2416992,0.2104492,0.5864258,0.5883789,0.7495117,-2,0,-1,0,-4,-1,-1,-2,3,0,25,13,5,7,6,2,-7.625,-7.625,-7.625,-119.25,-119.25,-119.25,6.281173,2.992092,6.241046,6.540715,4.42374,9.944277,-0.1999678,-0.4427133,1.463856,0.2144393,-0.2634884,1.285097,0.05831452,0.3999006,1.537137,-0.1434742,-0.4258667,1.4325,0.189447,-0.2790492,1.271083,0.03257135,-0.05052584,1.538236,0.02873014,-0.3627858,1.5238,-0.1489373,0.129041,1.536974,-0.04933155,-0.3525591,1.488541,-0.2128037,-0.1458196,1.55487,0.2497479,-0.1514966,1.532691,NA,NA,NotTracked,Unknown,
0.9287109,0.2333984,0.2280273,-0.09472656,0.5605469,0.5292969,-2,-1,-1,0,-2,0,0,-1,-5,-10,-20,1,-1,-3,0,-2,-12.5625,-12.5625,-12.5625,28.9375,28.9375,28.9375,6.261226,2.969831,6.241616,6.454601,5.282367,0.1395905,-0.2010451,-0.4443379,1.468708,0.1829747,-0.09535065,1.288694,0.05735093,0.4000859,1.537868,-0.1435955,-0.432503,1.433098,0.133075,-0.1171705,1.2618,0.03188182,-0.05028732,1.538348,0.02769675,-0.3622625,1.523794,-0.1494248,0.1288791,1.537152,-0.05039606,-0.3520827,1.488778,-0.2131045,-0.145748,1.55495,0.2991497,-0.105752,1.503635,NA,NA,NotTracked,Unknown,
0.9599609,0.2270508,0.237793,-0.4389648,0.3930664,0.3681641,0,-2,0,-1,-1,0,-1,1,1,1,12,11,-1,-2,0,2,-8.8125,-8.8125,-8.8125,2.6875,2.6875,2.6875,6.230258,2.950131,6.254611,6.538796,5.886322,0.3403577,-0.2018881,-0.4458619,1.469802,0.1581546,0.05347179,1.298074,0.05680066,0.4002003,1.538528,-0.1463163,-0.422085,1.437155,0.1128894,0.05688325,1.370125,0.03163737,-0.05010071,1.538693,0.02758177,-0.3618641,1.523957,-0.1496586,0.1285547,1.537177,-0.05038075,-0.3519444,1.489132,-0.2135713,-0.147285,1.555092,0.3198818,-0.1127875,1.506909,NA,NA,NotTracked,Unknown,
0.9819336,0.2060547,0.2353516,-0.5463867,0.4394531,0.3564453,-2,-1,-1,-2,-2,-1,-2,0,2,2,10,6,-1,-3,1,21,-3.3125,-3.3125,-3.3125,2.125,2.125,2.125,6.214495,2.948129,6.260499,6.759721,6.343061,0.651351,-0.2014947,-0.4449957,1.467336,0.1490143,0.1466864,1.338648,0.05448937,0.4000263,1.53924,-0.1466124,-0.4241214,1.434209,0.1138058,0.1349453,1.2986,0.03077457,-0.0511005,1.538744,0.0263801,-0.3645981,1.523285,-0.1500504,0.1284207,1.537545,-0.05238898,-0.3550741,1.491095,-0.213645,-0.1474286,1.554939,0.3134064,-0.1051043,1.468252,NA,NA,NotTracked,Unknown,
0.96875,0.2202148,0.2236328,-0.5102539,0.4013672,0.1318359,-1,0,-3,-2,0,0,-1,0,13,-10,-7,-4,-1,1,1,-2,-3.5,-3.5,-3.5,-2.6875,-2.6875,-2.6875,6.228858,2.965991,6.24297,7.211792,6.64787,1.207048,-0.2002391,-0.444373,1.464004,0.140482,0.1949247,1.377163,0.05338104,0.4002439,1.539637,-0.1459647,-0.435375,1.432956,0.1106171,0.1906098,1.333436,0.03085019,-0.05190577,1.538277,0.0243394,-0.3673111,1.522371,-0.1498197,0.1282147,1.53801,-0.05515898,-0.3575347,1.491797,-0.2136095,-0.1470711,1.554951,0.313786,-0.08909529,1.40661,NA,NA,NotTracked,Unknown,
0.9384766,0.2050781,0.2099609,-0.5131836,0.3662109,0.02050781,-1,-2,1,0,-1,-2,0,-3,-13,-18,-11,-5,-2,0,1,1,3.125,3.125,3.125,7.5,7.5,7.5,6.248325,2.995489,6.22441,7.481534,6.691528,1.511784,-0.1987692,-0.445741,1.458131,0.1326545,0.2054261,1.39699,0.05328289,0.3997602,1.539524,-0.1460478,-0.4329008,1.431464,0.1374592,0.1410988,1.462,0.0300476,-0.05412405,1.537816,0.02311033,-0.3683589,1.521492,-0.1495716,0.1280195,1.538849,-0.0564514,-0.3583173,1.491835,-0.2133875,-0.1464667,1.555048,0.3016866,-0.06045747,1.351708,NA,NA,NotTracked,Unknown,
0.9223633,0.2182617,0.199707,-0.7705078,0.6020508,-0.07666016,-1,0,-2,-1,-1,-1,-2,-1,-1,-3,-6,-3,-3,-1,-3,-2,13.0625,13.0625,13.0625,-29.75,-29.75,-29.75,6.283958,3.025581,6.205443,7.479369,6.642806,1.534189,-0.1968455,-0.4450632,1.455224,0.1241039,0.2085129,1.399725,0.05283654,0.3992246,1.540084,-0.1450838,-0.4365268,1.430451,0.1330573,0.1425251,1.462903,0.02941262,-0.05564799,1.537698,0.02242235,-0.3689707,1.520955,-0.1496159,0.1277314,1.540975,-0.05722298,-0.358862,1.492109,-0.2129302,-0.1460599,1.555278,0.3014459,-0.05816397,1.349899,NA,NA,NotTracked,Unknown,
0.9550781,0.2133789,0.2070313,-1.12207,0.590332,0.07275391,-1,-2,-1,0,0,-3,0,-1,0,-1,1,6,1,-1,-3,-1,17.6875,17.6875,17.6875,53.625,53.625,53.625,6.332067,3.056635,6.201797,7.424656,6.651806,1.415482,-0.1950459,-0.4440481,1.453869,0.123478,0.2078684,1.39132,0.05167199,0.3987945,1.54095,-0.1429236,-0.4257561,1.429,0.1348887,0.1424796,1.462742,0.02865055,-0.05712911,1.537508,0.02144972,-0.3699273,1.520359,-0.1497649,0.1272005,1.542993,-0.05826757,-0.359691,1.492224,-0.2121148,-0.1462373,1.556145,0.3011285,-0.05628274,1.347213,NA,NA,NotTracked,Unknown,
0.934082,0.2373047,0.2255859,-1.030273,0.4482422,0.04150391,0,-1,0,-2,-3,-1,-2,1,-2,-8,-3,-4,-5,1,2,1,6.5625,6.5625,6.5625,-4.5625,-4.5625,-4.5625,6.358437,3.060821,6.192241,7.475154,6.7476,1.439613,-0.1943072,-0.4442992,1.457228,0.1267468,0.2308575,1.380865,0.05100402,0.398786,1.541311,-0.1431012,-0.4306202,1.428651,0.153774,0.222288,1.415364,0.0285586,-0.05712942,1.537522,0.020307,-0.3697847,1.519717,-0.1498308,0.1274943,1.544979,-0.05945332,-0.3594582,1.491945,-0.2113666,-0.1457574,1.558035,0.300609,-0.04942672,1.33916,NA,NA,NotTracked,Unknown,
0.9101563,0.2348633,0.2509766,-0.7246094,0.1411133,0.1518555,-1,-2,-1,-2,-1,-2,0,-2,-5,-10,-3,1,1,0,0,2,-10.125,-10.125,-10.125,3.9375,3.9375,3.9375,6.335526,3.031777,6.203367,7.513766,6.844155,1.49685,-0.1954975,-0.4447268,1.463519,0.07278252,0.3197745,1.421731,0.05072341,0.3987821,1.541421,-0.1428819,-0.4291198,1.428829,0.04075318,0.2636245,1.460067,0.02903095,-0.05599665,1.538159,0.0191414,-0.3688905,1.519316,-0.1495709,0.1275886,1.545954,-0.06089126,-0.3584368,1.491448,-0.211161,-0.1460807,1.559995,0.2953661,-0.02963167,1.319987,NA,NA,NotTracked,NotTracked,
0.9428711,0.2241211,0.2543945,-0.3535156,0.4716797,0.0009765625,-2,-2,0,0,-3,-1,-2,-1,0,-1,-3,1,6,-15,-11,-12,-2.6875,-2.6875,-2.6875,-45.0625,-45.0625,-45.0625,6.267877,2.990642,6.264298,7.374903,6.705935,1.394134,-0.1997669,-0.4470771,1.472716,0.07407691,0.3198965,1.41299,0.05039325,0.399599,1.54167,-0.1455176,-0.4424339,1.430809,0.04460241,0.2615915,1.458681,0.02933636,-0.0549686,1.538805,0.01845193,-0.3682089,1.519354,-0.149036,0.127669,1.546564,-0.06172699,-0.3577088,1.491521,-0.2113025,-0.1466278,1.562166,0.2908939,-0.02048825,1.311874,NA,NA,NotTracked,Unknown,
0.9350586,0.2373047,0.2456055,-1.058105,0.7915039,0.1606445,-2,0,-1,-2,0,-2,-2,-1,-3,-3,14,4,3,-1,-8,-9,10.25,10.25,10.25,43.375,43.375,43.375,6.203367,2.958487,6.343032,7.248383,6.527131,1.223267,-0.2032285,-0.4473302,1.478092,0.09279888,0.2316918,1.352931,0.04966273,0.4016829,1.543401,-0.1474309,-0.4487758,1.433468,0.0517691,0.2133617,1.334826,0.02851211,-0.05637098,1.538377,0.01819704,-0.3687109,1.519255,-0.1490867,0.1276119,1.547037,-0.06203902,-0.3583009,1.491872,-0.2114484,-0.1473394,1.563459,0.2911246,-0.02319664,1.313067,NA,NA,NotTracked,Unknown,
0.9775391,0.2158203,0.2304688,-1.081543,0.9785156,0.2353516,0,-2,-2,-1,-1,0,-1,-2,0,15,2,1,-3,-2,2,-6,11.5,11.5,11.5,-16.5,-16.5,-16.5,6.169289,2.94981,6.39475,7.173837,6.506163,1.099043,-0.2066474,-0.4469049,1.481897,0.10607,0.1939815,1.341271,0.04862065,0.4021582,1.54565,-0.1501715,-0.4375405,1.437796,0.05624235,0.1757736,1.322,0.02738488,-0.05808489,1.537527,0.01820467,-0.3697772,1.519342,-0.149319,0.1273999,1.547279,-0.06206139,-0.3596663,1.492766,-0.2122561,-0.1478196,1.565086,0.2915968,-0.03574017,1.323445,NA,NA,NotTracked,Unknown,
0.9580078,0.265625,0.2124023,-0.9550781,0.1674805,0.1289063,0,0,1,-1,-2,0,-1,-3,-17,-27,-9,-2,-1,-4,-2,-7,-1,-1,-1,-43.375,-43.375,-43.375,6.196205,2.958089,6.377111,7.029743,6.733093,1.110532,-0.2084489,-0.4466996,1.483136,0.09712801,0.2487094,1.378322,0.04842994,0.4023045,1.546097,-0.1503631,-0.4497284,1.439271,0.07151239,0.2067522,1.361857,0.02719363,-0.05835346,1.537338,0.01815564,-0.3699942,1.519325,-0.1494537,0.1275062,1.547609,-0.06213753,-0.3598866,1.492964,-0.2131902,-0.1477794,1.566811,0.2917824,-0.03946102,1.325907,NA,NA,NotTracked,Unknown,
0.8969727,0.2700195,0.2290039,-0.7011719,0.137207,-0.04541016,-1,-2,-1,-1,-1,-1,-1,-1,1,-4,-1,-2,-15,-25,0,-6,-14.375,-14.375,-14.375,30.5,30.5,30.5,6.204318,2.962971,6.352222,7.086289,6.800207,1.142156,-0.2097333,-0.4454763,1.482909,0.09105118,0.2891859,1.399976,0.04844697,0.4021898,1.545864,-0.1537728,-0.4307373,1.443441,0.0513894,0.2627354,1.458298,0.02719212,-0.05822905,1.537367,0.0179208,-0.3697569,1.519441,-0.1491497,0.1277417,1.547651,-0.06243918,-0.3595632,1.493168,-0.2137148,-0.1472625,1.567479,0.2880042,-0.03634619,1.320978,NA,NA,NotTracked,Unknown,
0.9296875,0.2163086,0.2182617,-0.6171875,0.5322266,-0.02636719,-2,-3,-1,-1,-2,-1,0,-2,2,9,11,0,-6,0,-3,0,0.1875,0.1875,0.1875,5.875,5.875,5.875,6.164742,2.958549,6.377286,7.06717,6.619023,1.089863,-0.209914,-0.4467016,1.480391,0.1124621,0.2324359,1.353325,0.04839882,0.402627,1.545972,-0.1522176,-0.4373945,1.440404,0.07700507,0.2156636,1.37725,0.02715748,-0.058368,1.537382,0.01789857,-0.3698698,1.519505,-0.1488919,0.1277143,1.547592,-0.06248353,-0.3596311,1.493299,-0.2138264,-0.1472312,1.567406,0.286575,-0.03714319,1.320418,NA,NA,NotTracked,Unknown,
0.9775391,0.2119141,0.2094727,-0.9262695,0.7788086,0.4873047,-2,-1,-1,1,-1,0,-1,-1,-6,-16,-15,-1,-2,-2,0,-2,1.4375,1.4375,1.4375,33.75,33.75,33.75,6.196382,2.976277,6.349212,6.983688,6.444178,0.9074699,-0.2073144,-0.4467348,1.47202,0.1043791,0.1894845,1.324522,0.04832787,0.4031177,1.546845,-0.1530384,-0.4525659,1.438031,0.03657113,0.2271264,1.317,0.02687872,-0.05915951,1.536921,0.01832925,-0.3706071,1.519477,-0.1489626,0.1276277,1.547593,-0.06198328,-0.3604921,1.493792,-0.2137619,-0.1475966,1.566563,0.2867365,-0.05239853,1.335049,NA,NA,NotTracked,Unknown,
0.9775391,0.2128906,0.2094727,-1.168457,0.8051758,0.1445313,0,-2,0,0,-2,0,-1,0,-2,1,-7,-2,1,2,0,-1,-0.0625,-0.0625,-0.0625,-86.6875,-86.6875,-86.6875,6.215534,2.986681,6.328276,6.952805,6.561615,0.9322843,-0.2017405,-0.4445589,1.467229,0.08542177,0.2150336,1.346733,0.04834872,0.4033131,1.547714,-0.1492291,-0.4525283,1.43554,0.04695833,0.2077897,1.332111,0.02673593,-0.05944727,1.536764,0.01874663,-0.3711077,1.51952,-0.1490864,0.1275401,1.547623,-0.06152038,-0.3610637,1.4941,-0.2134405,-0.1478886,1.565956,0.2820053,-0.05060964,1.33157,NA,NA,NotTracked,Unknown,
0.9047852,0.2348633,0.2231445,-0.8120117,0.1474609,0.112793,-2,0,-1,0,0,-2,-3,-1,-14,-3,3,-1,2,1,-4,-2,-8.125,-8.125,-8.125,-24.875,-24.875,-24.875,6.329308,3.041678,6.190651,6.916749,6.763929,1.011381,-0.1968443,-0.443781,1.462219,0.08797795,0.2747449,1.397087,0.04834594,0.4033267,1.547661,-0.1458857,-0.4236404,1.436,0.03872414,0.269109,1.452636,0.02687458,-0.0592729,1.536832,0.01881941,-0.3709616,1.519572,-0.1487951,0.1276262,1.547446,-0.06147863,-0.3608943,1.494145,-0.2125318,-0.1469831,1.56525,0.2804365,-0.04726346,1.327499,NA,NA,NotTracked,Unknown,
0.9077148,0.2070313,0.234375,-0.6469727,0.1225586,-0.02148438,-1,-2,-2,-2,-2,-1,0,0,-4,-5,-3,-1,3,15,-1,-2,-6.375,-6.375,-6.375,9,9,9,6.329637,3.044655,6.175545,7.012708,6.8324,1.084194,-0.1943312,-0.4451734,1.459308,0.09045442,0.3019697,1.411044,0.04855647,0.4028615,1.547227,-0.1443539,-0.4344997,1.432138,0.0430864,0.2677252,1.454211,0.0272138,-0.05888315,1.537013,0.01884933,-0.3706909,1.519607,-0.1479741,0.1275221,1.547014,-0.06148665,-0.360622,1.494065,-0.2114538,-0.1463102,1.563913,0.2778143,-0.03966036,1.319262,NA,NA,NotTracked,Unknown,
0.9296875,0.2197266,0.222168,-0.7919922,0.6757813,0.02636719,0,1,-2,-3,-1,1,-2,-1,15,55,39,4,-2,-6,-11,-4,-1.75,-1.75,-1.75,31.4375,31.4375,31.4375,6.316823,3.038219,6.182935,7.007181,6.631709,1.047688,-0.1929899,-0.4461533,1.457459,0.07663959,0.2931774,1.395144,0.0486387,0.403186,1.547073,-0.1427506,-0.4303772,1.430545,0.0355143,0.2706692,1.447103,0.02728339,-0.05889629,1.537055,0.018879,-0.370718,1.51961,-0.1475827,0.1273312,1.546665,-0.06147313,-0.3606103,1.494058,-0.2099045,-0.1460872,1.561882,0.2774038,-0.039256,1.318397,NA,NA,NotTracked,Unknown,
0.9599609,0.2070313,0.2304688,-0.9682617,0.7578125,0.4130859,-1,-2,-2,-3,0,0,-2,-1,9,1,1,-2,-2,-5,-5,-2,-2.3125,-2.3125,-2.3125,30.375,30.375,30.375,6.304609,3.03259,6.192458,6.972599,6.539426,0.9374111,-0.1927951,-0.4453538,1.457379,0.07498621,0.2300372,1.362002,0.04844814,0.4036495,1.547409,-0.1435725,-0.4317029,1.431619,0.02539907,0.2267251,1.3572,0.02727127,-0.05928387,1.536831,0.01940601,-0.3713396,1.519471,-0.1477856,0.1272034,1.54658,-0.0609927,-0.3612607,1.49423,-0.2092246,-0.1468169,1.559958,0.2788804,-0.04402506,1.323819,NA,NA,NotTracked,Unknown,
0.9833984,0.2080078,0.2163086,-1.194336,0.6704102,0.005859375,-3,1,-1,-3,-2,-1,-3,-1,-20,-22,-6,-3,0,0,-3,-9,-1.75,-1.75,-1.75,-81.1875,-81.1875,-81.1875,6.294764,3.023792,6.198368,6.961461,6.667786,0.9963993,-0.1929292,-0.4453469,1.458784,0.09423682,0.2427597,1.374512,0.04849778,0.4037132,1.547825,-0.1425239,-0.4338989,1.430569,0.06256622,0.2139044,1.347421,0.02733936,-0.05958638,1.53672,0.01990414,-0.3718649,1.519317,-0.1477734,0.1269604,1.546351,-0.06054728,-0.3617568,1.494355,-0.2090639,-0.1471395,1.559389,0.2790728,-0.04603609,1.325783,NA,NA,NotTracked,Unknown,
0.9248047,0.2231445,0.2387695,-0.7827148,0.1484375,-0.03076172,-1,-3,1,-1,-2,-1,-1,-1,2,5,7,2,-2,0,2,2,-4.6875,-4.6875,-4.6875,27.6875,27.6875,27.6875,6.26132,3.006574,6.22752,7.043301,6.878754,1.130717,-0.1944258,-0.4449557,1.461217,0.1211817,0.2520175,1.388981,0.04886207,0.4031982,1.547403,-0.1415061,-0.4260734,1.430821,0.09031773,0.2339766,1.355,0.02862005,-0.05832564,1.536835,0.01996666,-0.3714708,1.519315,-0.1475288,0.1270865,1.546082,-0.06048533,-0.361336,1.494194,-0.2091473,-0.1465026,1.559321,0.2776337,-0.043525,1.322495,NA,NA,NotTracked,Unknown,
0.9150391,0.21875,0.2304688,-0.5751953,0.3154297,0.046875,-1,-1,-1,-3,0,-2,-1,-3,0,-5,-9,-3,-1,-1,1,-2,2.0625,2.0625,2.0625,40.25,40.25,40.25,6.216824,2.989352,6.276005,7.130991,6.818377,1.141731,-0.1974119,-0.4468325,1.464855,0.07551561,0.3175391,1.417028,0.04959605,0.4027276,1.546363,-0.1420675,-0.4410357,1.429376,0.04200707,0.2652034,1.4586,0.02946251,-0.05746931,1.537011,0.01992433,-0.3712238,1.51928,-0.1468678,0.1273188,1.545563,-0.06057944,-0.3609329,1.493885,-0.209341,-0.1459993,1.559302,0.2780857,-0.0394868,1.318766,NA,NA,NotTracked,Unknown,
0.9008789,0.2333984,0.2084961,-0.4077148,0.4394531,0.2373047,-1,-1,0,-1,-1,-1,-1,-2,-3,-1,1,1,1,4,3,0,3.5625,3.5625,3.5625,-35.6875,-35.6875,-35.6875,6.18822,2.978256,6.313834,6.938619,6.531633,0.9351681,-0.2000508,-0.4471676,1.467221,0.1170924,0.2219203,1.353735,0.04964037,0.4037427,1.546517,-0.142933,-0.4406672,1.429539,0.1317269,0.2289074,1.384125,0.02934412,-0.05771156,1.536978,0.01993791,-0.371275,1.519238,-0.1466621,0.1273193,1.545416,-0.06056869,-0.3610018,1.493836,-0.2094778,-0.1459779,1.559239,0.2813568,-0.04398943,1.323668,NA,NA,NotTracked,Unknown,
0.9780273,0.1987305,0.206543,-0.3647461,0.4365234,0.4106445,-1,0,0,-3,-3,-2,-1,0,-4,-3,-4,1,2,-2,-3,-3,11.6875,11.6875,11.6875,-42.4375,-42.4375,-42.4375,6.183382,2.97685,6.331576,6.716401,6.196001,0.7423117,-0.2010544,-0.4480381,1.466982,0.1122972,0.1631444,1.342228,0.04942622,0.4038181,1.546767,-0.1444331,-0.4322291,1.433349,0.1161385,0.1103436,1.434294,0.02884379,-0.05824458,1.536564,0.02007249,-0.3714814,1.519189,-0.1470101,0.1273499,1.545565,-0.06037582,-0.3612935,1.494152,-0.2097374,-0.146431,1.55925,0.3104177,-0.08269808,1.398325,NA,NA,NotTracked,Unknown,
0.9780273,0.1987305,0.2021484,-0.4794922,0.6503906,0.4423828,-1,1,0,0,-2,0,-3,-1,-1,-2,0,2,-2,-3,1,-2,25.9375,25.9375,25.9375,-26.375,-26.375,-26.375,6.203994,2.982845,6.336653,6.575709,5.754604,0.5927084,-0.2007048,-0.4479252,1.466115,0.1047708,0.07558134,1.322735,0.04949871,0.4033305,1.546914,-0.1440846,-0.4387181,1.431929,0.07868823,0.02802707,1.400722,0.02842391,-0.05750072,1.536985,0.02033215,-0.3711564,1.519136,-0.1483171,0.1276366,1.546241,-0.05973956,-0.3609461,1.493566,-0.2099768,-0.1477878,1.559421,0.3137216,-0.09407134,1.44415,NA,NA,NotTracked,Unknown,
0.9428711,0.2675781,0.2070313,-0.1479492,0.8505859,0.4746094,-2,0,0,0,0,-1,2,-2,-15,-2,-1,-1,-1,-6,-5,-5,16.875,16.875,16.875,-6.9375,-6.9375,-6.9375,6.332264,3.014503,6.275088,6.526875,5.056579,0.3762473,-0.198416,-0.4467156,1.466897,0.115121,-0.03704998,1.314956,0.04942444,0.4031112,1.546811,-0.1448642,-0.4294568,1.434759,0.08759331,-0.09235854,1.371346,0.0280543,-0.05586243,1.537455,0.02101442,-0.368174,1.519524,-0.1490636,0.1274229,1.546409,-0.05781349,-0.3577482,1.490912,-0.2099157,-0.1497125,1.560805,0.3021265,-0.1025954,1.464315,NA,NA,NotTracked,Open,
0.8989258,0.2509766,0.2373047,0.1645508,0.7504883,0.4682617,-2,-2,-1,-2,0,0,-2,-1,1,-1,-1,-1,-1,-6,-3,-1,-6.375,-6.375,-6.375,48,48,48,6.369291,3.017209,6.235954,6.581819,4.502856,0.2176134,-0.1971295,-0.4471523,1.469731,0.1225285,-0.1676825,1.328504,0.04924223,0.4026175,1.546611,-0.14474,-0.4453467,1.430891,0.07940526,-0.2079567,1.352666,0.02779245,-0.05483871,1.537365,0.02138033,-0.3660404,1.519352,-0.1499961,0.1270763,1.546712,-0.05693553,-0.3558661,1.489519,-0.2098017,-0.1511992,1.562466,0.2927857,-0.1050882,1.509462,NA,NA,NotTracked,Open,
0.918457,0.2373047,0.2539063,0.5966797,0.9619141,0.3666992,-1,-2,0,-2,-2,0,-2,-1,-1,-1,-4,-2,-1,1,-1,-4,-11.5625,-11.5625,-11.5625,46.9375,46.9375,46.9375,6.354549,2.994457,6.232946,6.734896,3.977563,0.03789131,-0.1974837,-0.4465865,1.474784,0.1699594,-0.286469,1.358264,0.04909881,0.4019598,1.546094,-0.14452,-0.4338213,1.432929,0.1373716,-0.3244446,1.396973,0.02722641,-0.05443272,1.53702,0.02062774,-0.3655238,1.518543,-0.1507968,0.1264895,1.546679,-0.05773367,-0.3549405,1.487555,-0.2097709,-0.1529542,1.563965,0.273741,-0.1103438,1.543866,NA,NA,NotTracked,Unknown,
0.9838867,0.2373047,0.2617188,1.301758,0.7749023,0.4946289,-1,-2,-2,-1,1,-1,-1,-2,4,1,1,0,1,-2,-4,1,-8,-8,-8,-77.5,-77.5,-77.5,6.28475,2.952652,6.283782,6.844789,3.548349,9.824986,-0.1991911,-0.4462594,1.478842,0.2263887,-0.3681277,1.379119,0.04927504,0.4016556,1.545562,-0.1459282,-0.4265054,1.435355,0.1866845,-0.3653972,1.408692,0.02692603,-0.05411774,1.536756,0.02039615,-0.3652909,1.518265,-0.1511573,0.1265648,1.546325,-0.05796684,-0.3543972,1.486449,-0.2098578,-0.1532279,1.564189,0.2737137,-0.124191,1.545503,NA,NA,NotTracked,Unknown,
0.9824219,0.2006836,0.2456055,1.123047,0.6416016,0.234375,0,0,-2,-1,-2,-1,-1,-1,3,2,-3,-5,0,-1,0,2,-16.0625,-16.0625,-16.0625,16.4375,16.4375,16.4375,6.222211,2.934371,6.322113,7.151938,3.197492,9.449487,-0.2025468,-0.4477394,1.479387,0.2371734,-0.4204489,1.427409,0.05017441,0.401265,1.544534,-0.1462545,-0.449927,1.431636,0.1885935,-0.4167881,1.413484,0.02740675,-0.05379706,1.53646,0.02175769,-0.3649817,1.518301,-0.1512418,0.1268894,1.544864,-0.05626811,-0.3540338,1.485564,-0.2100761,-0.1532187,1.564049,0.274098,-0.136339,1.549307,NA,NA,NotTracked,NotTracked,
0.9399414,0.2290039,0.2348633,1.083984,0.546875,0.1328125,-1,-2,-1,-2,-1,-1,-1,0,-1,-3,-2,-1,2,-5,-1,-2,-14.4375,-14.4375,-14.4375,-40.5,-40.5,-40.5,6.186951,2.936445,6.334698,7.334651,3.075412,9.221766,-0.20471,-0.4472906,1.477226,0.2427759,-0.4418457,1.454895,0.05216079,0.400498,1.543139,-0.1478049,-0.4379061,1.433459,0.1886599,-0.4380863,1.416127,0.02835859,-0.05387915,1.536203,0.0240297,-0.3655362,1.51837,-0.151103,0.1269901,1.542778,-0.05393855,-0.3547696,1.484579,-0.2110702,-0.1533621,1.56328,0.2727196,-0.144387,1.554146,NA,NA,NotTracked,NotTracked,
