ALX,ALY,ALZ,ARX,ARY,ARZ,EMG0L,EMG1L,EMG2L,EMG3L,EMG4L,EMG5L,EMG6L,EMG7L,EMG0R,EMG1R,EMG2R,EMG3R,EMG4R,EMG5R,EMG6R,EMG7R,GLX,GLY,GLZ,GRX,GRY,GRZ,ORL,OPL,OYL,ORR,OPR,OYR,LHNX,LHNY,LHNZ,RHNX,RHNY,RHNZ,HX,HY,HZ,LTX,LTY,LTZ,RTX,RTY,RTZ,SpineMidX,SpineMidY,SpineMidZ,SpineBaseX,SpineBaseY,SpineBaseZ,ShoulderLeftX,ShoulderLeftY,ShoulderLeftZ,ShoulderRightX,ShoulderRightY,ShoulderRightZ,ElbowLeftX,ElbowLeftY,ElbowLeftZ,ElbowRightX,ElbowRightY,ElbowRightZ,Myo_Pose_left,Myo_Pose_Right,Kinect_pose_left,Kinect_pose_right
0.9443359,0.2060547,0.2260742,0.9091797,0.3461914,0.09082031,-3,-1,-1,-2,-1,-2,-1,0,0,0,-2,0,-2,0,0,-2,-1.625,-1.625,-1.625,-0.75,-0.75,-0.75,6.205703,2.987049,7.312572,7.204401,3.087681,0.9864761,-0.190991,-0.4365847,1.453948,0.233892,-0.4603296,1.437795,0.0597714,0.4001212,1.523501,-0.1369282,-0.4240552,1.422581,0.185819,-0.4573648,1.401132,0.04274422,-0.05212142,1.528213,0.03671651,-0.3651143,1.510362,-0.1405888,0.1286732,1.529682,-0.041609,-0.3559745,1.476569,-0.202363,-0.1464451,1.546836,0.2721225,-0.1506949,1.548309,NA,NA,NotTracked,NotTracked,
0.9428711,0.2167969,0.2280273,0.9091797,0.3461914,0.08154297,-1,-4,-2,-2,-2,0,-1,0,-1,-1,0,0,-1,-1,-1,1,0.1875,0.1875,0.1875,-0.4375,-0.4375,-0.4375,6.21282,2.987395,7.305733,7.206952,3.08643,0.9830294,-0.1897318,-0.4365193,1.453102,0.2346653,-0.4600638,1.437934,0.06017048,0.4002405,1.523288,-0.1361772,-0.4283481,1.420584,0.1884111,-0.446805,1.401338,0.04292014,-0.05207821,1.527899,0.03683938,-0.3651271,1.510131,-0.1402462,0.1288349,1.529354,-0.04152044,-0.3559783,1.476348,-0.2021018,-0.1462172,1.54666,0.2722002,-0.1506582,1.548167,NA,NA,NotTracked,NotTracked,
0.9453125,0.2119141,0.2265625,0.909668,0.3422852,0.08789063,0,-2,-1,-1,0,-1,0,-1,-3,0,-2,-1,-4,0,0,-4,-1.375,-1.375,-1.375,-0.9375,-0.9375,-0.9375,6.217469,2.987751,7.298105,7.207747,3.086474,0.9791508,-0.1894553,-0.4369255,1.453224,0.2399848,-0.44061,1.444063,0.06036395,0.400311,1.523293,-0.1344684,-0.464389,1.420154,0.1919669,-0.4270215,1.405155,0.04311986,-0.05205941,1.527725,0.03704036,-0.3651182,1.510067,-0.1400874,0.1289177,1.529221,-0.04134708,-0.3559773,1.476262,-0.2018773,-0.1462868,1.546569,0.2723764,-0.1507461,1.548013,NA,NA,NotTracked,NotTracked,
0.9482422,0.2075195,0.2275391,0.9038086,0.3442383,0.08837891,-2,-1,0,-3,0,-3,-1,-1,-3,-4,-2,-2,-4,-1,0,-1,-1.625,-1.625,-1.625,-0.25,-0.25,-0.25,6.217298,2.987761,7.294744,7.208864,3.086192,0.9763952,-0.189174,-0.4357343,1.452777,0.23451,-0.459989,1.438435,0.06047868,0.400347,1.523247,-0.1359526,-0.4322114,1.419848,0.1896689,-0.4375837,1.403458,0.04324872,-0.05206559,1.527513,0.03713743,-0.365108,1.509932,-0.1400058,0.1289538,1.529203,-0.04122844,-0.35598,1.476037,-0.2017178,-0.146336,1.546452,0.2725559,-0.150902,1.547826,NA,NA,NotTracked,NotTracked,
0.9467773,0.2070313,0.222168,0.9116211,0.3408203,0.09960938,-1,0,-1,-2,-1,-3,-2,0,-2,0,-2,-5,-3,-2,0,0,-1.5,-1.5,-1.5,-0.8125,-0.8125,-0.8125,6.216644,2.986946,7.295113,7.203054,3.084992,0.9777249,-0.1888035,-0.436327,1.452626,0.2346509,-0.4606348,1.438539,0.06061451,0.4003458,1.523097,-0.1355526,-0.4279646,1.421357,0.1906143,-0.4347453,1.403955,0.0433563,-0.05211433,1.527374,0.03728113,-0.3651552,1.50979,-0.1399691,0.1289587,1.52917,-0.0411124,-0.3560199,1.475857,-0.2015533,-0.1461975,1.546293,0.2726367,-0.150996,1.547769,NA,NA,NotTracked,NotTracked,
0.9492188,0.2050781,0.2231445,0.9067383,0.3515625,0.08203125,0,0,-1,-2,0,0,-1,-2,2,1,0,-1,0,-1,-1,1,-2.125,-2.125,-2.125,-1.0625,-1.0625,-1.0625,6.213374,2.985873,7.295637,7.202441,3.084521,0.9769149,-0.1896579,-0.4358819,1.454086,0.2345856,-0.4601509,1.4399,0.06072089,0.400365,1.523,-0.1360665,-0.4315282,1.419565,0.1883719,-0.4435611,1.403434,0.04345855,-0.05210262,1.527282,0.03740051,-0.3651804,1.509727,-0.1397245,0.1289348,1.528745,-0.04101813,-0.3560517,1.47581,-0.2015328,-0.1459714,1.546212,0.2726812,-0.1509984,1.547761,NA,NA,NotTracked,NotTracked,
0.9423828,0.2094727,0.2270508,0.996582,0.3945313,0.09033203,0,-2,0,-1,0,-1,-1,-1,21,-21,-17,-1,0,1,0,-17,-1.125,-1.125,-1.125,-3.0625,-3.0625,-3.0625,6.210161,2.984723,7.29773,7.201143,3.094191,0.9722163,-0.1891717,-0.4368399,1.454571,0.2342248,-0.4600895,1.440423,0.06087236,0.4003963,1.522891,-0.136013,-0.4294947,1.421087,0.1881607,-0.4466224,1.405295,0.04345902,-0.05207268,1.527225,0.03744138,-0.365172,1.509693,-0.1397073,0.1290035,1.528733,-0.04098143,-0.3560525,1.475744,-0.2015507,-0.1458724,1.546135,0.2727655,-0.1509686,1.54775,NA,NA,NotTracked,NotTracked,
0.953125,0.2006836,0.2397461,1.212402,0.9541016,0.1479492,-1,-2,-1,0,1,-2,0,-2,-6,16,40,20,-2,-15,-16,-5,1.75,1.75,1.75,-3.375,-3.375,-3.375,6.197378,2.98529,7.311188,7.002059,3.300803,1.222291,-0.1902352,-0.4364748,1.452784,0.2374192,-0.4458534,1.436446,0.06092753,0.400423,1.522826,-0.1357795,-0.424182,1.42251,0.1904178,-0.4259601,1.405492,0.04352281,-0.05202789,1.527135,0.03756151,-0.3651216,1.509635,-0.1397058,0.128984,1.528658,-0.04084112,-0.3559664,1.475622,-0.2015506,-0.1458203,1.546043,0.2733293,-0.1506842,1.548232,NA,NA,NotTracked,NotTracked,
0.925293,0.1904297,0.2373047,1.274414,1.151367,0.6904297,-1,-1,-1,0,-2,0,-2,-2,-2,19,28,7,-5,-3,-4,-1,13.8125,13.8125,13.8125,-11.125,-11.125,-11.125,6.182737,2.996422,7.349606,6.768119,3.673069,1.495604,-0.1918846,-0.4354672,1.453104,0.2254559,-0.3941769,1.399636,0.06099921,0.4004506,1.522812,-0.1363957,-0.4339224,1.419855,0.2098814,-0.4347388,1.420333,0.0434617,-0.05200146,1.527039,0.03744393,-0.3650431,1.50955,-0.1396713,0.1289862,1.528598,-0.04105279,-0.3557576,1.475308,-0.2016316,-0.1456135,1.546026,0.2781689,-0.1471563,1.551451,NA,NA,NotTracked,NotTracked,
0.9179688,0.253418,0.2104492,0.7001953,0.8759766,0.6796875,-1,0,0,-2,1,-1,-2,-2,-7,-10,-29,-18,-8,-5,-6,-7,1.3125,1.3125,1.3125,-77.375,-77.375,-77.375,6.205401,3.005242,7.342337,6.556419,4.249821,1.655977,-0.1920577,-0.4359069,1.453448,0.1958937,-0.2940927,1.328287,0.06118488,0.4004441,1.522786,-0.1363415,-0.4235081,1.422417,0.1512044,-0.3184216,1.3876,0.04276729,-0.05186557,1.526684,0.03538209,-0.3644265,1.509237,-0.1396877,0.1290321,1.528594,-0.04318681,-0.3546242,1.474811,-0.2019462,-0.1449723,1.546139,0.2848338,-0.1250931,1.54982,NA,NA,NotTracked,Unknown,
0.8964844,0.2470703,0.2207031,0.1210938,0.4208984,0.5864258,-1,-3,0,0,-2,-1,0,-1,-1,-14,-22,-6,-1,-3,-1,1,-20.125,-20.125,-20.125,-40.8125,-40.8125,-40.8125,6.196055,2.996368,7.330204,6.404617,4.91403,1.78745,-0.193478,-0.4364118,1.455293,0.1650768,-0.1241363,1.315555,0.06170662,0.4003888,1.522622,-0.1368828,-0.4284157,1.422125,0.1182578,-0.1621106,1.367518,0.04254263,-0.05174851,1.526608,0.03474938,-0.3639233,1.509372,-0.1394612,0.1292035,1.528401,-0.0437835,-0.3540262,1.474984,-0.2020738,-0.1446878,1.545995,0.3058248,-0.1109563,1.52551,NA,NA,NotTracked,Unknown,
0.9628906,0.2265625,0.2348633,-0.2944336,0.4414063,0.4741211,0,-1,-2,0,-2,-1,0,-1,-3,-26,-3,1,-3,-5,-5,-8,-11.5,-11.5,-11.5,79.625,79.625,79.625,6.159811,2.969814,7.330855,6.539314,5.742254,2.022101,-0.1936812,-0.4375851,1.456069,0.1484627,0.02804638,1.308131,0.0627894,0.4000657,1.522154,-0.137123,-0.4271083,1.422469,0.1004808,0.0311926,1.379333,0.04237263,-0.05155018,1.526935,0.03462922,-0.3630551,1.510222,-0.1408629,0.1293695,1.529661,-0.04373853,-0.3533925,1.475875,-0.202531,-0.1443565,1.545451,0.3100295,-0.09376554,1.457277,NA,NA,NotTracked,Unknown,
0.9794922,0.2109375,0.2353516,-0.4272461,0.4521484,0.3320313,-1,-2,0,-1,-1,0,0,-2,-2,-5,-16,-10,-3,0,-1,-1,-13.75,-13.75,-13.75,36.875,36.875,36.875,6.160225,2.966038,7.307719,6.781735,6.205956,2.272996,-0.1930877,-0.4381225,1.453907,0.14854,0.130462,1.325736,0.06294402,0.3998132,1.522246,-0.1379343,-0.4358589,1.422196,0.128597,0.1584401,1.3391,0.03994425,-0.05402368,1.527786,0.0339708,-0.366315,1.510615,-0.1406704,0.1294422,1.529252,-0.04532761,-0.3578445,1.479625,-0.2028069,-0.1443315,1.544619,0.3286101,-0.09214024,1.454928,NA,NA,NotTracked,Unknown,
0.9555664,0.2128906,0.237793,-0.5087891,0.4179688,0.2109375,-2,-1,-1,-1,0,-1,1,-1,-2,-8,-11,-8,-2,-4,-8,-12,-8.5625,-8.5625,-8.5625,17.6875,17.6875,17.6875,6.183035,2.982078,7.265725,7.17291,6.529939,2.735057,-0.1915662,-0.4385108,1.448763,0.1424819,0.1936199,1.359103,0.06250343,0.4001662,1.522584,-0.137268,-0.4261026,1.423246,0.111628,0.1854849,1.31827,0.0387015,-0.05559445,1.527822,0.03294402,-0.3682766,1.510561,-0.1416679,0.1293804,1.530354,-0.04691462,-0.3593382,1.480708,-0.2027113,-0.1429078,1.543575,0.3354637,-0.07890018,1.407628,NA,NA,NotTracked,Unknown,
0.9282227,0.1953125,0.2211914,-0.5273438,0.4970703,0.03466797,-1,-2,-1,0,0,-1,-2,-2,-10,-12,-5,-5,-5,-4,-4,-19,5.25,5.25,5.25,16.125,16.125,16.125,6.216306,3.020598,7.227043,7.461945,6.609778,3.047866,-0.1886803,-0.449117,1.44026,0.1012548,0.2612514,1.393705,0.06251663,0.400045,1.522629,-0.1369288,-0.4276944,1.4226,0.05674106,0.255377,1.450667,0.0381736,-0.05638497,1.528117,0.03252036,-0.3687799,1.510484,-0.1404256,0.1292978,1.529602,-0.04757382,-0.3596261,1.480977,-0.2024765,-0.142084,1.542876,0.3251031,-0.05012412,1.349154,NA,NA,NotTracked,Unknown,
0.9379883,0.2167969,0.206543,-0.8442383,0.5244141,-0.2202148,0,-1,-1,-1,-1,-1,0,-1,0,2,-2,-2,-1,0,0,3,16.0625,16.0625,16.0625,24.75,24.75,24.75,6.253245,3.048364,7.211929,7.618956,6.643957,3.169745,-0.1863,-0.4482075,1.436167,0.1398282,0.2225889,1.399968,0.06229368,0.399982,1.523072,-0.1363518,-0.4187939,1.423871,0.1479265,0.1542603,1.464406,0.03755312,-0.05691281,1.52852,0.03176835,-0.3690647,1.510396,-0.1400213,0.1293259,1.52957,-0.04840866,-0.3597523,1.481277,-0.2021241,-0.1410404,1.542286,0.3332281,-0.04389302,1.34628,NA,NA,NotTracked,NotTracked,
0.9570313,0.2231445,0.2075195,-0.940918,0.3867188,-0.01025391,-1,-1,0,-1,-1,-2,-1,-2,-1,-2,-3,0,1,-3,-6,-3,9,9,9,18.75,18.75,18.75,6.288604,3.066723,7.196188,7.572762,6.662176,3.073691,-0.1853542,-0.4453021,1.433929,0.1397835,0.2287532,1.387,0.06154683,0.400245,1.523706,-0.1391767,-0.4125926,1.425833,0.1491478,0.1546606,1.464326,0.03719024,-0.05708148,1.528684,0.0310243,-0.3692707,1.510045,-0.1400025,0.1292267,1.529913,-0.04914735,-0.3598517,1.481181,-0.2018356,-0.1409776,1.542001,0.3358006,-0.03717501,1.340528,NA,NA,NotTracked,Unknown,
0.9355469,0.2407227,0.2294922,-0.6743164,0.4794922,-0.003417969,0,0,-3,-2,-2,-1,0,-1,2,0,-1,7,-21,-18,13,7,-1.875,-1.875,-1.875,29.4375,29.4375,29.4375,6.317776,3.067398,7.170175,7.505337,6.631349,2.929758,-0.1842533,-0.4444289,1.436128,0.1216656,0.2591641,1.361062,0.05979545,0.4020109,1.52504,-0.1395559,-0.4256095,1.42498,0.1191008,0.3005051,1.372727,0.03652856,-0.05698394,1.528997,0.02976592,-0.3690165,1.509606,-0.1434838,0.1292352,1.533695,-0.05051083,-0.3594828,1.480859,-0.2017262,-0.1408965,1.541954,0.3373966,-0.02790109,1.331515,NA,NA,NotTracked,Unknown,
0.9208984,0.2158203,0.2592773,-0.625,0.5625,0.2475586,-2,-2,-1,-1,-2,-1,-1,-1,-2,2,4,-6,1,4,0,-3,-6.4375,-6.4375,-6.4375,14.625,14.625,14.625,6.297984,3.04863,7.179052,7.376382,6.52849,2.754401,-0.1855896,-0.4470617,1.441336,0.1102501,0.2491392,1.333196,0.057631,0.4056955,1.528163,-0.1396518,-0.4292476,1.425386,0.1084147,0.2799723,1.351143,0.03578898,-0.05700045,1.529377,0.02854854,-0.3689619,1.509335,-0.1442121,0.1290448,1.534824,-0.05182811,-0.3592387,1.480674,-0.2016973,-0.1410587,1.542145,0.3372913,-0.01529125,1.320818,NA,NA,NotTracked,Unknown,
0.9575195,0.2021484,0.25,-0.8686523,0.8022461,0.3022461,-1,-2,-1,0,0,-2,-2,-2,-22,-14,-6,-2,-1,-1,-1,-5,13.8125,13.8125,13.8125,-19.375,-19.375,-19.375,6.247703,3.021631,7.242233,7.288097,6.481888,2.669085,-0.1874819,-0.4464766,1.445752,0.136325,0.2149637,1.331825,0.05574441,0.4069677,1.531125,-0.1407045,-0.4295345,1.425843,0.1478761,0.2390458,1.329929,0.03525128,-0.05716528,1.529446,0.02777024,-0.3690978,1.509013,-0.1458833,0.1290274,1.536641,-0.05254174,-0.3592542,1.480656,-0.2017046,-0.1415039,1.542801,0.3372011,-0.01375824,1.32012,NA,NA,NotTracked,Unknown,
0.9619141,0.2836914,0.2392578,-0.9663086,0.4135742,0.03564453,0,-3,-2,-3,0,-1,-3,-1,-9,-21,-12,-2,6,6,-8,-12,6.8125,6.8125,6.8125,-14.1875,-14.1875,-14.1875,6.241507,3.009999,7.271245,7.316859,6.634154,2.788474,-0.1904179,-0.4503385,1.450422,0.1338828,0.2240493,1.355132,0.05466238,0.4067219,1.532173,-0.1375986,-0.4339901,1.42188,0.1125634,0.2777773,1.3808,0.03466818,-0.05732325,1.529451,0.02689888,-0.3691712,1.508786,-0.1467506,0.128968,1.53734,-0.05335525,-0.359246,1.480724,-0.2022446,-0.1420516,1.543844,0.3372798,-0.01379998,1.320079,NA,NA,NotTracked,Unknown,
0.921875,0.2612305,0.25,-0.8676758,0.237793,-0.1254883,-1,-2,0,-1,-1,0,-1,-1,-3,-4,-1,1,-2,-6,-6,2,-9.8125,-9.8125,-9.8125,13.625,13.625,13.625,6.212709,2.989469,7.291183,7.437863,6.746362,2.910687,-0.1941953,-0.450828,1.455461,0.07024651,0.3149859,1.415421,0.05461441,0.4064206,1.532322,-0.1399165,-0.4300099,1.425281,0.06176038,0.4093193,1.410429,0.03546612,-0.05605364,1.529458,0.02615372,-0.3688099,1.508923,-0.147218,0.1291112,1.537828,-0.05415365,-0.3587946,1.480872,-0.2036533,-0.1417717,1.54547,0.3367876,-0.01474809,1.32058,NA,NA,NotTracked,NotTracked,
0.9287109,0.2236328,0.2578125,-0.6416016,0.4589844,-0.1464844,-2,-1,0,-2,0,-1,0,-1,-12,-3,-2,-1,-20,-1,0,-9,-9.0625,-9.0625,-9.0625,14,14,14,6.140531,2.964048,7.340915,7.375744,6.647226,2.799735,-0.1984111,-0.4510267,1.46005,0.0703622,0.3118577,1.406407,0.05476979,0.4063684,1.532381,-0.1448611,-0.4320028,1.430471,0.05479265,0.4073237,1.409452,0.03519957,-0.05602078,1.5297,0.02591503,-0.368614,1.509026,-0.1475134,0.1292109,1.538086,-0.05439105,-0.3585666,1.480957,-0.2047231,-0.1415904,1.546175,0.3353557,-0.0161968,1.320395,NA,NA,NotTracked,Unknown,
0.9443359,0.2148438,0.2358398,-0.8720703,0.7963867,0.3540039,-2,1,-2,-2,0,2,0,-3,-4,-11,-5,-9,-3,-12,-8,-10,6.8125,6.8125,6.8125,19.9375,19.9375,19.9375,6.106123,2.965208,7.379818,7.228186,6.487158,2.591674,-0.2015101,-0.451098,1.45884,0.07765594,0.2751892,1.375238,0.05463981,0.4072317,1.533229,-0.1455593,-0.4316658,1.430147,0.03704158,0.2752419,1.430636,0.03489842,-0.05629874,1.529833,0.02591334,-0.3686408,1.509061,-0.1452533,0.1292709,1.536336,-0.05435219,-0.3585825,1.481117,-0.2060202,-0.1412151,1.546405,0.3333207,-0.0293176,1.319069,NA,NA,NotTracked,Unknown,
0.9697266,0.2338867,0.21875,-1.097168,0.8364258,0.3461914,-1,-2,-2,-1,1,-1,0,-1,22,12,-1,-3,-1,-4,-2,1,13,13,13,-30,-30,-30,6.129494,2.986415,7.378084,7.137583,6.499656,2.531587,-0.2013825,-0.4497278,1.454618,0.1274224,0.2067196,1.331034,0.05432418,0.4072783,1.534627,-0.1453158,-0.4291265,1.429451,0.1347,0.2420393,1.332176,0.03397239,-0.05728871,1.529768,0.0256747,-0.3695183,1.509027,-0.1461869,0.1292272,1.536952,-0.05459363,-0.3593627,1.481354,-0.2067707,-0.1410794,1.54674,0.3336684,-0.02470902,1.318365,NA,NA,NotTracked,Unknown,
0.9204102,0.2666016,0.2207031,-0.887207,0.2553711,-0.1010742,0,-1,-1,-1,-1,-2,-2,-1,-14,-8,1,1,5,4,-1,-6,-3.6875,-3.6875,-3.6875,19.125,19.125,19.125,6.209143,3.019416,7.305093,7.290265,6.767742,2.726,-0.1993869,-0.448358,1.450395,0.07710216,0.2960597,1.406146,0.05429321,0.4071012,1.534769,-0.1478879,-0.4212256,1.431431,0.04684052,0.3909658,1.41375,0.03386366,-0.05737674,1.529765,0.02561594,-0.3695311,1.50903,-0.1467042,0.1293343,1.537292,-0.05466846,-0.3593546,1.48136,-0.2072872,-0.1405599,1.54675,0.333185,-0.02545837,1.319488,NA,NA,NotTracked,NotTracked,
0.8935547,0.2480469,0.2324219,-0.777832,0.190918,-0.07373047,-1,0,-3,-3,0,-1,1,-1,-17,-5,0,1,-3,1,5,-4,-13.5,-13.5,-13.5,10.25,10.25,10.25,6.229752,3.026856,7.269826,7.411839,6.848249,2.828956,-0.1972785,-0.4477045,1.447896,0.08138005,0.3143599,1.413086,0.05512395,0.4062346,1.533846,-0.1475818,-0.419659,1.431148,0.05233296,0.265517,1.451905,0.03519734,-0.05581021,1.529717,0.02544102,-0.3689371,1.50912,-0.1452908,0.1295272,1.535756,-0.05492321,-0.3585883,1.481035,-0.2077417,-0.1394378,1.54632,0.3316968,-0.02399258,1.319521,NA,NA,NotTracked,NotTracked,
0.934082,0.2060547,0.237793,-0.5214844,0.3349609,-0.07568359,-2,-2,-1,-1,-3,-1,-1,-1,-5,-7,-4,-1,5,-1,-6,-13,-1.3125,-1.3125,-1.3125,8.4375,8.4375,8.4375,6.230615,3.029055,7.24496,7.306862,6.732075,2.693138,-0.1950713,-0.4478447,1.446043,0.0814769,0.3141435,1.403509,0.05564126,0.4061666,1.533467,-0.1459537,-0.4238036,1.428963,0.05320997,0.2659035,1.451483,0.03505652,-0.05571869,1.53002,0.02531181,-0.3686209,1.509221,-0.1428567,0.128988,1.533696,-0.05514926,-0.3582007,1.480954,-0.2074932,-0.1393522,1.54581,0.330246,-0.0230027,1.319168,NA,NA,NotTracked,Unknown,
0.9638672,0.2104492,0.2333984,-0.9848633,0.7587891,0.3847656,-3,-1,-2,-1,0,-2,0,0,11,33,25,0,-6,-3,0,1,5.375,5.375,5.375,6.125,6.125,6.125,6.245928,3.037339,7.234629,7.125839,6.532875,2.474056,-0.1924749,-0.4471917,1.441724,0.1262948,0.2180095,1.329113,0.05568812,0.4066815,1.533879,-0.14406,-0.4165908,1.428717,0.09516758,0.2754442,1.363286,0.03464574,-0.05619739,1.530062,0.02523199,-0.3689086,1.509263,-0.1437986,0.1290828,1.534433,-0.05523938,-0.3585077,1.481117,-0.2070281,-0.1395284,1.544992,0.329833,-0.02462753,1.319488,NA,NA,NotTracked,Unknown,
0.9848633,0.2128906,0.2373047,-1.3125,0.8647461,0.06738281,-2,-1,0,0,-1,-1,-2,-1,-14,-17,-5,3,1,4,4,-1,-0.125,-0.125,-0.125,-54.25,-54.25,-54.25,6.271049,3.048007,7.209409,7.031608,6.544456,2.458049,-0.1905269,-0.4462564,1.439395,0.1266497,0.20347,1.333694,0.0553139,0.4065298,1.535089,-0.1443249,-0.4212397,1.426928,0.1379198,0.2385614,1.34458,0.03383969,-0.05722372,1.529703,0.02517358,-0.3698832,1.50913,-0.1451611,0.1291751,1.535266,-0.05531434,-0.3594697,1.481268,-0.2065462,-0.1396065,1.544481,0.3284525,-0.02833959,1.320303,NA,NA,NotTracked,Unknown,
0.909668,0.2509766,0.2548828,-0.8989258,0.3022461,0.02001953,-1,-1,0,1,0,0,-1,-1,0,7,3,1,0,3,4,11,-8.6875,-8.6875,-8.6875,12.625,12.625,12.625,6.284582,3.045744,7.18432,7.131839,6.751252,2.599106,-0.1886588,-0.4453705,1.439315,0.08055542,0.2965588,1.406706,0.0554146,0.4064445,1.534954,-0.1409789,-0.415355,1.42546,0.05040384,0.4002645,1.40625,0.03377173,-0.05737684,1.529672,0.02524283,-0.370052,1.50911,-0.1443648,0.1294109,1.534188,-0.05524933,-0.3596685,1.481296,-0.2060691,-0.1396655,1.544062,0.3279388,-0.03225794,1.323326,NA,NA,NotTracked,NotTracked,
0.9155273,0.1972656,0.262207,-0.7436523,0.203125,-0.1450195,-1,-1,-3,-2,0,-1,-1,-2,-2,6,3,8,7,0,-5,0,-12.5,-12.5,-12.5,38.9375,38.9375,38.9375,6.230482,3.027207,7.215504,7.340667,6.840256,2.751474,-0.190713,-0.4460125,1.443408,0.08426189,0.3111965,1.411229,0.05655529,0.4054819,1.533542,-0.1407985,-0.4181345,1.424404,0.06476078,0.4071358,1.407125,0.03397998,-0.0570395,1.529824,0.02541524,-0.3694427,1.509135,-0.1425362,0.1295299,1.531972,-0.05512321,-0.3590576,1.481041,-0.2056314,-0.138798,1.543185,0.3259264,-0.03329676,1.32439,NA,NA,NotTracked,NotTracked,
0.9282227,0.2080078,0.2475586,-0.5493164,0.3842773,0.08154297,-1,-2,-1,-1,-1,-1,-1,-2,4,2,-5,2,2,2,-3,-7,5.75,5.75,5.75,-4.875,-4.875,-4.875,6.171555,3.011653,7.277277,7.2371,6.689229,2.591653,-0.1937174,-0.4470073,1.445054,0.08165687,0.3112665,1.402506,0.05738777,0.4052565,1.532745,-0.1412804,-0.4222015,1.425985,0.05498399,0.2654142,1.447991,0.03411701,-0.0567417,1.529989,0.02545417,-0.3688812,1.509193,-0.1413006,0.1298879,1.530737,-0.05512144,-0.3584006,1.480911,-0.2057267,-0.1384417,1.542796,0.3253804,-0.03339312,1.325172,NA,NA,NotTracked,Unknown,
0.9335938,0.2358398,0.2226563,-0.3989258,0.5151367,0.2421875,-1,-1,-1,-1,0,0,0,-2,3,-11,-8,-5,-3,-2,2,2,5.125,5.125,5.125,-11.8125,-11.8125,-11.8125,6.145032,3.007305,7.316809,7.034844,6.481795,2.385316,-0.196669,-0.4476041,1.444548,0.08860629,0.2755736,1.376273,0.05763047,0.4057203,1.532485,-0.1425471,-0.4305429,1.426676,0.07638965,0.2746654,1.425,0.03410185,-0.05680637,1.529941,0.0254471,-0.3690867,1.509174,-0.1404766,0.1297149,1.529732,-0.05516391,-0.3585788,1.480877,-0.2059834,-0.1382799,1.542051,0.3292036,-0.03795103,1.331933,NA,NA,NotTracked,Unknown,
0.9746094,0.1967773,0.2138672,-0.5087891,0.578125,0.3574219,0,-2,-1,0,-1,0,-1,0,-1,0,0,0,-3,-5,-1,-1,13.3125,13.3125,13.3125,-47.8125,-47.8125,-47.8125,6.146408,3.011517,7.335186,6.793845,6.129027,2.154938,-0.1977534,-0.4476616,1.443872,0.1383058,0.1671161,1.313787,0.0569605,0.4057531,1.532804,-0.1429272,-0.4245784,1.426583,0.1400417,0.1946929,1.278733,0.03369096,-0.05743834,1.529494,0.02577278,-0.370216,1.509063,-0.1405305,0.1297358,1.529193,-0.05481205,-0.3601101,1.481569,-0.2061754,-0.1381337,1.541725,0.3275935,-0.07455373,1.379033,NA,NA,NotTracked,Unknown,
0.9472656,0.2407227,0.2036133,-0.4584961,0.6303711,0.4619141,0,-1,-1,-1,0,-1,0,-2,-2,-4,-2,-3,-3,-2,-2,-5,17.75,17.75,17.75,-39.875,-39.875,-39.875,6.195446,3.022172,7.318102,6.644522,5.772845,2.005667,-0.1971232,-0.4472684,1.444849,0.1184099,0.1147176,1.29763,0.05687726,0.4050304,1.532924,-0.1432089,-0.4228926,1.427584,0.09227945,0.1232816,1.348143,0.03352075,-0.05750499,1.529567,0.02658404,-0.3705659,1.5092,-0.1410463,0.1298717,1.529113,-0.05359119,-0.3608072,1.481933,-0.2063354,-0.1384412,1.541747,0.3170517,-0.08635374,1.402652,NA,NA,NotTracked,Unknown,
0.921875,0.2436523,0.2319336,-0.3242188,0.5566406,0.4755859,1,-2,-2,-1,-3,0,-2,-1,4,2,-1,-2,-1,-1,0,1,6.875,6.875,6.875,-27.5,-27.5,-27.5,6.235038,3.027862,7.295167,6.526835,5.310725,1.868287,-0.195921,-0.4472828,1.446198,0.1346902,-0.007907052,1.32002,0.0572926,0.4048308,1.532958,-0.1433936,-0.4229877,1.428206,0.09792751,-0.05322653,1.375863,0.03409095,-0.05619556,1.529627,0.02867191,-0.3672496,1.509975,-0.144641,0.1299985,1.531997,-0.05019833,-0.3578122,1.480186,-0.2065757,-0.138773,1.541881,0.3053926,-0.09231672,1.442181,NA,NA,NotTracked,Unknown,
0.9208984,0.2182617,0.2446289,-0.09179688,0.7431641,0.3681641,-1,0,-1,-1,-2,-1,1,0,34,6,1,0,0,0,3,11,6,6,6,-1.75,-1.75,-1.75,6.241458,3.020979,7.295305,6.518571,4.771301,1.729935,-0.1949737,-0.4475904,1.447937,0.135969,-0.1268621,1.329642,0.05755034,0.4045609,1.53275,-0.1429463,-0.4226573,1.426651,0.09013899,-0.09130856,1.36386,0.03511001,-0.05362179,1.528744,0.030102,-0.3648592,1.509899,-0.1440803,0.1299932,1.530631,-0.04808486,-0.3554134,1.478492,-0.2066617,-0.1394552,1.542211,0.3045771,-0.09983778,1.499169,NA,NA,NotTracked,Unknown,
0.9267578,0.2480469,0.2558594,0.6030273,0.972168,0.4013672,0,-1,-3,-2,-1,-1,-1,0,-7,12,5,2,0,-1,-1,2,0,0,0,51.5625,51.5625,51.5625,6.246398,3.005873,7.295074,6.664527,4.018062,1.554261,-0.193963,-0.4476337,1.450801,0.1750782,-0.2514562,1.347621,0.05848154,0.4041803,1.53211,-0.1425914,-0.4276032,1.425537,0.1369773,-0.2899808,1.382778,0.03568899,-0.05254387,1.527857,0.03035224,-0.3642097,1.509266,-0.1433567,0.1301182,1.529002,-0.0476252,-0.3547032,1.476579,-0.2065144,-0.1399938,1.542372,0.2822855,-0.1040646,1.54344,NA,NA,NotTracked,Unknown,
0.972168,0.2426758,0.2792969,1.208496,0.7612305,0.5336914,0,0,-2,-1,-3,-1,1,-1,-3,-9,-3,-1,1,0,5,0,-24.75,-24.75,-24.75,-30.625,-30.625,-30.625,6.221827,2.970003,7.273575,6.750202,3.497539,1.390998,-0.1932493,-0.450275,1.452096,0.2148547,-0.3683011,1.378452,0.05992756,0.4036499,1.531394,-0.1417191,-0.4331692,1.424937,0.1812516,-0.3433433,1.4131,0.0360412,-0.05216826,1.52703,0.03040231,-0.3641671,1.50856,-0.1424017,0.1302945,1.526412,-0.04759976,-0.3544511,1.474444,-0.2062953,-0.141974,1.542419,0.2797718,-0.1207292,1.548099,NA,NA,NotTracked,Unknown,
0.9897461,0.2290039,0.2734375,1.27002,0.809082,0.1074219,0,-1,0,0,-1,-1,0,0,-12,-2,-2,0,-2,-6,-3,-3,-27.9375,-27.9375,-27.9375,-10.875,-10.875,-10.875,6.20906,2.963278,7.270486,7.160492,3.088109,0.8981756,-0.1955607,-0.4387942,1.4563,0.2349675,-0.4231348,1.429362,0.0619948,0.4031288,1.530972,-0.1414629,-0.4314035,1.422763,0.1875535,-0.4144275,1.400129,0.03728889,-0.05189464,1.526548,0.03242337,-0.3644303,1.508049,-0.1410821,0.1299743,1.523851,-0.04532706,-0.3547132,1.472813,-0.2063102,-0.1423085,1.542261,0.2760596,-0.137409,1.549882,NA,NA,NotTracked,NotTracked,
0.9624023,0.1962891,0.2670898,1.086914,0.5458984,0.08251953,0,-2,1,-2,-2,0,-1,-1,4,-1,-1,0,-11,-15,2,3,-12.25,-12.25,-12.25,-129.0625,-129.0625,-129.0625,6.126121,2.95891,7.301531,7.279418,3.007814,0.6006346,-0.1975518,-0.4387159,1.452795,0.2438799,-0.4388174,1.455141,0.06552049,0.4020787,1.53021,-0.1421472,-0.4272361,1.423904,0.1987002,-0.4034115,1.413328,0.03991768,-0.0517486,1.526001,0.03608248,-0.3647679,1.50801,-0.13922,0.1300805,1.520663,-0.0418805,-0.3552514,1.471693,-0.2066238,-0.1419456,1.541335,0.2741382,-0.1461704,1.55147,NA,NA,NotTracked,NotTracked,
0.9165039,0.2114258,0.2363281,0.8056641,0.3876953,0.2016602,-2,-1,-1,-1,0,-1,0,-2,3,-2,-3,-1,-1,-1,-3,-4,-7.875,-7.875,-7.875,6.375,6.375,6.375,6.097631,2.97593,7.316704,7.102134,3.03702,0.7155583,-0.1995461,-0.4373826,1.449323,0.249442,-0.4243576,1.467181,0.06905311,0.4015194,1.529643,-0.1422061,-0.4307283,1.423619,0.2063844,-0.3873563,1.425559,0.04195834,-0.0516767,1.525996,0.03853335,-0.3650668,1.50872,-0.1379163,0.1302101,1.518929,-0.03965117,-0.3554913,1.471784,-0.2075756,-0.1403518,1.539611,0.2738099,-0.1494678,1.555706,NA,NA,NotTracked,NotTracked,
0.8979492,0.2324219,0.2070313,0.809082,0.3725586,0.168457,-1,-1,-2,-1,-1,-1,0,-1,1,2,0,0,-2,-3,1,1,-8.3125,-8.3125,-8.3125,7.375,7.375,7.375,6.090932,2.997669,7.30938,7.099984,3.066218,0.7607133,-0.2004057,-0.4363055,1.444112,0.2495376,-0.418031,1.467673,0.07277808,0.40124,1.528596,-0.1431152,-0.4405276,1.424256,0.2066583,-0.3835347,1.428563,0.04333372,-0.05141802,1.526024,0.04023648,-0.3648687,1.50962,-0.1359745,0.130668,1.516301,-0.03810273,-0.355266,1.472191,-0.2089839,-0.1380963,1.536342,0.2741766,-0.1492447,1.559773,NA,NA,NotTracked,NotTracked,
0.9287109,0.2294922,0.1987305,0.9350586,0.315918,0.1123047,-1,-1,-2,-1,-1,-1,1,-1,0,1,-2,0,-3,-3,0,0,-16.5,-16.5,-16.5,15.375,15.375,15.375,6.093334,3.002042,7.284364,7.117303,3.056525,0.7448328,-0.2003717,-0.4365352,1.439153,0.2506823,-0.4150812,1.468678,0.0750997,0.4009942,1.527824,-0.1425628,-0.4292711,1.424886,0.2068577,-0.3833786,1.429611,0.0444449,-0.05131317,1.526194,0.04127398,-0.3648911,1.510273,-0.1347324,0.1307805,1.51396,-0.03708496,-0.3552314,1.472564,-0.2093685,-0.1366813,1.531967,0.2743346,-0.1492094,1.56101,NA,NA,NotTracked,NotTracked,
