ALX,ALY,ALZ,ARX,ARY,ARZ,EMG0L,EMG1L,EMG2L,EMG3L,EMG4L,EMG5L,EMG6L,EMG7L,EMG0R,EMG1R,EMG2R,EMG3R,EMG4R,EMG5R,EMG6R,EMG7R,GLX,GLY,GLZ,GRX,GRY,GRZ,ORL,OPL,OYL,ORR,OPR,OYR,LHNX,LHNY,LHNZ,RHNX,RHNY,RHNZ,HX,HY,HZ,LTX,LTY,LTZ,RTX,RTY,RTZ,SpineMidX,SpineMidY,SpineMidZ,SpineBaseX,SpineBaseY,SpineBaseZ,ShoulderLeftX,ShoulderLeftY,ShoulderLeftZ,ShoulderRightX,ShoulderRightY,ShoulderRightZ,ElbowLeftX,ElbowLeftY,ElbowLeftZ,ElbowRightX,ElbowRightY,ElbowRightZ,Myo_Pose_left,Myo_Pose_Right,Kinect_pose_left,Kinect_pose_right
0.9394531,0.2050781,0.2041016,0.9194336,0.2802734,0.02001953,-1,0,-2,-1,-1,-1,-1,-1,-1,1,-2,-1,-1,-1,-1,-3,-4,-4,-4,4.625,4.625,4.625,6.28079,2.909281,5.993509,7.512696,3.024029,9.028501,-0.2038559,-0.4309641,1.468739,0.2300066,-0.4323594,1.462073,0.04442311,0.4021592,1.540774,-0.1495963,-0.4215473,1.428049,0.1837962,-0.4301353,1.419516,0.02204059,-0.04435176,1.533972,0.01980093,-0.3580798,1.516573,-0.1602933,0.1374676,1.522578,-0.05792041,-0.3480517,1.480789,-0.221194,-0.1398347,1.544491,0.2543502,-0.1445314,1.551472,NA,NA,NotTracked,NotTracked,
0.9277344,0.1845703,0.1948242,0.9008789,0.3056641,0.02050781,0,1,-1,0,-1,-1,-1,-1,0,0,-1,-2,-1,-1,-1,-1,-12.875,-12.875,-12.875,5.9375,5.9375,5.9375,6.26083,2.913265,5.994161,7.509022,3.02447,9.043147,-0.2045853,-0.4291487,1.4703,0.2337693,-0.4157878,1.467105,0.04511505,0.4022907,1.540743,-0.1494691,-0.4198832,1.428714,0.1869271,-0.3874442,1.426903,0.02246544,-0.04417267,1.534141,0.01993468,-0.3578242,1.517014,-0.1598475,0.1379747,1.522648,-0.05778975,-0.3477181,1.481572,-0.2210005,-0.137993,1.545244,0.2551146,-0.1440849,1.550891,NA,NA,NotTracked,NotTracked,
0.940918,0.1899414,0.1772461,0.956543,0.2851563,0.03173828,-1,-1,-3,-2,-1,-1,-2,-3,-1,-2,-2,-1,1,-1,-3,-3,-0.875,-0.875,-0.875,2.1875,2.1875,2.1875,6.245398,2.916197,6.004177,7.501649,3.027446,9.056279,-0.2049634,-0.4298819,1.470243,0.2346743,-0.4160683,1.467589,0.04603266,0.4018917,1.540578,-0.1497664,-0.419278,1.429841,0.1873001,-0.3917844,1.426844,0.02296891,-0.04429149,1.534299,0.02002294,-0.3578095,1.517354,-0.159363,0.1381189,1.522918,-0.0577475,-0.3477024,1.482078,-0.2210448,-0.1371289,1.54606,0.2558313,-0.1440755,1.550394,NA,NA,NotTracked,NotTracked,
0.9873047,0.2021484,0.1704102,0.9541016,0.3193359,0.03613281,-1,-1,0,-2,-1,0,-1,-1,0,-1,0,-1,0,0,-1,0,-0.25,-0.25,-0.25,0.8125,0.8125,0.8125,6.261008,2.924682,5.984204,7.491806,3.026882,9.065166,-0.205172,-0.4308218,1.469841,0.2345345,-0.416563,1.467447,0.0471362,0.4008366,1.540151,-0.1500209,-0.4146089,1.433217,0.1854351,-0.4210635,1.421714,0.02358489,-0.04469043,1.53454,0.02014831,-0.3579301,1.517641,-0.1587492,0.1379807,1.523163,-0.05762845,-0.3478789,1.48261,-0.221169,-0.1366322,1.546595,0.2562286,-0.144089,1.550233,NA,NA,NotTracked,NotTracked,
0.9804688,0.184082,0.1845703,0.9091797,0.3427734,0.02978516,-3,0,-1,-1,-1,-2,-2,0,0,-1,-2,-1,-1,0,-1,0,-3.375,-3.375,-3.375,1.1875,1.1875,1.1875,6.267267,2.925894,5.971543,7.484408,3.025326,9.071112,-0.2043952,-0.4306505,1.470735,0.2344758,-0.4167306,1.468717,0.04807746,0.3997175,1.53991,-0.1488557,-0.4409998,1.429161,0.1872094,-0.3880754,1.427882,0.02406396,-0.04506683,1.534909,0.02018264,-0.3579843,1.518105,-0.1583656,0.1379448,1.524051,-0.0576305,-0.3479471,1.483365,-0.2214409,-0.1362181,1.547886,0.2566409,-0.1441579,1.5504,NA,NA,NotTracked,NotTracked,
0.9628906,0.2016602,0.2197266,0.8959961,0.315918,0.03955078,-1,-1,0,-2,-2,-1,2,-2,0,1,-1,-1,-1,-2,-1,0,4.3125,4.3125,4.3125,-2.6875,-2.6875,-2.6875,6.263724,2.922241,5.982273,7.482223,3.024295,9.070445,-0.2048343,-0.4296244,1.471123,0.2344163,-0.4167051,1.469335,0.04901896,0.3990709,1.539496,-0.1497275,-0.4102136,1.434418,0.1848005,-0.4249435,1.422957,0.02441678,-0.0452542,1.535144,0.02029778,-0.3579835,1.518417,-0.1579896,0.1379994,1.524231,-0.0575189,-0.3479632,1.48378,-0.2213498,-0.1361485,1.548582,0.2568928,-0.1441932,1.550516,NA,NA,NotTracked,NotTracked,
0.9458008,0.2041016,0.2133789,0.9326172,0.3198242,0.02001953,0,-2,-1,-2,-1,0,-2,-1,-1,-1,1,-2,-1,0,-1,0,-1.375,-1.375,-1.375,1.8125,1.8125,1.8125,6.258332,2.927733,5.988459,7.501788,3.018709,9.051326,-0.2054814,-0.4307368,1.47094,0.2343835,-0.4164515,1.470161,0.0495683,0.3985445,1.53911,-0.151085,-0.4364266,1.429875,0.1871492,-0.3897346,1.429017,0.02486658,-0.04537715,1.535375,0.02050016,-0.3579276,1.518656,-0.1577114,0.1381169,1.524367,-0.05731414,-0.3478825,1.484082,-0.2216697,-0.1351254,1.549357,0.257164,-0.1442964,1.550465,NA,NA,NotTracked,NotTracked,
0.9350586,0.203125,0.1889648,0.9541016,0.4277344,-0.02099609,0,-2,-2,-2,0,-1,-1,-1,-8,-18,-11,-5,-1,0,5,14,0,0,0,-16.75,-16.75,-16.75,6.255143,2.930756,5.988179,7.500004,3.029329,9.039266,-0.2056898,-0.4297632,1.470017,0.2343961,-0.4169745,1.470628,0.04988814,0.398341,1.53903,-0.1502244,-0.4270383,1.430202,0.1846323,-0.4194253,1.424733,0.02506437,-0.04546889,1.535495,0.02066363,-0.3579262,1.51893,-0.1575475,0.1381369,1.524461,-0.05715753,-0.3478543,1.484331,-0.2217492,-0.1345702,1.549809,0.2573715,-0.1443043,1.550589,NA,NA,NotTracked,NotTracked,
0.9550781,0.215332,0.1992188,1.312988,0.5771484,0.05517578,1,-2,-1,-2,-3,-1,0,-1,3,16,31,2,8,4,-3,-3,-5,-5,-5,-70.6875,-70.6875,-70.6875,6.256084,2.93147,5.983534,7.261942,3.136171,9.180766,-0.2059718,-0.4300426,1.470062,0.2338142,-0.4167687,1.465885,0.05007865,0.3982144,1.539029,-0.1502154,-0.4240076,1.43085,0.1843064,-0.414316,1.4258,0.02536677,-0.04555826,1.535679,0.02082812,-0.3579552,1.519237,-0.1574172,0.1381894,1.524496,-0.05700293,-0.3479024,1.484614,-0.2217653,-0.1345098,1.549907,0.2577767,-0.1443739,1.551215,NA,NA,NotTracked,NotTracked,
0.9560547,0.1474609,0.2089844,1.717773,1.403809,0.659668,1,-2,-1,-2,-1,-1,0,0,6,6,-81,-25,-10,1,5,1,3.75,3.75,3.75,10.5625,10.5625,10.5625,6.235178,2.935193,6.000089,6.866634,3.614824,9.633248,-0.206472,-0.4289943,1.466841,0.2236851,-0.3976023,1.430551,0.05022537,0.3981207,1.538958,-0.1506168,-0.4258999,1.429402,0.2296316,-0.3962975,1.383542,0.02538717,-0.04556989,1.535694,0.0207822,-0.3579006,1.519409,-0.1573078,0.1382265,1.524388,-0.05704375,-0.3478315,1.484724,-0.2219542,-0.1343619,1.549888,0.2615383,-0.1420535,1.554888,NA,NA,NotTracked,NotTracked,
0.956543,0.2158203,0.1943359,0.8432617,0.878418,0.6806641,-2,-2,-2,0,0,-1,-2,-1,5,6,11,0,9,2,-5,0,3.25,3.25,3.25,-136.8125,-136.8125,-136.8125,6.263766,2.954115,5.988308,6.582574,4.303682,9.814132,-0.2069609,-0.4281521,1.465211,0.192002,-0.2768488,1.388664,0.05052374,0.3978204,1.538445,-0.1508878,-0.4195413,1.432018,0.2424267,-0.231896,1.347417,0.0250412,-0.0455664,1.535557,0.01936306,-0.3574915,1.519438,-0.1572577,0.1382215,1.524313,-0.05853613,-0.3471958,1.484606,-0.2220882,-0.1342474,1.549902,0.2712448,-0.1135709,1.564042,NA,NA,NotTracked,Unknown,
0.9174805,0.2363281,0.1953125,-0.2529297,0.1503906,0.3125,-1,0,-1,-1,-3,-1,-1,-1,9,19,41,32,12,9,3,2,-15.9375,-15.9375,-15.9375,-81.1875,-81.1875,-81.1875,6.263743,2.956216,5.973923,6.364743,5.159273,9.968059,-0.2076245,-0.428667,1.466652,0.1564885,-0.0856223,1.301155,0.05172179,0.3970351,1.537407,-0.1510426,-0.4192522,1.431907,0.1115476,-0.0617417,1.332833,0.02492145,-0.04554371,1.535601,0.01865809,-0.3569613,1.5198,-0.1568455,0.1380858,1.52413,-0.05921379,-0.346699,1.484993,-0.2226213,-0.1336662,1.549971,0.296463,-0.09721542,1.518765,NA,NA,NotTracked,Unknown,
0.9213867,0.2080078,0.203125,-0.3554688,0.3808594,0.2817383,-1,1,0,-2,0,-2,-1,0,6,15,5,2,2,1,-2,0,-20.125,-20.125,-20.125,95.375,95.375,95.375,6.221418,2.931871,5.972551,6.672153,6.164294,0.344875,-0.2096948,-0.4293396,1.466952,0.1410891,0.08503731,1.366829,0.05352727,0.3956073,1.535482,-0.1525742,-0.4132486,1.432802,0.09038969,0.05516179,1.410563,0.02489174,-0.04619452,1.5359,0.01852145,-0.3580035,1.520243,-0.1560282,0.1375362,1.523402,-0.05948689,-0.3478224,1.486196,-0.2238284,-0.1339584,1.548858,0.2985357,-0.09550786,1.492675,NA,NA,NotTracked,Unknown,
0.9882813,0.1728516,0.1948242,-0.4296875,0.2607422,0.2617188,0,-3,-1,-1,-2,-2,0,-1,-1,-12,-14,-6,1,0,0,1,-14.125,-14.125,-14.125,37.8125,37.8125,37.8125,6.18342,2.91777,5.98398,7.102565,6.551865,0.7799667,-0.21004,-0.4308744,1.466033,0.1505308,0.1762425,1.398965,0.05388052,0.3950147,1.533936,-0.1540046,-0.4298738,1.428727,0.1222851,0.1323411,1.453275,0.02505511,-0.04827301,1.535938,0.01751823,-0.3599781,1.520118,-0.1551437,0.1373788,1.523015,-0.06125614,-0.3495889,1.487192,-0.2242837,-0.1336704,1.547786,0.3204189,-0.08536609,1.447516,NA,NA,NotTracked,Unknown,
0.9584961,0.1689453,0.1738281,-0.3779297,0.4301758,0.1953125,1,-1,-3,2,-2,0,-2,0,3,11,-1,-1,-2,-1,-3,-2,4.5625,4.5625,4.5625,5.3125,5.3125,5.3125,6.199209,2.92937,5.965151,7.415724,6.640088,1.141796,-0.2092186,-0.4308032,1.463533,0.1512691,0.1991176,1.414677,0.05453547,0.3939516,1.532685,-0.1541143,-0.4120317,1.43459,0.1370316,0.1464897,1.463091,0.02567253,-0.04914225,1.53564,0.01692029,-0.3609691,1.51971,-0.1540737,0.1367534,1.522738,-0.06227519,-0.3503726,1.487189,-0.2244346,-0.1331266,1.547113,0.3265041,-0.07121631,1.417732,NA,NA,NotTracked,NotTracked,
0.9296875,0.1762695,0.1787109,-0.6503906,0.5683594,-0.05029297,-1,0,-1,0,-1,-1,-2,-1,1,0,-1,1,-1,-2,-2,0,20.375,20.375,20.375,31.75,31.75,31.75,6.276812,2.973737,5.914909,7.515334,6.64182,1.223514,-0.2066787,-0.4322879,1.458892,0.1414148,0.2091548,1.417528,0.05424263,0.3938247,1.532785,-0.1523613,-0.4288038,1.42722,0.1139017,0.1456621,1.458694,0.02590148,-0.04954199,1.535551,0.01654949,-0.3614673,1.519435,-0.153754,0.1351606,1.526409,-0.06291469,-0.3508851,1.487251,-0.2243864,-0.132982,1.547031,0.3279241,-0.04229089,1.371845,NA,NA,NotTracked,NotTracked,
0.9487305,0.2255859,0.1879883,-1.130859,0.3500977,0.01513672,-1,0,-1,-2,-1,-1,-3,-2,2,-5,-3,-3,-2,-4,-2,1,28.6875,28.6875,28.6875,-1.1875,-1.1875,-1.1875,6.34524,3.003816,5.892592,7.453029,6.681346,1.138758,-0.2042165,-0.4349485,1.455397,0.1436883,0.2102308,1.411045,0.05195131,0.3942583,1.533761,-0.1515013,-0.4195537,1.429276,0.1193116,0.1456946,1.459115,0.02595769,-0.04954929,1.5356,0.01634292,-0.3616717,1.519283,-0.1538711,0.1346932,1.526624,-0.06330667,-0.3511677,1.487232,-0.2239829,-0.132247,1.547532,0.3281613,-0.0399913,1.371765,NA,NA,NotTracked,NotTracked,
0.9492188,0.2661133,0.2045898,-1.019531,0.3007813,-0.02246094,-1,-1,0,-1,0,-1,-2,-2,-2,-2,-5,-7,-3,-3,1,-5,2.5625,2.5625,2.5625,-6.625,-6.625,-6.625,6.395417,3.013338,5.86552,7.456674,6.738393,1.155371,-0.2018638,-0.4370169,1.455803,0.1499469,0.2234314,1.391868,0.04976729,0.394642,1.534833,-0.1512651,-0.4253504,1.428324,0.1468112,0.1540268,1.463528,0.02589109,-0.04940569,1.5358,0.01560177,-0.3619191,1.518798,-0.1539162,0.1339922,1.526757,-0.06437878,-0.3515029,1.486648,-0.2235641,-0.1317962,1.548306,0.3263367,-0.03353679,1.359629,NA,NA,NotTracked,Unknown,
0.9521484,0.2197266,0.25,-0.5703125,0.5527344,0.03417969,-1,0,-2,-2,-2,-1,0,-1,-3,1,-1,12,-1,-34,-19,-31,-15,-15,-15,8.5625,8.5625,8.5625,6.383372,2.994953,5.858997,7.37206,6.630204,1.052893,-0.2021223,-0.4386635,1.460361,0.123893,0.2612753,1.363536,0.04740689,0.3964835,1.536118,-0.1502698,-0.4201046,1.43129,0.081224,0.2444025,1.3872,0.02575648,-0.04905712,1.536228,0.01501637,-0.3619388,1.518552,-0.1540289,0.132015,1.53092,-0.06505693,-0.3515299,1.486633,-0.2231688,-0.1317056,1.549395,0.3214781,-0.02379487,1.343519,NA,NA,NotTracked,Unknown,
0.9482422,0.1767578,0.2104492,-0.5317383,0.7260742,0.4165039,-2,1,-3,-1,-1,-3,-4,-3,-3,0,-12,-5,3,1,-5,6,11.25,11.25,11.25,52.875,52.875,52.875,6.302147,2.968302,5.942626,7.292379,6.524388,0.8708045,-0.2047847,-0.439079,1.463149,0.08738731,0.250917,1.345868,0.04454418,0.4014001,1.538832,-0.1501652,-0.4266973,1.429166,0.02864608,0.2803234,1.367667,0.02509734,-0.04987098,1.536162,0.01456301,-0.3617508,1.518177,-0.1545756,0.1320136,1.531118,-0.06535961,-0.3513886,1.48661,-0.2225741,-0.1327092,1.550668,0.3173826,-0.02488638,1.329916,NA,NA,NotTracked,Unknown,
0.9677734,0.1977539,0.2011719,-1.246582,0.7988281,0.1704102,0,-1,-1,-1,-1,-2,0,-3,-1,-4,-3,-2,-3,-1,0,-3,28.25,28.25,28.25,-68.375,-68.375,-68.375,6.275416,2.965366,6.008441,7.193403,6.565421,0.8213844,-0.2070912,-0.4399472,1.464595,0.08882912,0.2447835,1.357771,0.04237562,0.4017774,1.540878,-0.1502822,-0.426416,1.429173,0.05437184,0.2281176,1.3405,0.024238,-0.0511663,1.53583,0.0139234,-0.3623351,1.517573,-0.1556125,0.1315586,1.533256,-0.06604075,-0.3519187,1.486507,-0.2226149,-0.1338893,1.552176,0.316269,-0.01688663,1.325103,NA,NA,NotTracked,Unknown,
0.9555664,0.2807617,0.2036133,-0.9438477,0.1479492,0.05322266,-2,-3,-3,-2,-1,-1,-1,0,5,6,5,4,-2,-2,2,1,7.1875,7.1875,7.1875,-58.75,-58.75,-58.75,6.294651,2.967947,6.018686,7.095699,6.743964,0.866284,-0.2112075,-0.4418465,1.470572,0.1085349,0.261126,1.374584,0.04178945,0.4016908,1.541128,-0.1530211,-0.4275997,1.431902,0.07521392,0.2370413,1.3657,0.02402233,-0.05109027,1.535807,0.01346091,-0.3624738,1.517426,-0.1563784,0.1314604,1.533632,-0.06657631,-0.3521542,1.486614,-0.2234927,-0.1352655,1.554201,0.3126481,-0.01740313,1.325061,NA,NA,NotTracked,Unknown,
0.9160156,0.2431641,0.222168,-0.7460938,0.1494141,-0.2070313,-1,-1,-1,0,-1,-1,1,0,-4,-7,-7,-6,14,-6,-6,-2,-10.375,-10.375,-10.375,-18.0625,-18.0625,-18.0625,6.271268,2.946774,6.033554,7.131619,6.780272,0.9875476,-0.2158464,-0.4407808,1.477089,0.1104987,0.2769147,1.383617,0.04125538,0.4009038,1.540725,-0.1587944,-0.42363,1.4386,0.05093736,0.2740818,1.436454,0.02396842,-0.05067733,1.535895,0.0132361,-0.3623825,1.517272,-0.1563434,0.1313315,1.533491,-0.06684082,-0.3521566,1.486584,-0.2244521,-0.1362622,1.556165,0.3048252,-0.02005756,1.322391,NA,NA,NotTracked,Unknown,
0.9331055,0.1879883,0.2177734,-0.8920898,0.7900391,-0.04931641,-3,-1,-1,-1,-2,-1,-1,1,-10,-23,-8,1,-11,2,8,-2,-1.5,-1.5,-1.5,58.8125,58.8125,58.8125,6.18531,2.912722,6.109946,7.133056,6.594614,0.9151997,-0.2188017,-0.4444078,1.480154,0.1143951,0.2364457,1.35337,0.04093631,0.4009417,1.540718,-0.161511,-0.4298478,1.442113,0.07589462,0.224869,1.324909,0.02356604,-0.05169734,1.535563,0.01315513,-0.3629832,1.516886,-0.1564122,0.1308211,1.534389,-0.0669601,-0.3527885,1.486639,-0.225317,-0.1371283,1.5568,0.2989528,-0.02508521,1.322687,NA,NA,NotTracked,Unknown,
0.9770508,0.2075195,0.2001953,-0.840332,0.7089844,0.3647461,-2,-1,-2,1,-1,-1,-2,-1,5,7,0,6,4,4,5,8,11.4375,11.4375,11.4375,19.4375,19.4375,19.4375,6.169595,2.913467,6.143108,7.093656,6.510467,0.7796887,-0.2196432,-0.4421192,1.478702,0.110983,0.2081164,1.333561,0.04008227,0.4015689,1.541421,-0.159766,-0.4281548,1.438725,0.091764,0.1758033,1.3445,0.02296979,-0.053539,1.534655,0.01321464,-0.3642728,1.516188,-0.1569059,0.1308112,1.53424,-0.06696071,-0.3540581,1.486678,-0.2258794,-0.138102,1.557245,0.2976636,-0.02593215,1.321902,NA,NA,NotTracked,Open,
0.9638672,0.2490234,0.2060547,-1.015625,0.2700195,0.1132813,-2,-1,-1,-1,0,-2,0,-2,-19,-6,-3,-3,-4,-2,0,-9,-2.4375,-2.4375,-2.4375,-64.3125,-64.3125,-64.3125,6.240685,2.939826,6.084204,7.021275,6.703221,0.8185765,-0.2183586,-0.4415941,1.475553,0.1289091,0.2216007,1.354112,0.03992139,0.4016286,1.541458,-0.1603943,-0.4328069,1.437855,0.09318574,0.2234587,1.316781,0.02297016,-0.05399078,1.534343,0.01334639,-0.3646365,1.515763,-0.1571984,0.1306874,1.533931,-0.0668653,-0.3544751,1.486514,-0.2262508,-0.1388417,1.557444,0.2962099,-0.02865062,1.32374,NA,NA,NotTracked,Unknown,
0.9165039,0.222168,0.2226563,-0.7988281,0.1352539,-0.06787109,0,-2,-3,-4,-1,-1,-1,-2,14,6,-3,-3,-1,1,-7,-1,-13.1875,-13.1875,-13.1875,24.375,24.375,24.375,6.270404,2.952911,6.035873,7.11369,6.850713,0.9256441,-0.2161919,-0.4416616,1.475261,0.1474338,0.2407302,1.369252,0.04032457,0.400658,1.540547,-0.1601723,-0.4305391,1.438949,0.1006589,0.2505437,1.34135,0.02368759,-0.05241151,1.534154,0.01328725,-0.3642675,1.515486,-0.1565673,0.1305087,1.533144,-0.06693586,-0.3541633,1.486265,-0.2262695,-0.1389529,1.557576,0.2933933,-0.02810456,1.323644,NA,NA,NotTracked,Unknown,
0.9335938,0.1987305,0.2182617,-0.6176758,0.3901367,-0.03369141,-2,-1,-2,-2,1,-2,-1,-2,15,4,6,-1,8,12,-4,39,-2.6875,-2.6875,-2.6875,-8.25,-8.25,-8.25,6.263499,2.957587,6.033223,7.140226,6.7662,0.9330832,-0.2155631,-0.4411804,1.470496,0.1393434,0.2437135,1.359682,0.0404204,0.4003251,1.540099,-0.1608238,-0.4294725,1.438612,0.08247761,0.2576874,1.384705,0.02372756,-0.05257729,1.534162,0.01320397,-0.3642832,1.515131,-0.1552352,0.1301535,1.531799,-0.06711122,-0.3541518,1.485856,-0.2261114,-0.1392725,1.557271,0.2923473,-0.02540663,1.32055,NA,NA,NotTracked,Unknown,
0.980957,0.199707,0.1982422,-1.072754,0.581543,0.402832,-1,-3,-2,-1,0,-1,-1,-2,13,48,12,0,-8,-6,5,0,0,0,0,41.8125,41.8125,41.8125,6.272586,2.97599,6.026322,7.050991,6.553738,0.7698811,-0.2131139,-0.4423977,1.464236,0.1148334,0.2241614,1.341318,0.04052269,0.4015933,1.540399,-0.1598119,-0.4504267,1.433148,0.1066029,0.274101,1.359333,0.02347462,-0.0533814,1.533724,0.01316883,-0.3646979,1.514546,-0.1552758,0.1298884,1.532613,-0.06713199,-0.3545303,1.48559,-0.2252921,-0.13899,1.556118,0.2921299,-0.02570015,1.320657,NA,NA,NotTracked,Unknown,
0.9985352,0.2001953,0.1987305,-1.183594,0.8847656,0.06591797,0,-2,-1,0,-1,-1,0,-3,-27,-6,-3,-5,-1,3,7,2,0,0,0,-49.9375,-49.9375,-49.9375,6.304865,2.996495,5.992453,7.060008,6.621988,0.7984868,-0.2087102,-0.4426085,1.458474,0.1189691,0.2155425,1.350667,0.04039168,0.4018878,1.540713,-0.1582566,-0.4337884,1.43234,0.1612022,0.2043875,1.389167,0.02325829,-0.05450636,1.533071,0.01341403,-0.3657547,1.513727,-0.1554407,0.1296992,1.532956,-0.06692698,-0.3555813,1.485109,-0.2245816,-0.1385296,1.554856,0.2932935,-0.03114962,1.324653,NA,NA,NotTracked,Unknown,
0.9316406,0.2402344,0.2143555,-0.8378906,0.1660156,0.1015625,0,-1,-1,-2,-2,-2,0,-1,-1,5,2,1,0,-4,-7,-17,-7,-7,-7,-15.875,-15.875,-15.875,6.338113,3.011091,5.95088,7.067464,6.817751,0.8912954,-0.2057932,-0.4418951,1.455832,0.1449002,0.2256465,1.377826,0.04092987,0.4013033,1.540338,-0.1543867,-0.4199493,1.430475,0.1565649,0.1568324,1.453,0.0239685,-0.05349753,1.532589,0.01349192,-0.3653881,1.51325,-0.155247,0.1297172,1.531774,-0.06688143,-0.3552647,1.484649,-0.2237462,-0.1378796,1.55378,0.2919288,-0.03187677,1.325057,NA,NA,NotTracked,Closed,
0.9243164,0.1870117,0.2216797,-0.6650391,0.2915039,-0.105957,-2,-1,1,-2,-1,0,-2,0,-6,-13,0,-2,-1,-2,1,3,-7.125,-7.125,-7.125,32.25,32.25,32.25,6.303873,3.003818,5.960173,7.243701,6.862142,0.9813349,-0.2057483,-0.4422764,1.454114,0.07938887,0.3162919,1.416944,0.04194436,0.4001203,1.539017,-0.1532331,-0.4183825,1.430377,0.04739127,0.26203,1.456353,0.02485835,-0.05185487,1.532315,0.01363783,-0.3648892,1.512663,-0.1546108,0.1293961,1.529772,-0.06675804,-0.3548129,1.483992,-0.2226345,-0.1376932,1.5519,0.2912665,-0.0313658,1.325021,NA,NA,NotTracked,NotTracked,
0.9189453,0.1977539,0.206543,-0.5698242,0.5058594,-0.04882813,0,-1,-1,-1,-1,0,0,0,-1,-2,-5,-4,0,5,1,3,5.1875,5.1875,5.1875,-16.25,-16.25,-16.25,6.270319,2.9949,5.996696,7.151402,6.681492,0.8518522,-0.2067106,-0.4418185,1.45337,0.06996296,0.3120222,1.403952,0.04221553,0.4005927,1.538799,-0.1538253,-0.4231305,1.429003,0.03942362,0.2637483,1.451945,0.0249188,-0.05191117,1.532058,0.01358617,-0.3650416,1.512213,-0.1542673,0.1294114,1.528724,-0.06681577,-0.3549272,1.483427,-0.2221503,-0.1368524,1.550169,0.2941715,-0.03416505,1.327085,NA,NA,NotTracked,Unknown,
0.9775391,0.199707,0.1914063,-0.5717773,0.4521484,0.4023438,1,-1,-2,0,-1,-1,1,-1,-2,-2,-6,-3,-5,-6,-1,0,10.4375,10.4375,10.4375,-36.25,-36.25,-36.25,6.259748,2.988168,6.026822,6.943136,6.442983,0.653352,-0.2075259,-0.4433375,1.454081,0.1331014,0.1900565,1.336767,0.04194095,0.4018823,1.539019,-0.1533051,-0.4315691,1.42601,0.1522445,0.143013,1.4255,0.02458256,-0.05293749,1.531518,0.01376957,-0.3657634,1.511716,-0.1543541,0.1294543,1.528499,-0.06663618,-0.3555983,1.483256,-0.2215147,-0.1378398,1.548787,0.2972075,-0.0484587,1.344578,NA,NA,NotTracked,Unknown,
0.9711914,0.2001953,0.1875,-0.4633789,0.4516602,0.4174805,-1,0,-2,-2,-2,0,-1,-1,0,-1,-1,3,-3,-2,-1,0,12.3125,12.3125,12.3125,-20.1875,-20.1875,-20.1875,6.272803,2.990281,6.026463,6.687532,6.043163,0.4309873,-0.2070275,-0.4429407,1.453591,0.1117181,0.1550372,1.315388,0.04093444,0.4024064,1.53979,-0.1532071,-0.4263129,1.427965,0.09385144,0.2265539,1.32,0.02384556,-0.05412138,1.530713,0.01455604,-0.3667486,1.510996,-0.155391,0.1290334,1.529882,-0.06574854,-0.3568075,1.483277,-0.2211888,-0.1388555,1.548036,0.2957315,-0.07463523,1.386871,NA,NA,NotTracked,Unknown,
0.9521484,0.2250977,0.199707,-0.5209961,0.715332,0.4433594,-2,-1,-1,-1,-2,-1,-3,-1,0,0,-2,-2,-1,0,-1,0,8.75,8.75,8.75,-46,-46,-46,6.309546,2.991179,6.015951,6.562981,5.67025,0.3002402,-0.2065248,-0.4450749,1.455029,0.100221,0.08592033,1.294463,0.04091958,0.4019256,1.539856,-0.1526383,-0.4329536,1.425136,0.1095092,0.1026212,1.258064,0.02339478,-0.05408905,1.530664,0.01515504,-0.3668975,1.510664,-0.1565798,0.1287946,1.531345,-0.06460226,-0.3571972,1.48245,-0.2210558,-0.1416327,1.547672,0.2887109,-0.08452124,1.410524,NA,NA,NotTracked,Unknown,
0.9418945,0.2348633,0.2114258,-0.2104492,0.7612305,0.3769531,-2,-1,-2,-1,-1,0,0,-3,-3,-2,-1,-4,1,-2,0,-2,5.625,5.625,5.625,-24.0625,-24.0625,-24.0625,6.3119,2.979459,6.027055,6.475297,5.09726,0.1338053,-0.2063041,-0.4466905,1.457902,0.1110116,-0.02580911,1.318501,0.04091239,0.4018193,1.539725,-0.1525624,-0.4370683,1.424119,0.1175751,-0.03957726,1.24812,0.02309043,-0.05358752,1.530449,0.01591859,-0.3650902,1.51032,-0.1577264,0.12802,1.53042,-0.06259789,-0.3551062,1.479651,-0.220845,-0.1435689,1.547736,0.2897335,-0.09264743,1.449667,NA,NA,NotTracked,Open,
0.9472656,0.2382813,0.2275391,0.1884766,0.6518555,0.5078125,-1,-2,-2,-2,-1,-1,-3,-2,-3,-1,0,0,0,1,2,0,2.9375,2.9375,2.9375,67.875,67.875,67.875,6.290069,2.956077,6.057109,6.553621,4.634945,0.02584442,-0.2071895,-0.4463923,1.462031,0.1117411,-0.1334926,1.3259,0.04069844,0.4016414,1.539368,-0.1531192,-0.4312043,1.426591,0.1517297,-0.1031405,1.264259,0.02259318,-0.05211484,1.529736,0.01651041,-0.3633487,1.509778,-0.1584021,0.1276857,1.529503,-0.06147961,-0.3534725,1.477918,-0.2202074,-0.1459422,1.548299,0.3309543,-0.0883327,1.491481,NA,NA,NotTracked,Open,
0.9506836,0.2246094,0.2387695,0.5507813,0.8999023,0.4794922,0,-1,-1,-2,0,-1,-1,-1,-16,-4,-2,0,-2,-1,0,0,-7.8125,-7.8125,-7.8125,60.5625,60.5625,60.5625,6.266856,2.938713,6.071926,6.700673,4.151294,9.912963,-0.2076406,-0.447811,1.46554,0.1444106,-0.2396841,1.336861,0.04053378,0.4015866,1.539025,-0.1531576,-0.4335191,1.426238,0.1939979,-0.2748324,1.3145,0.02213026,-0.0513337,1.52895,0.01664394,-0.362837,1.509181,-0.1586277,0.1274944,1.528702,-0.06111811,-0.3527959,1.476379,-0.2200833,-0.1471505,1.54849,0.2660008,-0.1061114,1.533441,NA,NA,NotTracked,Unknown,
0.965332,0.2236328,0.2324219,0.8754883,0.7280273,0.4526367,0,0,0,-1,-1,0,-1,-2,-19,0,0,-2,-3,-2,2,-3,-18.0625,-18.0625,-18.0625,-40.5,-40.5,-40.5,6.245404,2.925996,6.07047,6.789325,3.589312,9.687208,-0.2089494,-0.4481265,1.466213,0.1927726,-0.3405514,1.346938,0.04042826,0.4014533,1.538549,-0.153367,-0.4317275,1.426337,0.1643739,-0.3459744,1.381222,0.02136982,-0.05109878,1.527776,0.01578519,-0.36286,1.507854,-0.1591146,0.1271502,1.52744,-0.06219938,-0.352486,1.473975,-0.2201302,-0.1478636,1.548369,0.2626504,-0.1084428,1.536162,NA,NA,NotTracked,Unknown,
0.9814453,0.2133789,0.2333984,1.725098,0.8671875,0.9667969,0,-3,0,-1,-2,0,-2,-2,8,3,-3,-2,2,5,-2,-4,-10.5625,-10.5625,-10.5625,-32.25,-32.25,-32.25,6.207905,2.923816,6.079702,6.944123,3.300905,9.418472,-0.2098217,-0.4471195,1.464994,0.2117879,-0.4020328,1.394009,0.04044863,0.401276,1.538218,-0.1535702,-0.436047,1.424884,0.1673856,-0.3912502,1.393313,0.02130132,-0.05114117,1.527414,0.01603898,-0.3632318,1.507338,-0.1591261,0.1266448,1.525929,-0.06194087,-0.3528068,1.472893,-0.2203489,-0.1482058,1.548072,0.2611996,-0.1311125,1.535899,NA,NA,NotTracked,NotTracked,
0.9648438,0.2075195,0.2172852,1.01416,0.6445313,0.7246094,0,-2,-2,-1,1,-1,-1,-2,0,1,1,3,4,8,-3,0,-5.625,-5.625,-5.625,9.875,9.875,9.875,6.188534,2.935719,6.086934,7.112926,3.140269,9.220472,-0.2113396,-0.4459684,1.461112,0.2270258,-0.4441465,1.422486,0.04115588,0.4008536,1.537653,-0.1540155,-0.4332459,1.426469,0.1790647,-0.4514728,1.39616,0.02200872,-0.05145026,1.527008,0.01846001,-0.3643239,1.506874,-0.159028,0.1264167,1.52468,-0.05938838,-0.3539899,1.471747,-0.2209662,-0.1484469,1.547189,0.2596646,-0.1417077,1.536952,NA,NA,NotTracked,NotTracked,
0.9433594,0.190918,0.206543,0.7807617,0.6118164,0.1484375,-3,0,0,-1,-2,-1,-2,-1,2,1,0,2,7,20,-3,-2,-1.9375,-1.9375,-1.9375,-41.8125,-41.8125,-41.8125,6.180847,2.954076,6.088141,7.217585,3.089323,9.082108,-0.2112869,-0.4452393,1.455768,0.2318549,-0.4461096,1.44192,0.0429256,0.4005966,1.537135,-0.1538292,-0.4342139,1.425824,0.182124,-0.4428608,1.402917,0.0229343,-0.05158856,1.526545,0.02073718,-0.3648067,1.506548,-0.1586312,0.1265601,1.523103,-0.05704346,-0.3545782,1.470844,-0.2223288,-0.1473314,1.545128,0.2587659,-0.1465283,1.538806,NA,NA,NotTracked,NotTracked,
0.9291992,0.2119141,0.1928711,0.8173828,0.4418945,0.2080078,0,-2,-2,-1,1,0,-1,-1,-8,-3,3,0,-3,-4,1,1,-1.875,-1.875,-1.875,0.9375,0.9375,0.9375,6.18923,2.975432,6.078454,7.084801,3.089355,9.155999,-0.2114185,-0.4434941,1.451124,0.234845,-0.4324359,1.451274,0.04539977,0.400239,1.536257,-0.1539014,-0.4339695,1.42578,0.1871516,-0.4018462,1.408809,0.02358858,-0.05155816,1.526223,0.02175694,-0.3648149,1.506688,-0.1578358,0.1272621,1.521433,-0.05615482,-0.3546455,1.470769,-0.2230828,-0.146131,1.542843,0.2586187,-0.1481078,1.542878,NA,NA,NotTracked,NotTracked,
0.9165039,0.2216797,0.1796875,0.262207,0.2280273,-0.3554688,-2,-2,-1,-1,-1,-1,0,-1,1,-2,0,-1,1,0,-2,0,-2.375,-2.375,-2.375,2.125,2.125,2.125,6.21138,2.992255,6.053568,7.15096,3.103458,9.105336,-0.2107542,-0.4422865,1.44651,0.2263248,-0.4559728,1.445398,0.04810905,0.3998173,1.535609,-0.1538179,-0.4306531,1.425261,0.1823659,-0.4432012,1.406418,0.02436289,-0.05151482,1.525971,0.02256732,-0.3647836,1.506746,-0.15697,0.1277311,1.52022,-0.05536745,-0.3546254,1.470604,-0.2237255,-0.1444078,1.539618,0.258716,-0.1485685,1.545961,NA,NA,NotTracked,NotTracked,
0.9506836,0.2080078,0.1938477,0.3066406,0.215332,-0.3774414,1,-1,-2,-1,-1,-2,-1,1,0,-2,-2,1,4,8,1,1,-8.8125,-8.8125,-8.8125,13.0625,13.0625,13.0625,6.229915,2.995501,6.022481,7.276087,3.099176,8.989546,-0.2080594,-0.4427008,1.443404,0.2269109,-0.4559285,1.445247,0.04988026,0.3995385,1.535366,-0.1533605,-0.430894,1.425444,0.181041,-0.4593359,1.403806,0.02508948,-0.05141408,1.525795,0.02311855,-0.3647102,1.506804,-0.1563821,0.1279019,1.519315,-0.05486523,-0.3545549,1.470537,-0.2235767,-0.1432558,1.5374,0.2585297,-0.1483982,1.54709,NA,NA,NotTracked,NotTracked,
