ALX,ALY,ALZ,ARX,ARY,ARZ,EMG0L,EMG1L,EMG2L,EMG3L,EMG4L,EMG5L,EMG6L,EMG7L,EMG0R,EMG1R,EMG2R,EMG3R,EMG4R,EMG5R,EMG6R,EMG7R,GLX,GLY,GLZ,GRX,GRY,GRZ,ORL,OPL,OYL,ORR,OPR,OYR,LHNX,LHNY,LHNZ,RHNX,RHNY,RHNZ,HX,HY,HZ,LTX,LTY,LTZ,RTX,RTY,RTZ,SpineMidX,SpineMidY,SpineMidZ,SpineBaseX,SpineBaseY,SpineBaseZ,ShoulderLeftX,ShoulderLeftY,ShoulderLeftZ,ShoulderRightX,ShoulderRightY,ShoulderRightZ,ElbowLeftX,ElbowLeftY,ElbowLeftZ,ElbowRightX,ElbowRightY,ElbowRightZ,Myo_Pose_left,Myo_Pose_Right,Kinect_pose_left,Kinect_pose_right
0.9375,0.2070313,0.2675781,0.9287109,0.2768555,0.01757813,-1,1,-1,-2,-1,-1,-1,0,-1,0,-1,4,11,0,0,-1,-2.3125,-2.3125,-2.3125,5.4375,5.4375,5.4375,6.0503,3.026307,9.657234,7.511757,2.959726,8.809971,-0.1193828,-0.4285011,1.395298,0.2992989,-0.4548918,1.466573,0.1614435,0.3902796,1.522757,-0.1726014,-0.4303142,1.406426,0.3462737,-0.4558685,1.475514,0.1078906,-0.05185141,1.526076,0.1012491,-0.3649062,1.508982,-0.06664962,0.1334622,1.492595,0.02202971,-0.3528995,1.468003,-0.1422022,-0.126091,1.485656,0.3178647,-0.1564438,1.553183,NA,NA,NotTracked,NotTracked,
0.9389648,0.2041016,0.2636719,0.934082,0.2734375,0.001464844,0,0,0,-1,0,0,-1,-2,-2,-1,-1,-5,-4,0,-1,-1,-1.125,-1.125,-1.125,-6,-6,-6,6.048324,3.026871,9.657,7.511496,2.958049,8.809473,-0.1196123,-0.4283555,1.39447,0.297344,-0.4605649,1.464422,0.1615829,0.3902248,1.523153,-0.1729661,-0.4310255,1.406933,0.3442356,-0.4653906,1.476333,0.1079377,-0.05184955,1.526045,0.1013053,-0.3649414,1.508816,-0.06652824,0.1334138,1.49262,0.02208099,-0.3529179,1.467836,-0.1423211,-0.1260319,1.485528,0.3178709,-0.1563779,1.553125,NA,NA,NotTracked,NotTracked,
0.9355469,0.1977539,0.2612305,0.9379883,0.2905273,0.03515625,-2,-4,-2,-3,0,-1,0,-1,1,1,-2,0,0,0,-1,1,-0.9375,-0.9375,-0.9375,-11.375,-11.375,-11.375,6.048711,3.0272,9.65609,7.508905,2.951079,8.784109,-0.1205119,-0.4280997,1.393162,0.2961589,-0.4633015,1.463011,0.1617396,0.3901991,1.523335,-0.1732318,-0.4304212,1.398818,0.3417196,-0.4566383,1.469505,0.1079497,-0.05185703,1.52601,0.1013155,-0.3649684,1.508691,-0.06645393,0.1333477,1.492621,0.02211736,-0.3529168,1.467679,-0.1423248,-0.126029,1.485274,0.3178597,-0.1563734,1.553045,NA,NA,NotTracked,NotTracked,
0.9331055,0.2021484,0.2543945,0.9326172,0.2666016,0.03076172,0,-1,0,-1,0,-2,-1,-1,4,4,-1,-4,-2,-3,-2,-1,-2.5,-2.5,-2.5,-4.5625,-4.5625,-4.5625,6.0505,3.027058,9.6518,7.50937,2.94769,8.77216,-0.1194362,-0.4272092,1.393931,0.2960337,-0.4621824,1.463185,0.161874,0.3902631,1.52364,-0.1733319,-0.4294702,1.406832,0.3405208,-0.452239,1.469317,0.1079595,-0.05185708,1.525943,0.1013022,-0.3650097,1.508561,-0.06635313,0.13337,1.492656,0.0220947,-0.3529361,1.467559,-0.1422687,-0.1260847,1.485218,0.3178757,-0.1564043,1.553025,NA,NA,NotTracked,NotTracked,
0.9282227,0.199707,0.2592773,0.9394531,0.2788086,0.02099609,-1,-1,0,0,-1,-1,1,0,-2,-3,-2,0,12,7,2,1,-2.375,-2.375,-2.375,-4.125,-4.125,-4.125,6.048281,3.024277,9.650916,7.50461,2.945736,8.767745,-0.1194292,-0.4278488,1.393908,0.2991047,-0.448844,1.467612,0.1620857,0.3903738,1.523653,-0.1727287,-0.4301491,1.40607,0.3445831,-0.4252369,1.47895,0.1080421,-0.05179319,1.525782,0.1012697,-0.3649723,1.508355,-0.06618333,0.133452,1.492588,0.02206424,-0.3529003,1.467363,-0.1421815,-0.1259985,1.484923,0.3178724,-0.1564384,1.552966,NA,NA,NotTracked,NotTracked,
0.9428711,0.2089844,0.2592773,0.9326172,0.2709961,0.01074219,0,-2,-1,-2,0,0,0,-3,0,0,2,1,-8,-2,0,-1,-1.0625,-1.0625,-1.0625,-3,-3,-3,6.048631,3.019785,9.648879,7.505992,2.946362,8.76105,-0.1192729,-0.4275883,1.394298,0.2968481,-0.4591423,1.464891,0.1623012,0.3903582,1.523766,-0.1727479,-0.4309527,1.405752,0.3395942,-0.4531399,1.46805,0.1081371,-0.05180443,1.525718,0.1013044,-0.3649839,1.508242,-0.06598164,0.133523,1.492584,0.02208675,-0.3529113,1.467253,-0.1420976,-0.1259374,1.484804,0.3179374,-0.1565035,1.552943,NA,NA,NotTracked,NotTracked,
0.9375,0.2075195,0.2602539,0.9360352,0.2856445,0.02783203,0,-2,-2,-1,-2,0,-1,0,-1,-2,-2,-6,-15,-6,-2,-1,-1.75,-1.75,-1.75,-2.9375,-2.9375,-2.9375,6.051757,3.017635,9.642705,7.5025,2.945211,8.759237,-0.1188437,-0.4280081,1.393782,0.296558,-0.4614558,1.46371,0.1624295,0.3902677,1.523765,-0.1717136,-0.4316847,1.40506,0.3396696,-0.4578577,1.467448,0.1083068,-0.05185782,1.525581,0.1014307,-0.3650727,1.508009,-0.06582669,0.1334289,1.492493,0.02220436,-0.3529895,1.466988,-0.1419221,-0.12609,1.484535,0.3180142,-0.1565473,1.552962,NA,NA,NotTracked,NotTracked,
0.9492188,0.2114258,0.2700195,1.001465,0.5302734,0.05566406,-2,-1,0,-1,-2,0,0,-1,9,26,16,4,-9,-4,-1,-12,-1.4375,-1.4375,-1.4375,41.1875,41.1875,41.1875,6.055928,3.015791,9.636335,7.521178,2.962439,8.775379,-0.1183908,-0.4280662,1.393816,0.2997451,-0.4468713,1.466774,0.1625739,0.3902,1.523789,-0.1724296,-0.4319407,1.40652,0.3443687,-0.434767,1.472833,0.1085102,-0.05188606,1.525407,0.1015341,-0.3650464,1.507871,-0.06560826,0.1333667,1.492403,0.0223243,-0.3529615,1.466762,-0.1416689,-0.1263375,1.484287,0.3182278,-0.1566596,1.552885,NA,NA,NotTracked,NotTracked,
0.9443359,0.2524414,0.2763672,1.064453,0.5449219,0.2856445,-1,-1,0,1,-1,1,-1,-1,2,6,17,7,5,2,2,-3,-18.4375,-18.4375,-18.4375,89.3125,89.3125,89.3125,6.060648,3.010365,9.615301,7.313034,3.112143,9.133258,-0.1182577,-0.4277908,1.394739,0.3002878,-0.4443442,1.459853,0.1626759,0.3903418,1.524024,-0.1703524,-0.4322115,1.405911,0.3477152,-0.435487,1.46975,0.1088162,-0.05170316,1.525363,0.1016635,-0.3647706,1.50783,-0.06539144,0.1334617,1.492323,0.02244565,-0.3526973,1.466719,-0.1412674,-0.1260224,1.483887,0.3191787,-0.15595,1.551971,NA,NA,NotTracked,NotTracked,
0.9077148,0.2055664,0.2675781,1.132324,1.169434,0.4960938,-2,-2,-2,1,-1,0,-2,1,3,-2,7,8,-4,1,4,6,-12.3125,-12.3125,-12.3125,155.0625,155.0625,155.0625,6.032097,3.001001,9.610133,7.20655,3.347079,9.548234,-0.1178787,-0.4282782,1.394566,0.2910163,-0.4324506,1.422351,0.1626112,0.3907139,1.524447,-0.1694177,-0.433273,1.404093,0.3447838,-0.4234744,1.422125,0.109115,-0.05149648,1.525365,0.1017463,-0.3645138,1.507757,-0.06517208,0.1336938,1.492288,0.02252742,-0.3522493,1.466562,-0.1407609,-0.126078,1.48322,0.3234417,-0.1505906,1.542587,NA,NA,NotTracked,NotTracked,
0.9013672,0.2373047,0.2558594,1.228516,0.8574219,0.7836914,-1,-1,-2,-2,-2,-1,-2,1,-1,1,42,15,-1,1,5,3,-31.3125,-31.3125,-31.3125,92.875,92.875,92.875,6.036066,2.990735,9.551065,6.996716,3.746,9.996286,-0.1163189,-0.427653,1.392462,0.2541358,-0.3804608,1.335617,0.1622112,0.3912058,1.525521,-0.1670399,-0.4321046,1.401899,0.2897916,-0.3689443,1.312882,0.1088541,-0.0511857,1.525568,0.09971367,-0.3636394,1.507624,-0.06498307,0.1339688,1.492316,0.01975347,-0.3502088,1.466249,-0.1395744,-0.1259781,1.480967,0.3292375,-0.1281216,1.513613,NA,NA,NotTracked,Unknown,
0.9306641,0.234375,0.2553711,0.5458984,0.8457031,0.8154297,-2,-1,-2,-1,-2,-1,0,-1,-4,-2,12,3,-1,2,2,2,-40.875,-40.875,-40.875,131.125,131.125,131.125,6.031927,2.981212,9.491702,6.965369,4.418869,0.5388535,-0.1114469,-0.4299635,1.387007,0.1744792,-0.2465933,1.301889,0.1615207,0.3914996,1.526426,-0.1617577,-0.4432507,1.394846,0.235426,-0.2307994,1.231667,0.107777,-0.05112175,1.525795,0.09495199,-0.3632537,1.506974,-0.06496456,0.1342081,1.491626,0.01513556,-0.3489548,1.465985,-0.1371596,-0.1256743,1.474579,0.339736,-0.1198415,1.470808,NA,NA,NotTracked,Unknown,
0.9941406,0.2314453,0.2368164,0.2705078,0.6499023,0.6186523,0,0,-1,-2,-2,-2,-1,-2,3,0,-1,-4,-6,-4,-2,0,-38.4375,-38.4375,-38.4375,67.9375,67.9375,67.9375,6.044256,2.971725,9.392681,7.035801,4.906808,0.8980827,-0.1035439,-0.4289555,1.380905,0.08633742,-0.1290547,1.258449,0.1605067,0.3920061,1.528324,-0.1491266,-0.4520598,1.381688,0.1017455,-0.1404339,1.214714,0.1088084,-0.05039982,1.527898,0.09761008,-0.36175,1.510799,-0.06378672,0.1346911,1.490096,0.01872871,-0.3485492,1.470626,-0.1331085,-0.1251966,1.467693,0.3337126,-0.09486409,1.397528,NA,NA,NotTracked,Unknown,
0.9887695,0.2016602,0.2441406,-0.04882813,0.4619141,0.4941406,1,-1,1,-2,-1,-1,0,-1,-10,-5,3,9,14,2,-4,-6,-35.375,-35.375,-35.375,62,62,62,6.064942,2.979321,9.308713,7.138139,5.261723,1.255355,-0.09232428,-0.4258982,1.37101,0.01151349,0.0002722119,1.273986,0.1602478,0.392346,1.529859,-0.1356581,-0.4491419,1.370053,0.001825679,-0.02642279,1.223625,0.1104759,-0.04903596,1.52887,0.1013964,-0.3574927,1.513462,-0.06078297,0.1388521,1.488258,0.02311958,-0.3449814,1.474416,-0.1296413,-0.1273886,1.458399,0.314429,-0.05889178,1.342022,NA,NA,Unknown,Unknown,
0.9633789,0.1855469,0.2402344,0.2353516,0.4536133,0.2060547,-1,-2,-2,-2,-2,-2,-1,-3,5,2,1,0,0,4,4,3,-36.1875,-36.1875,-36.1875,65.9375,65.9375,65.9375,6.101465,3.002987,9.20636,7.383573,5.47903,1.647501,-0.07701165,-0.421144,1.362017,-0.07381583,0.08674577,1.30849,0.160578,0.3923878,1.531633,-0.1203952,-0.4402046,1.360842,-0.08244984,0.1426695,1.377,0.1119538,-0.04814109,1.529661,0.1043319,-0.3561855,1.513955,-0.06016815,0.1420996,1.48224,0.02525838,-0.3445954,1.475876,-0.1233783,-0.124218,1.452771,0.251209,-0.02517949,1.311815,NA,NA,Unknown,Unknown,
0.9526367,0.1699219,0.2456055,0.5029297,0.5883789,0.04345703,-1,-1,0,-1,-1,0,1,-1,2,0,-1,1,11,5,3,5,-28.3125,-28.3125,-28.3125,-1.1875,-1.1875,-1.1875,6.129398,3.032943,9.120021,7.483677,5.463583,1.865152,-0.05935577,-0.4183027,1.350472,-0.08000068,0.1067705,1.345413,0.1618653,0.3922164,1.532683,-0.1048651,-0.4453759,1.353,-0.04645091,0.1433863,1.403143,0.1137154,-0.04756233,1.529692,0.1077646,-0.3558992,1.513493,-0.05942942,0.1405604,1.477842,0.02750607,-0.3455377,1.476657,-0.1189499,-0.1182551,1.446984,0.2163969,-0.007185668,1.300402,NA,NA,Unknown,Unknown,
0.9638672,0.08398438,0.2470703,0.3989258,0.6035156,-0.1279297,-1,-1,-1,-1,-1,-1,-1,-1,-6,3,-5,1,-12,-6,-6,-12,-12,-12,-12,-26.875,-26.875,-26.875,6.12008,3.067336,9.075494,7.479116,5.339283,2.004015,-0.04761107,-0.4139872,1.340002,-0.1164949,0.100215,1.39602,0.162836,0.3920085,1.533485,-0.08876314,-0.4293346,1.3426,-0.08526847,0.1598177,1.418577,0.1146671,-0.04720617,1.529405,0.10879,-0.3558907,1.51306,-0.06047663,0.139481,1.473819,0.02813623,-0.3460607,1.476917,-0.1154589,-0.1140748,1.443779,0.1583713,0.02943117,1.303041,NA,NA,Unknown,NotTracked,
0.9658203,0.09521484,0.2299805,-0.1513672,1.111328,-0.1333008,0,-1,-1,-2,-1,-1,-1,1,-7,-4,-8,-9,-7,-6,-2,-4,8.1875,8.1875,8.1875,-51.75,-51.75,-51.75,6.111662,3.096731,9.085509,7.454837,5.204879,2.024473,-0.04090695,-0.4109967,1.330796,-0.1043604,0.0855682,1.406886,0.1631323,0.3919905,1.533699,-0.07860198,-0.4300776,1.327526,-0.08280083,0.1438805,1.423171,0.1149528,-0.0468773,1.528994,0.1089683,-0.3557051,1.512952,-0.06130765,0.1393553,1.472824,0.02832349,-0.3462273,1.477303,-0.113698,-0.1116788,1.441691,0.1573181,0.02371225,1.304922,NA,NA,Unknown,NotTracked,
0.909668,0.1591797,0.2207031,0.1655273,0.9995117,0.1245117,1,-1,0,-2,-2,0,-2,-2,-7,-6,-4,-1,-7,-2,-3,-6,26.6875,26.6875,26.6875,2.8125,2.8125,2.8125,6.101199,3.125659,9.136833,7.404335,5.093406,1.914288,-0.04354914,-0.4105131,1.326644,-0.05979496,0.0793785,1.404367,0.1630106,0.3920915,1.53391,-0.04759568,-0.4272563,1.287572,-0.02798082,0.1565017,1.428,0.1149314,-0.04656642,1.528687,0.1089648,-0.3553387,1.512772,-0.06168795,0.1389911,1.472637,0.02834057,-0.3462225,1.477599,-0.1141928,-0.1023376,1.439523,0.2040967,-0.01719992,1.308209,NA,NA,Unknown,NotTracked,
0.9086914,0.1450195,0.2641602,-0.1782227,1.403809,0.2250977,-2,-2,-1,-2,0,-1,-1,-2,-4,-1,-5,-14,-15,-10,-9,-7,10.4375,10.4375,10.4375,-33,-33,-33,6.070947,3.115478,9.19061,7.367996,5.017426,1.790612,-0.05337947,-0.4114692,1.328503,-0.03336942,0.03743967,1.390875,0.1620183,0.3922421,1.534228,-0.09499559,-0.4181401,1.331,-0.01654745,0.1098724,1.409418,0.1149515,-0.04643022,1.528629,0.1091935,-0.3547514,1.512052,-0.06253193,0.1382799,1.472839,0.02845724,-0.3462224,1.477384,-0.1145649,-0.10706,1.439634,0.2370353,-0.03185577,1.30977,NA,NA,Unknown,NotTracked,
0.902832,0.2773438,0.2358398,-0.3266602,1.256348,0.2055664,-1,-1,-1,0,-2,0,-1,-1,3,-7,-5,5,10,1,-1,-2,25.8125,25.8125,25.8125,7.4375,7.4375,7.4375,6.047598,3.086163,9.264379,7.33484,5.038796,1.654369,-0.06884191,-0.4166734,1.335644,-0.007996607,0.02284462,1.381276,0.1601972,0.3925587,1.534879,-0.08001958,-0.4341756,1.300432,-0.02872398,0.1059627,1.406818,0.1149061,-0.04629816,1.528538,0.1093577,-0.3543746,1.511168,-0.06362955,0.137479,1.473195,0.02876066,-0.3460771,1.476467,-0.1174568,-0.1129784,1.440526,0.2641838,-0.04139485,1.314763,NA,NA,Unknown,Unknown,
0.9375,0.2558594,0.2822266,-0.4912109,1.137695,0.3325195,0,-2,-2,1,-2,-2,-2,0,0,-1,-4,10,18,3,3,-2,-0.625,-0.625,-0.625,-12.5,-12.5,-12.5,6.004486,3.029031,9.330912,7.327533,5.156811,1.513754,-0.08350407,-0.4209933,1.345035,0.01405679,0.01895436,1.370185,0.1584005,0.3929749,1.534932,-0.1254186,-0.4245527,1.34924,-0.01709498,0.09629825,1.386111,0.114687,-0.04608048,1.528251,0.1090076,-0.353728,1.509993,-0.06435408,0.136864,1.474169,0.02862191,-0.3452606,1.474753,-0.1202021,-0.1141888,1.442364,0.2896409,-0.04044008,1.315918,NA,NA,Unknown,Unknown,
0.9160156,0.3295898,0.2670898,-0.5175781,0.8364258,0.2519531,-1,0,-1,-1,-2,-2,-2,-1,3,-3,-5,-5,-5,-3,-3,-4,2.5625,2.5625,2.5625,-32.625,-32.625,-32.625,5.972909,2.987236,9.372918,7.248974,5.315588,1.466612,-0.09332585,-0.424893,1.354899,0.01955339,0.03786936,1.364154,0.157026,0.3936225,1.534962,-0.1343202,-0.4262359,1.35522,0.01175522,0.1050431,1.352,0.1139337,-0.04594959,1.527312,0.1075399,-0.3537849,1.508839,-0.06450787,0.1367942,1.474185,0.02723386,-0.3449696,1.473385,-0.1227367,-0.1160387,1.443547,0.2945899,-0.03707549,1.314479,NA,NA,Unknown,Unknown,
0.9213867,0.2861328,0.3037109,-0.465332,0.8046875,0.2675781,-1,0,-1,0,-1,-3,-1,-1,-1,5,8,-1,-6,-3,1,2,-7.0625,-7.0625,-7.0625,-86.875,-86.875,-86.875,5.92499,2.948001,9.415512,7.138328,5.472279,1.47551,-0.09997316,-0.427767,1.363673,0.03565469,0.08341288,1.342963,0.1568678,0.3938276,1.53481,-0.1317755,-0.4267976,1.345121,0.08267691,0.1270507,1.397625,0.1135302,-0.04586832,1.526795,0.105768,-0.3541718,1.507472,-0.06466994,0.1365332,1.47325,0.02506584,-0.3449177,1.470924,-0.1243151,-0.117181,1.443685,0.2994756,-0.03361963,1.312497,NA,NA,Unknown,Open,
0.9692383,0.2670898,0.2915039,-0.3632813,0.5556641,0.3203125,-2,0,-1,-1,-1,0,0,-1,-8,-4,2,0,13,-1,-4,-3,-10.125,-10.125,-10.125,-91.9375,-91.9375,-91.9375,5.89346,2.921065,9.436377,6.912434,5.656308,1.525653,-0.1008809,-0.4285548,1.36622,0.02933338,0.09069114,1.353508,0.1571584,0.3937617,1.534562,-0.1513677,-0.4399615,1.366278,-0.01237167,0.03515775,1.38244,0.1132258,-0.04633899,1.525347,0.1052399,-0.3552005,1.506333,-0.06375064,0.1355394,1.470014,0.02436729,-0.3459428,1.468355,-0.1247183,-0.1179822,1.443407,0.2975115,-0.03262436,1.31175,NA,NA,Unknown,Unknown,
0.9780273,0.203125,0.2841797,-0.3032227,0.675293,0.3295898,-2,-2,0,-2,-1,0,-1,-2,7,12,12,-1,-11,4,7,3,-13.1875,-13.1875,-13.1875,-138.3125,-138.3125,-138.3125,5.92031,2.934314,9.375366,6.742558,5.715385,1.579065,-0.09666277,-0.4272997,1.359489,0.01587551,0.1175932,1.348428,0.1580808,0.3935188,1.534201,-0.1444968,-0.4410945,1.354105,-0.01595303,0.07538812,1.390771,0.1135077,-0.04698545,1.524108,0.1058115,-0.3565003,1.505053,-0.06219745,0.1341263,1.465861,0.02510536,-0.347288,1.465911,-0.1244454,-0.1182913,1.442601,0.283843,-0.03491315,1.313272,NA,NA,Unknown,Closed,
0.9624023,0.2197266,0.2719727,-0.3095703,0.6391602,0.3964844,-2,-2,-2,-1,-3,-2,-1,-2,-3,10,19,-4,-18,-5,1,2,-5.875,-5.875,-5.875,-48.25,-48.25,-48.25,6.00084,2.976651,9.280387,6.553445,5.661491,1.618149,-0.08418276,-0.4229705,1.347519,0.007063508,0.1126226,1.35372,0.1592547,0.3933884,1.533865,-0.1279538,-0.4457839,1.345167,0.06839924,0.1304671,1.414565,0.1142535,-0.04726113,1.523339,0.10758,-0.357119,1.503856,-0.0611999,0.1328407,1.463276,0.02705303,-0.3478485,1.464399,-0.1237311,-0.1170916,1.440498,0.2684753,-0.03990823,1.317638,NA,NA,Unknown,Closed,
0.9624023,0.1977539,0.2558594,-0.08056641,0.902832,0.5800781,0,0,0,-2,0,0,0,-1,0,-2,3,-5,-7,-2,-5,-2,-4.9375,-4.9375,-4.9375,-22.875,-22.875,-22.875,6.089536,3.050768,9.169422,6.501137,5.497304,1.60874,-0.06954989,-0.4195329,1.33491,0.01688792,0.07785255,1.359161,0.160488,0.3933508,1.533438,-0.103916,-0.4390488,1.323394,-0.01845951,0.02540865,1.381476,0.1152655,-0.04727625,1.522691,0.1096358,-0.3573031,1.502684,-0.06137818,0.1328356,1.463079,0.02907815,-0.3481466,1.464274,-0.1222057,-0.1154134,1.438122,0.2546276,-0.05208376,1.329131,NA,NA,Unknown,Unknown,
0.9150391,0.1523438,0.2524414,-0.05712891,1.030273,0.7583008,-1,-1,-1,-1,-2,-2,-2,-1,1,-18,-23,-5,-16,-8,-5,-1,-1.25,-1.25,-1.25,-4.9375,-4.9375,-4.9375,6.124816,3.097433,9.123636,6.484682,5.31592,1.61183,-0.05322177,-0.4138247,1.324769,-0.02177523,0.04535423,1.357247,0.1615894,0.3934422,1.533208,-0.09405869,-0.4295001,1.327059,-0.04214301,-0.00335207,1.386706,0.1159805,-0.04708431,1.52222,0.1106459,-0.357049,1.502193,-0.06174016,0.1351684,1.464624,0.03015548,-0.3480284,1.464542,-0.1186748,-0.1143243,1.433807,0.2488387,-0.05880057,1.336085,NA,NA,Unknown,Unknown,
0.9106445,0.175293,0.2407227,-0.1699219,1.009277,0.7304688,0,-1,-2,0,-1,-2,-1,0,-1,2,-3,-4,-5,-5,-5,-3,-2.3125,-2.3125,-2.3125,-16.5625,-16.5625,-16.5625,6.151799,3.130471,9.093064,6.464314,5.231143,1.607378,-0.04374561,-0.4124977,1.31719,-0.02695186,0.03339063,1.35661,0.1627009,0.3930933,1.532429,-0.06047551,-0.4285048,1.287447,0.01314698,0.07383729,1.378425,0.1161645,-0.04710426,1.522011,0.1106469,-0.3570664,1.502169,-0.06122836,0.1360281,1.465036,0.03025451,-0.3481259,1.465172,-0.1162578,-0.11232,1.430583,0.2455124,-0.06289776,1.340484,NA,NA,Unknown,Unknown,
0.9321289,0.190918,0.2519531,-0.2148438,0.8310547,0.6005859,0,-1,-3,0,0,-1,-2,-1,6,6,7,1,-23,-6,-2,0,-3.25,-3.25,-3.25,14.125,14.125,14.125,6.147306,3.133633,9.08818,6.475983,5.229863,1.598588,-0.04058687,-0.4137389,1.314569,-0.02733984,0.03324324,1.357136,0.1637345,0.3928304,1.531419,-0.06473023,-0.4335152,1.293208,0.01392859,0.07532857,1.378227,0.1162949,-0.04712813,1.521758,0.1105862,-0.3570953,1.502121,-0.06123365,0.1361325,1.465164,0.03023414,-0.3482071,1.465512,-0.1154078,-0.1114835,1.429184,0.2439658,-0.06391272,1.341235,NA,NA,Unknown,Unknown,
0.9311523,0.2094727,0.2607422,-0.1474609,0.8066406,0.6386719,-1,-2,-1,-3,-2,-1,-1,-1,-4,-3,3,3,17,1,2,1,-7.5,-7.5,-7.5,9.75,9.75,9.75,6.131041,3.112105,9.095561,6.493287,5.236933,1.592475,-0.04485042,-0.4142933,1.316358,-0.0283097,0.03211993,1.356001,0.1643112,0.3927403,1.530457,-0.08731285,-0.4215502,1.324056,-0.007586591,-0.0332121,1.386751,0.1164258,-0.04708492,1.521266,0.1104596,-0.3570357,1.501925,-0.06129611,0.1362736,1.46525,0.03019232,-0.3481908,1.465638,-0.1145875,-0.1107237,1.427893,0.2438749,-0.06467251,1.341151,NA,NA,Unknown,Unknown,
0.9228516,0.2041016,0.2802734,-0.1640625,0.777832,0.609375,0,-1,0,-1,0,-1,-1,-1,0,-1,-3,-12,-3,5,5,1,1.1875,1.1875,1.1875,1,1,1,6.100273,3.083264,9.123179,6.492308,5.25378,1.588608,-0.04738553,-0.4160795,1.318896,-0.02834642,0.03419483,1.354777,0.1648782,0.3928318,1.529429,-0.08648837,-0.4309156,1.312111,0.01462443,0.07493778,1.376039,0.11702,-0.04690028,1.520164,0.1108194,-0.3566901,1.501054,-0.06130997,0.136549,1.465313,0.03046531,-0.3480097,1.465539,-0.110465,-0.1053769,1.422655,0.2437819,-0.0650847,1.34076,NA,NA,Unknown,Unknown,
0.9243164,0.2172852,0.2871094,-0.140625,0.75,0.5498047,-2,-2,0,-3,-1,0,-1,-3,-2,4,0,4,-1,-1,-2,-3,2.625,2.625,2.625,2.5625,2.5625,2.5625,6.070339,3.05726,9.157994,6.491989,5.264146,1.580488,-0.05557559,-0.4167637,1.32426,0.01894884,0.02678864,1.352528,0.1656173,0.3926895,1.528543,-0.0776051,-0.4357419,1.299466,0.0737371,0.07287139,1.385965,0.1177152,-0.04675138,1.51919,0.1116245,-0.3564855,1.500086,-0.06126516,0.1367672,1.465301,0.03128074,-0.3477502,1.464997,-0.1106137,-0.1074831,1.422656,0.2435858,-0.06551823,1.340281,NA,NA,Unknown,Unknown,
0.9277344,0.2158203,0.2866211,-0.1162109,0.75,0.5649414,-2,-2,-2,-1,0,-2,0,-1,-1,-2,-1,1,1,1,1,-1,-1.25,-1.25,-1.25,-13.5,-13.5,-13.5,6.031243,3.028116,9.202563,6.475842,5.257644,1.560518,-0.06193892,-0.4185215,1.326945,0.02149108,0.02562565,1.350758,0.1661998,0.3926616,1.528021,-0.07975207,-0.4328032,1.297674,0.07430677,0.07270257,1.385886,0.1184043,-0.04674847,1.51835,0.1124437,-0.356404,1.499102,-0.06118388,0.1370445,1.465289,0.03211711,-0.3475936,1.464431,-0.1104885,-0.1086361,1.421512,0.2427831,-0.06586018,1.340134,NA,NA,Unknown,Unknown,
0.9545898,0.2211914,0.2788086,0.01269531,0.7275391,0.4912109,-3,1,0,0,-1,-1,0,0,-3,-3,-3,-3,-4,-1,-1,-1,5.4375,5.4375,5.4375,14.1875,14.1875,14.1875,6.012779,3.016299,9.229983,6.482419,5.221406,1.485539,-0.06678747,-0.4196728,1.329569,-0.02724753,0.03311004,1.350166,0.1666742,0.392398,1.52723,-0.1108892,-0.4278363,1.33575,-0.01283636,-0.0318495,1.387309,0.1187383,-0.04683493,1.517799,0.1128496,-0.3564835,1.498546,-0.06119568,0.1371664,1.465277,0.03258773,-0.3475478,1.464103,-0.111577,-0.1092613,1.421249,0.2433002,-0.06735761,1.341674,NA,NA,Unknown,Unknown,
0.940918,0.1879883,0.2661133,0.1020508,0.6015625,0.4643555,-1,-2,0,1,-1,-2,-2,-3,-1,-2,1,5,1,2,0,2,13.3125,13.3125,13.3125,48.25,48.25,48.25,6.011378,3.017257,9.251603,6.52327,5.163237,1.367908,-0.06875472,-0.4201266,1.329449,0.01238555,0.02243404,1.347076,0.1669224,0.3924195,1.526459,-0.1137118,-0.4389088,1.332,0.0613451,0.07574904,1.383158,0.1189523,-0.04685194,1.51731,0.1131064,-0.3564632,1.497945,-0.06123677,0.1372322,1.465272,0.03304088,-0.3473696,1.463388,-0.1126931,-0.1129944,1.422444,0.2450863,-0.06907839,1.343511,NA,NA,Unknown,Unknown,
0.9370117,0.1806641,0.2509766,0.112793,0.6044922,0.4755859,-2,-1,0,-1,-2,-1,-1,1,1,2,-3,-4,0,1,-1,-1,16.0625,16.0625,16.0625,57.625,57.625,57.625,6.038698,3.031393,9.251287,6.606771,5.069366,1.214189,-0.06894376,-0.4195642,1.328783,0.01744247,0.004919699,1.342874,0.1670203,0.3927566,1.52515,-0.07760825,-0.4352525,1.289531,0.0513907,0.07137556,1.377913,0.1191299,-0.04678373,1.516602,0.1133397,-0.3564076,1.497473,-0.06145033,0.1371618,1.465358,0.03362249,-0.3471424,1.462263,-0.1139309,-0.1190398,1.422222,0.2567176,-0.07780006,1.351271,NA,NA,Unknown,Unknown,
0.940918,0.2016602,0.2421875,0.09277344,0.6396484,0.5053711,-1,0,-1,0,-1,-2,1,-2,0,-1,-2,-2,-2,-2,-1,-1,21.125,21.125,21.125,41.625,41.625,41.625,6.076069,3.053368,9.247413,6.689053,4.907908,1.02685,-0.07072764,-0.4185163,1.328542,0.00954098,-0.08689389,1.306146,0.1663652,0.3929248,1.523808,-0.112858,-0.4261449,1.330913,-0.001044378,-0.048395,1.26616,0.119082,-0.04687063,1.5158,0.1136549,-0.3566386,1.496627,-0.0615472,0.1369483,1.465486,0.03426928,-0.3472616,1.460073,-0.1157075,-0.1251113,1.422039,0.2864238,-0.09158415,1.369187,NA,NA,Unknown,Unknown,
0.9135742,0.1918945,0.2431641,0.09423828,0.7827148,0.5683594,-1,-2,-2,-1,-2,-2,-3,1,2,1,1,1,1,-2,-4,-6,28.125,28.125,28.125,-19.375,-19.375,-19.375,6.107921,3.070756,9.268394,6.746462,4.561256,0.7282404,-0.0747574,-0.4197198,1.331707,0.06941745,-0.1700365,1.31241,0.1656388,0.3930614,1.52211,-0.08371004,-0.4333319,1.292875,0.05429371,-0.09625335,1.354475,0.1188397,-0.04717058,1.51496,0.1135987,-0.3570596,1.495728,-0.06171083,0.1367791,1.465881,0.03410454,-0.347696,1.457947,-0.1183448,-0.1208873,1.429072,0.3169064,-0.1059643,1.409646,NA,NA,Unknown,Unknown,
0.8989258,0.2202148,0.253418,0.5898438,0.8544922,0.5146484,-1,-2,0,-1,-3,-2,-3,-1,0,-2,0,1,-1,0,-1,-1,16.3125,16.3125,16.3125,-49,-49,-49,6.125854,3.068357,9.29048,6.774575,4.205168,0.4622239,-0.07932331,-0.4221316,1.338949,0.0944613,-0.2619921,1.303532,0.1643624,0.3930998,1.519741,-0.09286994,-0.4396129,1.30229,0.05185331,-0.218441,1.333774,0.1181518,-0.04830667,1.514089,0.1128104,-0.3595566,1.495458,-0.06182841,0.1364432,1.466597,0.03360914,-0.3495873,1.456902,-0.1213721,-0.1195824,1.433432,0.3440654,-0.1070131,1.418102,NA,NA,Unknown,Unknown,
0.9287109,0.2050781,0.2446289,0.5053711,0.6186523,0.6503906,-1,-1,-2,0,-3,-2,-2,0,-6,-2,-1,-1,0,-1,-1,1,18.75,18.75,18.75,-96.8125,-96.8125,-96.8125,6.11284,3.049081,9.333944,6.769409,3.84307,0.2134289,-0.08673553,-0.4246571,1.348619,0.1639613,-0.3550493,1.31742,0.1632209,0.3933349,1.517375,-0.1313601,-0.4317841,1.34979,0.1131242,-0.3271855,1.366294,0.1145362,-0.05007404,1.511391,0.1043962,-0.3632708,1.491238,-0.06206962,0.1358962,1.467108,0.02475673,-0.3505108,1.450666,-0.1237719,-0.1209956,1.437459,0.335973,-0.1613382,1.46225,NA,NA,Unknown,Unknown,
0.9599609,0.2446289,0.2631836,0.796875,0.7255859,0.4663086,-2,-1,-2,0,1,-2,-1,0,-1,-4,-4,0,0,1,1,1,18.375,18.375,18.375,-75.3125,-75.3125,-75.3125,6.090892,3.022389,9.393712,6.934393,3.414336,9.814657,-0.09463993,-0.424812,1.359329,0.2407877,-0.3952912,1.349638,0.1626261,0.3933531,1.515216,-0.1307298,-0.4207383,1.342203,0.2088903,-0.3731859,1.327941,0.1115301,-0.05070093,1.509285,0.1005021,-0.3639985,1.48932,-0.06231266,0.1353078,1.467438,0.02025171,-0.3500065,1.447583,-0.1269639,-0.1226402,1.441996,0.3320319,-0.1220053,1.500474,NA,NA,Unknown,Unknown,
0.9423828,0.2314453,0.2519531,1.116699,0.4960938,0.3217773,-1,-2,-1,-2,-1,0,0,-3,-1,-1,-2,-4,-1,-1,0,0,18.3125,18.3125,18.3125,-123.875,-123.875,-123.875,6.040785,2.978859,9.484232,7.133956,3.144641,9.37716,-0.1026933,-0.4290778,1.368412,0.2707994,-0.4290447,1.40386,0.1625887,0.3932715,1.513864,-0.1471912,-0.4264014,1.360171,0.2238604,-0.4103498,1.392,0.1110661,-0.05094003,1.509,0.1003542,-0.3641886,1.489323,-0.06254922,0.1346087,1.467895,0.02016025,-0.3503279,1.447148,-0.1296446,-0.1241906,1.446782,0.327424,-0.1358407,1.516163,NA,NA,NotTracked,Unknown,
0.9692383,0.2255859,0.2607422,1.109375,0.6030273,0.3061523,-1,-1,-1,-2,-1,-1,0,0,-3,-3,-2,-2,-4,-2,-1,0,6.5625,6.5625,6.5625,-59.0625,-59.0625,-59.0625,6.007321,2.955518,9.537342,7.395992,2.996547,8.943228,-0.1091461,-0.431401,1.377273,0.2863847,-0.449569,1.436083,0.1626934,0.3930587,1.513143,-0.1549597,-0.4275251,1.371043,0.2397361,-0.4317123,1.402556,0.1110167,-0.05113097,1.508893,0.1010294,-0.3645754,1.489608,-0.06251208,0.1338323,1.468278,0.02107639,-0.3509935,1.446838,-0.1327008,-0.1269102,1.451003,0.3262332,-0.1445975,1.529536,NA,NA,NotTracked,NotTracked,
