ALX,ALY,ALZ,ARX,ARY,ARZ,EMG0L,EMG1L,EMG2L,EMG3L,EMG4L,EMG5L,EMG6L,EMG7L,EMG0R,EMG1R,EMG2R,EMG3R,EMG4R,EMG5R,EMG6R,EMG7R,GLX,GLY,GLZ,GRX,GRY,GRZ,ORL,OPL,OYL,ORR,OPR,OYR,LHNX,LHNY,LHNZ,RHNX,RHNY,RHNZ,HX,HY,HZ,LTX,LTY,LTZ,RTX,RTY,RTZ,SpineMidX,SpineMidY,SpineMidZ,SpineBaseX,SpineBaseY,SpineBaseZ,ShoulderLeftX,ShoulderLeftY,ShoulderLeftZ,ShoulderRightX,ShoulderRightY,ShoulderRightZ,ElbowLeftX,ElbowLeftY,ElbowLeftZ,ElbowRightX,ElbowRightY,ElbowRightZ,Myo_Pose_left,Myo_Pose_Right,Kinect_pose_left,Kinect_pose_right
0.9238281,0.2983398,0.2490234,0.9125977,0.3154297,0.05566406,-1,-1,-2,0,0,-1,0,0,3,0,0,-1,-4,-3,-1,0,0.6875,0.6875,0.6875,-3.375,-3.375,-3.375,6.466734,3.115422,7.94567,7.325327,3.042874,6.402188,-0.1619014,-0.4167206,1.417817,0.2568645,-0.4316501,1.438507,0.09947914,0.3895802,1.508218,-0.2043057,-0.4298755,1.414139,0.2091959,-0.4159262,1.401525,0.0569556,-0.05225287,1.51823,0.05337771,-0.3624957,1.500558,-0.122687,0.1375816,1.51352,-0.02537897,-0.3513949,1.462031,-0.1952592,-0.1290299,1.534104,0.2755437,-0.1521483,1.550662,NA,NA,NotTracked,NotTracked,
0.9077148,0.3266602,0.2270508,0.9282227,0.3251953,0.07080078,-1,1,-2,-1,-3,-2,-2,0,3,1,1,3,7,0,0,-3,0.125,0.125,0.125,-0.5625,-0.5625,-0.5625,6.473829,3.131382,7.945864,7.327252,3.046139,6.398333,-0.1618985,-0.4161565,1.41614,0.2574659,-0.4306981,1.436846,0.09914833,0.3893731,1.507927,-0.202041,-0.4318401,1.411888,0.2092977,-0.4142313,1.399663,0.05683215,-0.05254179,1.517307,0.05349154,-0.3627266,1.498284,-0.1230346,0.1371156,1.513378,-0.02526168,-0.3516123,1.459438,-0.1954856,-0.1294253,1.533116,0.2755609,-0.1523439,1.549882,NA,NA,NotTracked,NotTracked,
0.9116211,0.3168945,0.2285156,0.9272461,0.3217773,0.06054688,-1,-1,-2,0,-1,0,-1,-1,-1,-1,0,0,-1,-4,0,0,1.875,1.875,1.875,-1.625,-1.625,-1.625,6.479399,3.139804,7.942541,7.325002,3.050318,6.396422,-0.1616762,-0.4155283,1.41416,0.259448,-0.4207645,1.440658,0.09888646,0.3891902,1.507898,-0.1993603,-0.4390279,1.405667,0.209526,-0.4170989,1.398145,0.0567867,-0.05285725,1.516556,0.05398585,-0.3630903,1.496443,-0.1234222,0.1365185,1.513232,-0.02469891,-0.3520909,1.457416,-0.1956866,-0.1299217,1.532557,0.2756492,-0.1524769,1.548997,NA,NA,NotTracked,NotTracked,
0.9121094,0.3144531,0.246582,0.9165039,0.3208008,0.04931641,0,-2,0,-1,-1,-4,-2,-2,3,0,-1,2,6,-1,0,3,3.1875,3.1875,3.1875,-5.8125,-5.8125,-5.8125,6.487379,3.14515,7.939031,7.325791,3.05455,6.384683,-0.1603669,-0.4168185,1.410907,0.2603006,-0.4229436,1.437229,0.09832853,0.3889288,1.507606,-0.200542,-0.4361889,1.405255,0.2105523,-0.4181253,1.397687,0.05673782,-0.05334973,1.515376,0.05437877,-0.3636832,1.494075,-0.1236351,0.1357982,1.512506,-0.02430173,-0.3528116,1.455202,-0.1959764,-0.1298209,1.531676,0.2755156,-0.1526881,1.547132,NA,NA,NotTracked,NotTracked,
0.9106445,0.3149414,0.246582,0.9208984,0.3178711,0.07080078,-2,-1,-1,0,-1,-1,-2,-3,0,-1,-1,0,-6,-3,-1,-3,-0.5,-0.5,-0.5,-4.875,-4.875,-4.875,6.491051,3.146272,7.935153,7.322847,3.055125,6.376906,-0.1599557,-0.4188063,1.410176,0.2601829,-0.422602,1.436411,0.09782211,0.3887508,1.507764,-0.2007557,-0.4352324,1.405965,0.21057,-0.4175891,1.395577,0.05652225,-0.05360421,1.514552,0.05455396,-0.3640884,1.49241,-0.1240032,0.1353287,1.512195,-0.02410681,-0.3532993,1.453411,-0.1958163,-0.1309041,1.530217,0.2755693,-0.1530535,1.546191,NA,NA,NotTracked,NotTracked,
0.9189453,0.3291016,0.2314453,0.9125977,0.3295898,0.05273438,-1,-2,-1,0,-1,-1,-2,0,-3,-2,-1,-1,17,7,-1,0,-3.125,-3.125,-3.125,-2.5625,-2.5625,-2.5625,6.495581,3.144356,7.925151,7.323591,3.056185,6.369722,-0.1606991,-0.4179993,1.408964,0.2606271,-0.4217805,1.43508,0.09731264,0.388584,1.507639,-0.2010327,-0.4338757,1.405205,0.2108665,-0.4202259,1.393317,0.05642619,-0.05388872,1.513609,0.05484442,-0.3644058,1.490815,-0.1246166,0.1342839,1.511495,-0.02378416,-0.3537382,1.451543,-0.1962544,-0.1331134,1.528086,0.2756449,-0.1532774,1.545553,NA,NA,NotTracked,NotTracked,
0.909668,0.3256836,0.2333984,0.9145508,0.3134766,0.06542969,-1,0,0,1,0,-1,0,-1,0,-2,-1,2,5,2,-2,-2,-0.25,-0.25,-0.25,-4.375,-4.375,-4.375,6.502055,3.142506,7.915339,7.324429,3.056354,6.356601,-0.1600911,-0.4175385,1.407511,0.261037,-0.4216268,1.435089,0.0967519,0.3884769,1.507518,-0.2008199,-0.4305363,1.403819,0.2105988,-0.421034,1.390767,0.05631515,-0.05402068,1.512849,0.05512365,-0.3644696,1.489534,-0.1249583,0.1337427,1.510743,-0.02350124,-0.3538732,1.450319,-0.196461,-0.1331282,1.527177,0.2756433,-0.153333,1.545106,NA,NA,NotTracked,NotTracked,
0.9130859,0.3325195,0.230957,0.9125977,0.3334961,0.05908203,-2,-2,-1,-1,-1,0,0,-1,-2,-1,0,-1,-2,-4,-1,-2,-0.6875,-0.6875,-0.6875,-3.375,-3.375,-3.375,6.512207,3.142295,7.903372,7.328703,3.056997,6.344605,-0.1601712,-0.4186856,1.406891,0.2617002,-0.4208048,1.435197,0.09605898,0.3884408,1.507508,-0.2003211,-0.4352228,1.404434,0.2106622,-0.4192915,1.393837,0.05599631,-0.05419071,1.511982,0.0552517,-0.3646488,1.488561,-0.1255776,0.132901,1.509965,-0.02335202,-0.3541131,1.449297,-0.1966179,-0.1332565,1.526057,0.2756051,-0.1534455,1.544858,NA,NA,NotTracked,NotTracked,
0.9150391,0.328125,0.2387695,0.9501953,0.3520508,0.04199219,-1,-1,2,-1,-2,0,-1,-1,-8,-13,-9,-5,0,-3,-3,-2,-1.875,-1.875,-1.875,-6.5625,-6.5625,-6.5625,6.516219,3.142045,7.895978,7.3301,3.059936,6.332592,-0.1603635,-0.4175795,1.406739,0.2618195,-0.420842,1.435773,0.0953333,0.3884879,1.50755,-0.2007987,-0.4354455,1.40555,0.211266,-0.4152629,1.394403,0.05580956,-0.05436831,1.511279,0.05530316,-0.364806,1.487662,-0.1260971,0.1324027,1.509076,-0.02328571,-0.3543129,1.448362,-0.1966303,-0.1338789,1.524837,0.2755937,-0.1536483,1.544533,NA,NA,NotTracked,NotTracked,
0.9257813,0.3222656,0.2412109,1.155273,0.59375,0.2548828,-1,-1,-1,1,-2,-1,1,-1,2,4,11,6,16,2,-1,2,-2.25,-2.25,-2.25,-64.125,-64.125,-64.125,6.517242,3.141205,7.891078,7.15068,3.173046,6.418592,-0.1596967,-0.4181432,1.405571,0.2614618,-0.4175719,1.431792,0.09403356,0.3886795,1.50755,-0.2002082,-0.4352703,1.403024,0.2110215,-0.4152954,1.392939,0.05561697,-0.0545081,1.510659,0.05531799,-0.3649851,1.487071,-0.1267209,0.1320352,1.508311,-0.02326935,-0.3545216,1.447669,-0.1967076,-0.1346443,1.523671,0.2757555,-0.1537597,1.544554,NA,NA,NotTracked,NotTracked,
0.9272461,0.300293,0.2265625,1.049805,0.9052734,0.3349609,-3,-2,-1,-3,-1,0,-1,-2,-10,-14,-5,-5,-7,-5,-5,-5,-2.875,-2.875,-2.875,-66.375,-66.375,-66.375,6.4981,3.138097,7.90072,6.856684,3.405116,6.643589,-0.1597539,-0.4180662,1.404527,0.2576906,-0.4024656,1.414126,0.0925485,0.3888437,1.507227,-0.199924,-0.4330408,1.399177,0.2287058,-0.4341326,1.4119,0.05544962,-0.05445434,1.510119,0.05534591,-0.364922,1.486618,-0.1274107,0.1316658,1.507589,-0.02323832,-0.3545169,1.447189,-0.1970146,-0.1346451,1.522617,0.2771528,-0.1531229,1.5467,NA,NA,NotTracked,NotTracked,
0.8999023,0.3198242,0.2255859,1.04834,0.90625,0.6391602,0,-1,-3,-3,0,-1,1,0,10,8,8,-5,7,9,8,15,1.6875,1.6875,1.6875,-125.3125,-125.3125,-125.3125,6.50157,3.136599,7.899365,6.540892,3.753993,6.829006,-0.1607115,-0.4167907,1.40526,0.2572361,-0.3524981,1.369693,0.09085884,0.3894258,1.506996,-0.1971004,-0.4416801,1.395611,0.2165632,-0.3525619,1.414757,0.05489238,-0.05441456,1.509492,0.05495986,-0.3649202,1.486152,-0.127831,0.1315285,1.507129,-0.0236872,-0.3545068,1.446488,-0.1971987,-0.1348076,1.521638,0.2792609,-0.1466608,1.551063,NA,NA,NotTracked,NotTracked,
0.9140625,0.347168,0.2421875,0.5449219,0.6201172,0.8789063,-1,1,-1,-1,0,0,0,-1,7,46,65,25,14,9,5,0,-7.375,-7.375,-7.375,-44.25,-44.25,-44.25,6.501963,3.132684,7.893382,6.25145,4.4583,7.001976,-0.1599975,-0.4166328,1.404678,0.250519,-0.2540993,1.277052,0.08939096,0.3899392,1.506457,-0.1950582,-0.4614872,1.390445,0.2241004,-0.2983514,1.287111,0.05454459,-0.05437559,1.509127,0.05473461,-0.3648921,1.485938,-0.1281374,0.1313657,1.506791,-0.02393029,-0.3544971,1.446216,-0.1971864,-0.134913,1.521158,0.276057,-0.1265459,1.553641,NA,NA,NotTracked,Lasso,
0.9150391,0.3203125,0.2475586,0.1118164,0.6020508,0.6391602,-1,-1,0,-2,-2,-2,-1,-1,1,-4,1,-4,-3,1,1,2,-10.8125,-10.8125,-10.8125,-24.9375,-24.9375,-24.9375,6.487483,3.129767,7.880011,6.189123,5.107655,7.116192,-0.1600249,-0.4171326,1.404585,0.2313014,-0.1152564,1.245755,0.08852013,0.390202,1.506006,-0.1966226,-0.4490898,1.389942,0.2650498,-0.1301111,1.2549,0.05428043,-0.05434108,1.50893,0.05436545,-0.3648409,1.485802,-0.1282982,0.1313594,1.50628,-0.02433646,-0.3544812,1.446075,-0.1974499,-0.1349246,1.520398,0.2603218,-0.1226505,1.545256,NA,NA,NotTracked,Unknown,
0.8979492,0.3085938,0.2329102,-0.449707,0.3032227,0.4389648,-2,0,-1,-1,-1,0,-3,-1,-5,-21,-45,-27,-5,-3,-2,-1,-12.6875,-12.6875,-12.6875,64,64,64,6.476608,3.126944,7.87698,6.304719,5.979436,7.345413,-0.1607102,-0.4164673,1.4046,0.2144084,0.03493643,1.272571,0.08774135,0.3903088,1.505099,-0.1984225,-0.4404425,1.396047,0.1886233,0.02271769,1.231529,0.05411985,-0.05447383,1.508855,0.05383233,-0.365038,1.48589,-0.1283971,0.1312704,1.505774,-0.02510349,-0.3549184,1.446553,-0.1976126,-0.1340931,1.519359,0.2746919,-0.1143503,1.470089,NA,NA,NotTracked,Closed,
0.9262695,0.3046875,0.2319336,-0.6552734,0.4169922,0.3613281,0,-2,0,-1,0,-2,-2,-3,-1,-17,-14,-7,-7,-2,-1,11,-14.625,-14.625,-14.625,42.875,42.875,42.875,6.467613,3.122442,7.859207,6.619992,6.485602,7.642612,-0.1608147,-0.4169917,1.404374,0.2050055,0.1388783,1.309746,0.08614641,0.3903238,1.504106,-0.2004904,-0.4334069,1.398667,0.188142,0.1098268,1.292,0.05396529,-0.05460548,1.508945,0.0528246,-0.3651688,1.486136,-0.1284442,0.1313659,1.505565,-0.02663082,-0.3549942,1.447992,-0.1975449,-0.1328219,1.518491,0.2910132,-0.1266596,1.458853,NA,NA,NotTracked,Unknown,
0.9228516,0.2709961,0.2368164,-0.6899414,0.2001953,0.2382813,0,-1,1,-1,-1,0,1,0,-14,6,-9,-16,-9,-5,-5,-14,-10.375,-10.375,-10.375,7.125,7.125,7.125,6.448988,3.118747,7.85596,7.062571,6.791864,8.134055,-0.1605126,-0.413426,1.405416,0.197562,0.2009442,1.349478,0.08417371,0.3900137,1.50263,-0.20282,-0.4226523,1.399533,0.1783646,0.2522177,1.376428,0.05470105,-0.05384716,1.509188,0.05018825,-0.3632585,1.486389,-0.1285892,0.1316472,1.505671,-0.03009991,-0.3526535,1.4505,-0.1971775,-0.1291192,1.51813,0.2863376,-0.08955182,1.398436,NA,NA,NotTracked,Unknown,
0.9233398,0.2866211,0.2197266,-0.5004883,0.3037109,0.1225586,-2,-2,-2,0,-2,-1,-1,-2,-2,13,5,4,-4,-1,0,6,-2.5,-2.5,-2.5,-33.9375,-33.9375,-33.9375,6.43583,3.11623,7.862141,7.680243,6.907803,8.81786,-0.1614445,-0.4127161,1.405602,0.1768915,0.2356044,1.383831,0.08246345,0.3890177,1.501068,-0.1989237,-0.4458241,1.394883,0.1569071,0.1475769,1.45075,0.05563169,-0.05320406,1.509428,0.0478484,-0.362427,1.486426,-0.1277339,0.1341745,1.516078,-0.03298229,-0.3516732,1.452553,-0.1971962,-0.1274,1.518131,0.2921328,-0.07017679,1.341098,NA,NA,NotTracked,Unknown,
0.9077148,0.2797852,0.2192383,-0.7353516,0.3120117,-0.2397461,-2,-1,-1,-2,-1,-4,-8,-3,-8,-19,-8,1,8,1,0,-4,1.375,1.375,1.375,-48.4375,-48.4375,-48.4375,6.42546,3.114151,7.871086,8.112834,6.837549,9.400703,-0.1615696,-0.4137193,1.407103,0.135079,0.2744147,1.414625,0.0818437,0.3883427,1.500358,-0.2030294,-0.4270426,1.404375,0.1086574,0.2187407,1.468039,0.05623042,-0.05306373,1.509201,0.0465514,-0.3630219,1.486426,-0.127382,0.1342104,1.514023,-0.03461169,-0.3528685,1.455001,-0.1970693,-0.1266602,1.518184,0.3000696,-0.07452187,1.343388,NA,NA,Unknown,NotTracked,
0.9121094,0.2910156,0.2519531,-0.8881836,0.5141602,-0.05224609,-2,0,-2,-1,-2,-1,1,-2,22,43,24,4,-7,-3,-1,-3,12.25,12.25,12.25,10.3125,10.3125,10.3125,6.431684,3.11757,7.894071,8.031932,6.868266,9.279548,-0.1609737,-0.4139085,1.407424,0.1296191,0.267683,1.421103,0.08129732,0.3880033,1.50019,-0.2005384,-0.437783,1.40013,0.1025498,0.2175593,1.466898,0.05636568,-0.05302861,1.508998,0.04550813,-0.3636701,1.486292,-0.1276042,0.1342631,1.513495,-0.03544443,-0.3537765,1.456118,-0.196932,-0.1260245,1.518627,0.2968072,-0.0721463,1.337683,NA,NA,Unknown,NotTracked,
0.925293,0.309082,0.2495117,-1.041504,0.253418,-0.03613281,-1,-3,-1,-1,-1,-1,0,-1,-24,-5,-6,-6,-3,-2,-5,-20,10.9375,10.9375,10.9375,24.5625,24.5625,24.5625,6.438468,3.124636,7.907277,7.807499,6.94807,9.054483,-0.1609624,-0.4129115,1.407981,0.1290771,0.276154,1.414409,0.08032104,0.3878121,1.499875,-0.2011624,-0.4390187,1.399202,0.1012169,0.2194814,1.46877,0.05637078,-0.05291773,1.508895,0.04434653,-0.3640265,1.486208,-0.12772,0.1343107,1.51333,-0.036388,-0.354258,1.456984,-0.1968349,-0.1254856,1.519459,0.2901276,-0.07101377,1.330383,NA,NA,Unknown,NotTracked,
0.9135742,0.340332,0.2661133,-1.052734,0.25,0.03271484,-1,-3,-1,-1,-1,-1,-1,0,-2,-5,4,1,-1,-2,1,6,4.75,4.75,4.75,-17.3125,-17.3125,-17.3125,6.446091,3.129299,7.911829,7.78888,6.997537,9.026301,-0.1624938,-0.4154361,1.408268,0.1308323,0.27801,1.410936,0.07914099,0.3873855,1.49949,-0.202179,-0.431949,1.399149,0.09594869,0.2231361,1.464275,0.05623565,-0.0527872,1.5087,0.0431593,-0.3643529,1.485964,-0.1277509,0.1343137,1.513241,-0.0372679,-0.3545996,1.457405,-0.1969827,-0.1253722,1.520547,0.2861191,-0.0710886,1.325864,NA,NA,Unknown,NotTracked,
0.8764648,0.3515625,0.2763672,-0.7827148,0.4472656,-0.0703125,-1,0,0,-1,-1,-1,-2,-3,-1,-4,-6,-6,-8,-6,-5,-4,-7.375,-7.375,-7.375,-34.5,-34.5,-34.5,6.443421,3.137389,7.910495,7.968612,6.923815,9.261315,-0.1631949,-0.4143591,1.408664,0.1249341,0.2716303,1.415885,0.07860865,0.3870006,1.49934,-0.2058425,-0.4453192,1.400364,0.1031904,0.2151874,1.468242,0.05621668,-0.05276626,1.508555,0.04243232,-0.3647733,1.485786,-0.1278216,0.1343485,1.513224,-0.0378572,-0.3550932,1.457915,-0.1972157,-0.1251492,1.521641,0.2832111,-0.07061977,1.323726,NA,NA,Unknown,NotTracked,
0.8935547,0.3129883,0.2470703,-0.8012695,0.3330078,-0.3530273,-2,-2,-3,-2,-1,-1,-4,1,8,2,4,4,-3,-2,-1,11,-5.0625,-5.0625,-5.0625,85.5,85.5,85.5,6.43416,3.141732,7.9096,8.098341,6.930007,9.36729,-0.1633311,-0.4133539,1.40829,0.1209186,0.2671582,1.421923,0.07841026,0.3867612,1.499222,-0.2048215,-0.4289396,1.40327,0.09355219,0.2090184,1.46525,0.05627785,-0.05297266,1.508174,0.04210011,-0.3651231,1.485693,-0.1279766,0.1344266,1.513199,-0.03808876,-0.3555584,1.458457,-0.1973882,-0.1249941,1.522057,0.2822571,-0.0697182,1.322271,NA,NA,Unknown,NotTracked,
0.9233398,0.2861328,0.2241211,-0.7436523,0.2333984,0.03369141,0,-1,-2,0,-1,-2,0,-1,8,1,4,-2,4,4,1,2,0,0,0,12.5,12.5,12.5,6.43071,3.141143,7.909272,7.763425,6.969932,8.941444,-0.1637844,-0.4150071,1.407067,0.1247807,0.2659483,1.413235,0.07827363,0.38671,1.499193,-0.2081676,-0.4122638,1.409039,0.1009043,0.2035818,1.465611,0.05624396,-0.05291195,1.508128,0.04161324,-0.365173,1.485704,-0.1280518,0.1345017,1.513142,-0.03842408,-0.3556172,1.458739,-0.1975046,-0.1247582,1.522356,0.2816553,-0.06932671,1.321828,NA,NA,Unknown,NotTracked,
0.9072266,0.2773438,0.2319336,-0.6694336,0.3740234,0.05615234,-1,-3,-1,-1,0,-3,-1,-2,-2,-6,-5,-1,-1,-1,-1,-1,-0.5625,-0.5625,-0.5625,22.6875,22.6875,22.6875,6.438955,3.138977,7.900853,7.477407,6.9291,8.585672,-0.1626602,-0.4158437,1.40611,0.1421258,0.2633477,1.390299,0.07793686,0.3869428,1.498982,-0.2042836,-0.4371844,1.400039,0.1187339,0.1805296,1.459077,0.05602636,-0.05266155,1.50786,0.04095555,-0.3651949,1.485446,-0.1282441,0.1345996,1.512973,-0.03898258,-0.3555632,1.458505,-0.197676,-0.1246074,1.522333,0.2823644,-0.07523761,1.333069,NA,NA,Unknown,NotTracked,
0.9199219,0.2905273,0.2470703,-0.7543945,0.3295898,0.1586914,-1,-2,-2,0,0,0,0,-2,-8,-5,-2,4,-1,-3,-2,-4,7.1875,7.1875,7.1875,3.5625,3.5625,3.5625,6.441087,3.132099,7.907219,7.127691,6.77879,8.185308,-0.1636459,-0.4126759,1.408756,0.1665969,0.2176714,1.375439,0.07663927,0.3879751,1.498508,-0.2011573,-0.4508202,1.392,0.1484261,0.147139,1.44608,0.05558835,-0.05223542,1.507463,0.04066046,-0.3650564,1.485333,-0.1288872,0.1346331,1.51256,-0.03947345,-0.3552623,1.457886,-0.1978873,-0.1247029,1.522346,0.2870309,-0.08940842,1.366946,NA,NA,Unknown,NotTracked,
0.921875,0.3266602,0.2285156,-0.6279297,0.3959961,0.2802734,-2,1,-2,-2,0,-1,0,-2,5,1,1,-2,-4,-4,-2,1,11.1875,11.1875,11.1875,-5.625,-5.625,-5.625,6.46247,3.129167,7.911021,6.732296,6.295382,7.723676,-0.1649452,-0.4161493,1.409563,0.1760902,0.1568926,1.339166,0.07469362,0.3896804,1.498876,-0.2085772,-0.4303536,1.407236,0.2052222,0.1990462,1.30375,0.05356908,-0.05216487,1.507289,0.04003549,-0.3648819,1.485298,-0.1299917,0.1346814,1.512241,-0.04031904,-0.3548668,1.457148,-0.1980717,-0.1253399,1.522687,0.29079,-0.1092513,1.395985,NA,NA,NotTracked,Unknown,
0.9169922,0.3286133,0.2495117,-0.5444336,0.4306641,0.3740234,-2,1,-1,-1,1,-2,-1,-1,6,3,6,-3,-20,-3,2,7,11.75,11.75,11.75,-29.4375,-29.4375,-29.4375,6.473698,3.125641,7.919612,6.565135,5.748286,7.503643,-0.1649858,-0.416516,1.408923,0.170031,0.07062522,1.303802,0.07371936,0.3905284,1.498941,-0.2063272,-0.441714,1.39943,0.1800729,0.07468697,1.235786,0.05034815,-0.05363744,1.506487,0.03986924,-0.3657228,1.485089,-0.1318566,0.1344231,1.511485,-0.04007833,-0.355827,1.455839,-0.1989064,-0.1286833,1.522205,0.3047042,-0.1278123,1.453312,NA,NA,NotTracked,Closed,
0.909668,0.3369141,0.2641602,-0.06835938,0.4599609,0.4516602,1,0,-1,0,-1,-2,-2,-1,-2,-1,-2,-1,2,0,-1,-3,4.9375,4.9375,4.9375,18.75,18.75,18.75,6.480423,3.125929,7.925649,6.512637,5.101452,7.336507,-0.1654851,-0.4166781,1.410057,0.1866641,-0.0564291,1.252108,0.07332547,0.3914077,1.49881,-0.2059196,-0.4396276,1.401854,0.1487814,-0.0316738,1.235125,0.04912117,-0.0535176,1.50601,0.04021152,-0.3654984,1.485015,-0.1327525,0.1339388,1.510144,-0.03897279,-0.3554169,1.454164,-0.1995188,-0.1298548,1.522419,0.3005604,-0.1081614,1.465764,NA,NA,NotTracked,Unknown,
0.9023438,0.3515625,0.2529297,0.6484375,0.9306641,0.5629883,-3,-1,0,-5,-2,0,-1,-1,3,0,-3,0,2,-2,-3,1,1.25,1.25,1.25,84.875,84.875,84.875,6.484056,3.128769,7.928202,6.703898,4.280324,7.138381,-0.1659525,-0.4171657,1.408654,0.1859097,-0.2081582,1.301594,0.07275164,0.3923868,1.498571,-0.2082551,-0.4254483,1.403263,0.1632708,-0.2095191,1.2532,0.04770253,-0.05328906,1.504963,0.0402195,-0.365256,1.484687,-0.133931,0.1334369,1.508896,-0.03879313,-0.3547333,1.451578,-0.1999355,-0.1324055,1.521974,0.3434723,-0.08508212,1.541151,NA,NA,NotTracked,Lasso,
0.9194336,0.3300781,0.2470703,0.9282227,0.9301758,0.5844727,0,-2,1,-1,-2,-1,-1,-1,1,0,0,-2,-6,-1,0,3,-9,-9,-9,-6.25,-6.25,-6.25,6.482705,3.131092,7.917576,6.788552,3.740428,7.016886,-0.1658558,-0.4165166,1.407614,0.2045339,-0.3389437,1.357602,0.07240223,0.3929469,1.498539,-0.2065267,-0.4351308,1.401323,0.1656303,-0.3772033,1.376147,0.04674244,-0.0530945,1.504202,0.04009094,-0.3650232,1.484286,-0.1346468,0.1332199,1.507632,-0.03879625,-0.3541016,1.449635,-0.2003069,-0.1326326,1.521683,0.2762152,-0.1167014,1.533957,NA,NA,NotTracked,Closed,
0.909668,0.3134766,0.2373047,1.141113,0.9121094,0.3295898,-1,0,0,-1,-3,-1,0,-2,0,0,4,3,-6,-3,-3,-3,-12.9375,-12.9375,-12.9375,-51.25,-51.25,-51.25,6.481748,3.129176,7.899017,6.916362,3.385416,6.80582,-0.1657934,-0.4169177,1.406118,0.2351686,-0.3825972,1.387115,0.07229807,0.3933873,1.498478,-0.2049787,-0.4377038,1.396108,0.1960246,-0.3867477,1.390425,0.04645121,-0.05317371,1.503704,0.04047673,-0.3652016,1.483952,-0.1351237,0.132616,1.505369,-0.03807963,-0.3544339,1.448041,-0.2007109,-0.1334367,1.520477,0.2775136,-0.1335301,1.534694,NA,NA,NotTracked,NotTracked,
0.909668,0.3012695,0.2373047,1.569336,0.6933594,1.010254,-1,-1,-2,-1,-1,-1,1,-1,-5,-6,-2,5,7,2,3,0,-15.8125,-15.8125,-15.8125,-78.5,-78.5,-78.5,6.471976,3.12296,7.88262,6.945185,3.121532,6.544227,-0.1663931,-0.4162546,1.4045,0.2437634,-0.4032596,1.417344,0.07253356,0.3936423,1.498283,-0.2070853,-0.4294328,1.391353,0.1947407,-0.3850512,1.390455,0.04645438,-0.05313028,1.503345,0.0413201,-0.3652219,1.483654,-0.1351147,0.1325467,1.503056,-0.03706051,-0.3545852,1.446982,-0.2013077,-0.1342568,1.517894,0.2752049,-0.1416168,1.538592,NA,NA,NotTracked,NotTracked,
0.9121094,0.2836914,0.2192383,0.6513672,0.5698242,0.3398438,-3,0,-1,0,-1,-1,-2,-1,-1,0,-1,0,3,2,-2,-1,-14.25,-14.25,-14.25,-32.625,-32.625,-32.625,6.457856,3.112307,7.868327,6.89916,3.093915,6.511158,-0.1669899,-0.4165051,1.404632,0.2482759,-0.4136602,1.432498,0.07377249,0.3938865,1.497962,-0.20426,-0.4433598,1.39485,0.1945222,-0.4248052,1.384818,0.04661345,-0.05311816,1.503108,0.04237467,-0.3652564,1.48361,-0.1348111,0.1324011,1.500696,-0.03596811,-0.3546745,1.446363,-0.2015889,-0.1342893,1.515512,0.2731033,-0.1465997,1.540989,NA,NA,NotTracked,NotTracked,
0.934082,0.2924805,0.2167969,0.8530273,0.2705078,0.2080078,-1,0,0,0,-3,0,1,-2,2,2,-1,-3,0,-1,0,0,-12.6875,-12.6875,-12.6875,48.875,48.875,48.875,6.462656,3.099479,7.835959,6.946026,3.113628,6.470576,-0.1671911,-0.4159948,1.403667,0.2491578,-0.4228778,1.430767,0.07627991,0.3939137,1.497238,-0.2067359,-0.4345781,1.398475,0.2018653,-0.4084042,1.394551,0.04704824,-0.05310418,1.502868,0.04382654,-0.3651184,1.483688,-0.1342744,0.1326497,1.498223,-0.03464429,-0.3545866,1.44585,-0.2020036,-0.1332595,1.513986,0.2718543,-0.1483301,1.54287,NA,NA,NotTracked,NotTracked,
0.9057617,0.2988281,0.2353516,0.8823242,0.2788086,0.09619141,0,-2,-1,-2,-1,-1,-1,-1,2,0,-1,0,1,1,1,2,-13.1875,-13.1875,-13.1875,35.0625,35.0625,35.0625,6.474538,3.09207,7.801075,6.98916,3.11941,6.505195,-0.1661468,-0.4146916,1.403908,0.2479412,-0.4219993,1.43023,0.07914092,0.3934199,1.496532,-0.2064977,-0.4311501,1.399064,0.1988531,-0.4216216,1.39115,0.04745251,-0.05307574,1.502717,0.04506619,-0.3648545,1.48388,-0.1337397,0.1327183,1.495824,-0.03344982,-0.3543294,1.445516,-0.2022833,-0.132852,1.511358,0.2710427,-0.149196,1.544322,NA,NA,NotTracked,NotTracked,
0.9179688,0.300293,0.2231445,0.3759766,0.215332,-0.6757813,-3,-1,-3,0,-2,0,0,0,-4,-2,0,2,0,-1,0,-2,-17.125,-17.125,-17.125,26.1875,26.1875,26.1875,6.46613,3.084476,7.767712,7.114751,3.095578,6.437274,-0.1655961,-0.4147818,1.402964,0.2464902,-0.4218567,1.431046,0.08141172,0.3931789,1.496109,-0.2024836,-0.4443347,1.3922,0.1982819,-0.4133607,1.391815,0.04763937,-0.05301933,1.502601,0.04587146,-0.3648015,1.484069,-0.1331542,0.132909,1.492902,-0.03264491,-0.3542876,1.445081,-0.2029621,-0.131932,1.507593,0.2703589,-0.1498692,1.544891,NA,NA,NotTracked,NotTracked,
0.9301758,0.2910156,0.2050781,0.621582,0.3398438,-0.4072266,-1,0,-2,1,-1,-2,-1,0,1,-1,0,-1,-5,-5,-1,1,-10.5625,-10.5625,-10.5625,-13,-13,-13,6.461168,3.081824,7.749656,7.192521,3.087632,6.35113,-0.1648253,-0.4169188,1.400144,0.2474765,-0.4215921,1.433337,0.08267541,0.3931994,1.495888,-0.2031445,-0.4449236,1.389187,0.2008785,-0.4154901,1.395334,0.04791294,-0.05296471,1.50255,0.04678603,-0.3648004,1.48443,-0.1328383,0.1330667,1.490749,-0.03190972,-0.3542461,1.445017,-0.2033706,-0.1316122,1.505146,0.2697526,-0.1504991,1.545523,NA,NA,NotTracked,NotTracked,
0.9267578,0.2807617,0.1938477,0.5883789,0.3369141,-0.3510742,0,-1,-1,-1,1,-1,-1,-1,9,-1,0,0,3,0,1,12,-6.8125,-6.8125,-6.8125,-6.0625,-6.0625,-6.0625,6.470778,3.082229,7.723562,7.19828,3.088187,6.31434,-0.162627,-0.4147018,1.398763,0.248262,-0.4248713,1.435699,0.08376276,0.3931622,1.495481,-0.204449,-0.4390543,1.394524,0.1992929,-0.4259602,1.394278,0.04828661,-0.0528085,1.502568,0.04768733,-0.3646239,1.484856,-0.1326005,0.1330549,1.488962,-0.03109175,-0.3540955,1.445028,-0.2035929,-0.1313708,1.503014,0.2692091,-0.1506393,1.546316,NA,NA,NotTracked,NotTracked,
0.921875,0.2773438,0.2124023,1.466309,0.4936523,0.2241211,-2,-2,-3,-2,0,-2,-1,-1,-4,-2,1,-2,0,-2,-2,-3,-6.375,-6.375,-6.375,2.25,2.25,2.25,6.483362,3.080402,7.696265,7.161116,3.08453,6.3428,-0.1618419,-0.415106,1.397056,0.2488741,-0.4266769,1.436539,0.08468109,0.3930341,1.495196,-0.2043728,-0.4289083,1.3946,0.1991262,-0.43319,1.39325,0.04855361,-0.05273547,1.502494,0.04854791,-0.3645667,1.48514,-0.1323458,0.1330323,1.487012,-0.03020889,-0.3540193,1.444831,-0.20391,-0.1299819,1.500445,0.2686914,-0.150787,1.54777,NA,NA,NotTracked,NotTracked,
0.9213867,0.3139648,0.2460938,1.596191,0.4482422,0.5541992,-1,-1,-2,-1,-1,-1,-1,-2,-3,-1,-2,-2,-10,-5,0,-1,-12,-12,-12,3.375,3.375,3.375,6.494556,3.077622,7.667797,7.182261,3.084339,6.325197,-0.1620058,-0.4140469,1.397103,0.2485206,-0.4263255,1.437659,0.08606612,0.3926972,1.494329,-0.2040324,-0.4376261,1.39545,0.199011,-0.4242518,1.393658,0.04871884,-0.05270952,1.502519,0.04947989,-0.3646487,1.48546,-0.132029,0.1328239,1.485873,-0.02925463,-0.3540233,1.444535,-0.2040603,-0.1298525,1.498511,0.2679706,-0.1512011,1.549304,NA,NA,NotTracked,NotTracked,
0.9521484,0.2919922,0.2280273,0.8608398,0.3193359,0.005371094,-2,0,-1,1,0,0,0,-3,-1,0,-1,-3,-7,-2,0,-3,-20.1875,-20.1875,-20.1875,-37.8125,-37.8125,-37.8125,6.486267,3.078781,7.642859,7.274694,3.100037,6.200122,-0.1605933,-0.4145243,1.395607,0.2503319,-0.428055,1.439452,0.08793528,0.3917302,1.492505,-0.2026838,-0.4306945,1.396479,0.2002734,-0.4200806,1.397174,0.04896071,-0.05278798,1.502614,0.05064324,-0.3647872,1.485848,-0.1316832,0.1329149,1.48479,-0.02811676,-0.3541641,1.444247,-0.2040611,-0.1293873,1.496606,0.2673798,-0.1517751,1.551546,NA,NA,NotTracked,NotTracked,
0.9047852,0.3422852,0.2128906,0.8969727,0.3579102,0.1186523,-1,-1,0,1,1,-3,-2,-2,-2,-3,-1,2,4,4,0,-2,-6,-6,-6,-49.3125,-49.3125,-49.3125,6.513809,3.081652,7.593633,7.225252,3.103698,6.163738,-0.1585044,-0.4141092,1.393038,0.2523152,-0.4282626,1.442869,0.08931051,0.3912714,1.491535,-0.2027437,-0.4352716,1.394779,0.2013943,-0.4191966,1.398637,0.04914292,-0.05279132,1.502693,0.05189784,-0.3648878,1.486266,-0.1311073,0.1327248,1.482455,-0.02682949,-0.3541853,1.443821,-0.2040027,-0.1281602,1.494123,0.267041,-0.152178,1.555791,NA,NA,NotTracked,NotTracked,
0.9223633,0.3217773,0.2436523,0.8999023,0.3823242,0.1572266,-3,-1,-2,-2,-2,-3,1,-1,1,-1,-1,-1,-2,-6,-2,-2,-28.625,-28.625,-28.625,-17.0625,-17.0625,-17.0625,6.505984,3.077892,7.56188,7.188651,3.10497,6.122986,-0.1570973,-0.4139311,1.391657,0.2566309,-0.4202653,1.454358,0.08975,0.3911543,1.491405,-0.2010274,-0.4375929,1.394494,0.2077505,-0.3945726,1.409617,0.04962394,-0.05277595,1.502858,0.05369021,-0.3649148,1.486847,-0.1302853,0.1323961,1.480062,-0.02509446,-0.3542526,1.443433,-0.2037258,-0.1274545,1.49063,0.266915,-0.1524739,1.561144,NA,NA,NotTracked,NotTracked,
