ALX,ALY,ALZ,ARX,ARY,ARZ,EMG0L,EMG1L,EMG2L,EMG3L,EMG4L,EMG5L,EMG6L,EMG7L,EMG0R,EMG1R,EMG2R,EMG3R,EMG4R,EMG5R,EMG6R,EMG7R,GLX,GLY,GLZ,GRX,GRY,GRZ,ORL,OPL,OYL,ORR,OPR,OYR,LHNX,LHNY,LHNZ,RHNX,RHNY,RHNZ,HX,HY,HZ,LTX,LTY,LTZ,RTX,RTY,RTZ,SpineMidX,SpineMidY,SpineMidZ,SpineBaseX,SpineBaseY,SpineBaseZ,ShoulderLeftX,ShoulderLeftY,ShoulderLeftZ,ShoulderRightX,ShoulderRightY,ShoulderRightZ,ElbowLeftX,ElbowLeftY,ElbowLeftZ,ElbowRightX,ElbowRightY,ElbowRightZ,Myo_Pose_left,Myo_Pose_Right,Kinect_pose_left,Kinect_pose_right
0.925293,0.2832031,0.2324219,0.9428711,0.2885742,0.03564453,-1,-1,-1,0,0,-2,-2,-2,-1,-1,-1,-1,-1,1,0,-1,7.1875,7.1875,7.1875,6.375,6.375,6.375,6.393918,3.081447,6.671973,7.418345,2.9504,5.1384,-0.1722422,-0.4330005,1.443536,0.2474404,-0.4234702,1.452586,0.07649474,0.3975435,1.541199,-0.2227136,-0.4425172,1.464654,0.2860796,-0.4305007,1.450583,0.04642342,-0.04987246,1.535556,0.04001941,-0.3612606,1.517083,-0.1332261,0.1345859,1.539672,-0.03864839,-0.3507791,1.483812,-0.1975423,-0.1394654,1.553992,0.2780088,-0.1498177,1.549984,NA,NA,NotTracked,NotTracked,
0.9174805,0.2651367,0.2363281,0.9257813,0.2890625,0.01660156,-2,-2,0,1,-3,-1,0,-1,0,-1,-1,0,7,3,1,0,2.25,2.25,2.25,-0.3125,-0.3125,-0.3125,6.398622,3.078729,6.675669,7.427327,2.955809,5.132298,-0.1720729,-0.4333732,1.44333,0.2476984,-0.4223517,1.450293,0.07612038,0.3977463,1.541001,-0.2206808,-0.4389576,1.459741,0.2882883,-0.4501617,1.441096,0.04643623,-0.04984087,1.534456,0.04010509,-0.3614084,1.515686,-0.133329,0.1344148,1.53931,-0.03854894,-0.3509219,1.48266,-0.1974864,-0.1396456,1.553436,0.2780068,-0.1498814,1.547865,NA,NA,NotTracked,NotTracked,
0.9208984,0.2797852,0.2529297,0.9335938,0.2548828,0.04052734,-1,-1,-1,-2,-2,-1,-2,-1,-2,-2,-1,0,3,-1,-1,-1,-1.8125,-1.8125,-1.8125,3.875,3.875,3.875,6.395487,3.074479,6.678305,7.425426,2.95539,5.137287,-0.171264,-0.4331514,1.443043,0.2476948,-0.4223585,1.448187,0.07577062,0.3979533,1.540608,-0.2192751,-0.4501342,1.450513,0.2854692,-0.4425927,1.442403,0.0463766,-0.04981774,1.533312,0.04012014,-0.361456,1.514638,-0.1333546,0.1343511,1.538701,-0.03852029,-0.3509803,1.481666,-0.1972321,-0.1399832,1.553135,0.2781607,-0.149844,1.54583,NA,NA,NotTracked,NotTracked,
0.9370117,0.2919922,0.2226563,0.9433594,0.2558594,0.02636719,-1,-2,-2,-1,-3,-1,1,-2,0,-1,-2,0,5,3,0,1,-0.125,-0.125,-0.125,0.4375,0.4375,0.4375,6.388896,3.077224,6.681225,7.436992,2.952115,5.127386,-0.171805,-0.4318923,1.442735,0.2477427,-0.424365,1.446151,0.07560755,0.3980274,1.540058,-0.2204525,-0.4467177,1.456889,0.2861921,-0.4514827,1.435686,0.04639109,-0.04984691,1.532205,0.04014859,-0.3615404,1.513365,-0.1333851,0.1341326,1.538436,-0.0384825,-0.3510787,1.480538,-0.1968641,-0.1404388,1.552647,0.2783796,-0.1497579,1.544072,NA,NA,NotTracked,NotTracked,
0.9150391,0.2788086,0.2143555,0.9257813,0.2695313,0.02636719,0,-1,-1,-2,-2,-3,-2,-1,-1,-2,-2,0,-5,-3,-1,0,5.6875,5.6875,5.6875,2.1875,2.1875,2.1875,6.397508,3.082098,6.679816,7.446622,2.951164,5.118938,-0.1706371,-0.4323749,1.441909,0.2485871,-0.4246111,1.446538,0.07552335,0.3981612,1.539826,-0.2198228,-0.4393472,1.458273,0.2878101,-0.4475799,1.439323,0.04659488,-0.04987679,1.53165,0.04045255,-0.3616553,1.512499,-0.1333551,0.1339411,1.538274,-0.03820039,-0.3513086,1.479865,-0.1965931,-0.1406638,1.552544,0.2786633,-0.1498532,1.543012,NA,NA,NotTracked,NotTracked,
0.9228516,0.2700195,0.2426758,0.9331055,0.265625,0.04785156,-1,-2,0,-2,0,1,-2,-1,-1,0,-1,0,2,-1,-3,-2,4.25,4.25,4.25,1.6875,1.6875,1.6875,6.408384,3.083193,6.678062,7.443282,2.948829,5.125283,-0.1705127,-0.4322675,1.441518,0.2492964,-0.4249664,1.445451,0.07547373,0.3982664,1.539286,-0.2193515,-0.4365321,1.460875,0.2918798,-0.4554153,1.437006,0.04690065,-0.04997608,1.530856,0.04070996,-0.3617998,1.511823,-0.1332174,0.1338749,1.538006,-0.03796033,-0.3514473,1.479375,-0.1963353,-0.1410884,1.55237,0.2791723,-0.1500002,1.54174,NA,NA,NotTracked,NotTracked,
0.9370117,0.2822266,0.2666016,0.9780273,0.3129883,-0.01611328,-2,-2,0,0,0,-1,0,-1,-21,-22,-10,-4,-4,-1,-1,-13,-2.0625,-2.0625,-2.0625,-12.9375,-12.9375,-12.9375,6.400015,3.082031,6.686208,7.438727,2.94968,5.120766,-0.1702457,-0.4318501,1.441498,0.2496834,-0.4251949,1.444884,0.07547441,0.3984241,1.538825,-0.2174502,-0.4387778,1.455603,0.2883946,-0.4654069,1.433875,0.04727919,-0.05000574,1.530161,0.04104817,-0.3618385,1.511111,-0.1329768,0.1337148,1.53767,-0.03763916,-0.3514876,1.478798,-0.1955576,-0.1413165,1.551903,0.2796068,-0.1499765,1.540786,NA,NA,NotTracked,NotTracked,
0.9482422,0.2861328,0.2436523,1.134277,0.5800781,0.05322266,-1,0,0,0,-2,-1,0,1,0,-3,0,-2,-6,-5,-10,-16,-2.5,-2.5,-2.5,-80.125,-80.125,-80.125,6.386016,3.080512,6.696448,7.285073,3.006115,5.185354,-0.1707995,-0.43193,1.441391,0.2502036,-0.4235918,1.443212,0.07563377,0.3985737,1.538212,-0.2201214,-0.4396603,1.461167,0.289158,-0.4521906,1.425565,0.04769686,-0.05005709,1.52959,0.04135211,-0.3619319,1.51064,-0.1326533,0.1335262,1.53726,-0.0373246,-0.3515674,1.478399,-0.1947973,-0.1413063,1.551718,0.2801875,-0.1504048,1.540251,NA,NA,NotTracked,NotTracked,
0.9169922,0.2475586,0.222168,1.281738,1.014648,0.2651367,0,-2,-1,1,0,-2,-2,-1,0,-9,-33,-14,-3,0,2,0,-3,-3,-3,-26.875,-26.875,-26.875,6.366909,3.081197,6.710548,6.977947,3.30203,5.41521,-0.1700863,-0.4319262,1.441244,0.2495306,-0.41402,1.428197,0.0759906,0.3987471,1.537453,-0.2203149,-0.4382188,1.461667,0.2742006,-0.4421184,1.380168,0.04826235,-0.05007922,1.528978,0.04160389,-0.3619425,1.510231,-0.1322402,0.1334192,1.536923,-0.03703406,-0.3515495,1.477829,-0.1941671,-0.1411198,1.551211,0.2827827,-0.1506746,1.540607,NA,NA,NotTracked,NotTracked,
0.9199219,0.3022461,0.2148438,1.210449,1.019531,0.5615234,-2,-2,-1,0,0,-1,-2,-1,-1,-27,-58,-27,-12,-5,-5,-2,4.5625,4.5625,4.5625,-158.4375,-158.4375,-158.4375,6.376917,3.078203,6.712996,6.636452,3.724298,5.59617,-0.1700348,-0.4325375,1.441747,0.2540901,-0.3650048,1.361479,0.07611363,0.3988741,1.536512,-0.220191,-0.4404979,1.461916,0.2644508,-0.37057,1.311955,0.04842219,-0.05010985,1.52848,0.04157737,-0.3619378,1.510017,-0.1317531,0.1331463,1.536294,-0.03707779,-0.3515167,1.477563,-0.1937509,-0.1410851,1.55078,0.2914777,-0.1446575,1.540524,NA,NA,NotTracked,Lasso,
0.925293,0.3056641,0.269043,0.7456055,0.5595703,0.8999023,-2,0,0,-1,0,-1,-1,-2,2,-35,-112,-47,-10,-3,-1,1,-10.875,-10.875,-10.875,-81.1875,-81.1875,-81.1875,6.380064,3.069565,6.700284,6.363335,4.288443,5.723935,-0.1689409,-0.4318162,1.442205,0.2430892,-0.2534254,1.280346,0.07630782,0.398998,1.535101,-0.2213108,-0.4224916,1.472118,0.2493496,-0.2211995,1.267333,0.04845859,-0.04998896,1.528054,0.04126012,-0.3617616,1.509823,-0.1312141,0.1330752,1.535807,-0.03743546,-0.3512289,1.477377,-0.1932768,-0.1407562,1.550549,0.3126465,-0.111602,1.540327,NA,NA,NotTracked,Unknown,
0.921875,0.2797852,0.2963867,0.2216797,0.4594727,0.6279297,-1,1,-1,0,0,-1,0,-1,-1,-6,-14,-18,-5,-7,-4,-1,-17.6875,-17.6875,-17.6875,19.5,19.5,19.5,6.357093,3.069015,6.697141,6.316367,4.963256,5.831126,-0.1684967,-0.4316611,1.441454,0.2307528,-0.09453731,1.24033,0.0765955,0.3990458,1.5339,-0.2163841,-0.47839,1.4565,0.2039125,-0.09754242,1.254846,0.04857699,-0.05001741,1.527899,0.04114255,-0.3617247,1.50981,-0.1303251,0.133099,1.535015,-0.03761664,-0.3511328,1.477351,-0.1926385,-0.1405338,1.550166,0.3486336,-0.09771972,1.484112,NA,NA,NotTracked,Unknown,
0.9262695,0.2792969,0.2392578,-0.2895508,0.3383789,0.4746094,0,-1,-2,-2,0,-2,0,-1,-4,1,20,2,1,0,-1,-3,-20.0625,-20.0625,-20.0625,96.375,96.375,96.375,6.332358,3.068863,6.690209,6.5292,5.868592,6.058992,-0.1687216,-0.4285142,1.440016,0.2196319,0.07250376,1.248672,0.07711579,0.3990138,1.531952,-0.218538,-0.44186,1.457188,0.1829187,0.05627486,1.241692,0.04879117,-0.0502345,1.527906,0.04115275,-0.3619565,1.509904,-0.1294446,0.1329559,1.534166,-0.0377216,-0.3514873,1.477678,-0.1924347,-0.1393421,1.548913,0.3307462,-0.09182263,1.445812,NA,NA,NotTracked,Closed,
0.921875,0.2421875,0.2172852,-0.5288086,0.4145508,0.4072266,0,-2,-2,-1,-1,0,-2,-2,-4,-14,-8,0,6,5,-2,-2,-18.6875,-18.6875,-18.6875,96.75,96.75,96.75,6.309117,3.068935,6.667933,6.931429,6.39874,6.399134,-0.1677653,-0.4275409,1.437823,0.2235493,0.1685932,1.314437,0.07729758,0.3986223,1.530031,-0.2215471,-0.4145569,1.465765,0.21068,0.1280437,1.325833,0.04914345,-0.05085,1.527989,0.04093587,-0.3631294,1.509819,-0.1283752,0.1329029,1.532373,-0.03828969,-0.3523445,1.477799,-0.1922444,-0.1387419,1.547155,0.346092,-0.08099408,1.420244,NA,NA,NotTracked,Unknown,
0.9169922,0.2231445,0.2006836,-0.6557617,0.1201172,0.07080078,-1,-1,-1,-1,0,-3,-2,-1,2,-9,2,1,0,0,1,1,-9.5625,-9.5625,-9.5625,44.5,44.5,44.5,6.302052,3.068089,6.651996,7.498081,6.723205,6.967559,-0.1677693,-0.42737,1.437032,0.2132736,0.2347975,1.366349,0.07684099,0.3981364,1.527525,-0.2190439,-0.4484253,1.456333,0.1918202,0.2051918,1.355,0.04932086,-0.05011482,1.527734,0.04026215,-0.3615143,1.509583,-0.1272238,0.1331028,1.531281,-0.03968632,-0.3505645,1.477446,-0.1923653,-0.1343259,1.544969,0.344197,-0.05298573,1.372777,NA,NA,NotTracked,Unknown,
0.9370117,0.234375,0.2094727,-0.7749023,0.3520508,-0.184082,0,-2,-1,-1,-2,-2,-1,-2,-4,-11,-22,-10,-3,-3,-4,-6,1.375,1.375,1.375,-4.625,-4.625,-4.625,6.304488,3.065066,6.646155,8.33882,6.801528,7.843138,-0.1674204,-0.4268278,1.435499,0.1689851,0.3138872,1.41989,0.07661248,0.3971851,1.524916,-0.217593,-0.4358651,1.453686,0.1150705,0.2822642,1.4427,0.05018097,-0.0492848,1.527559,0.03979662,-0.3603584,1.508908,-0.1258727,0.1331834,1.529803,-0.04068606,-0.3492613,1.476736,-0.1918988,-0.1320121,1.544114,0.3496929,-0.00343044,1.331803,NA,NA,NotTracked,Unknown,
0.940918,0.2426758,0.2446289,-0.6103516,0.3676758,-0.1376953,-2,-1,-2,0,-1,0,-1,2,11,17,-1,-2,-10,-8,-13,-6,5.875,5.875,5.875,-57.375,-57.375,-57.375,6.316055,3.061932,6.645339,8.459445,6.686574,8.069292,-0.1666563,-0.4272774,1.43694,0.1619408,0.3163239,1.433681,0.07648852,0.3958524,1.523413,-0.2159325,-0.4275415,1.455931,0.1317703,0.2830487,1.4629,0.05191338,-0.04834808,1.527291,0.03944179,-0.3598036,1.508349,-0.1246385,0.1328728,1.529958,-0.04117655,-0.3488857,1.476594,-0.1917759,-0.1318231,1.544006,0.344491,0.009904839,1.319899,NA,NA,NotTracked,NotTracked,
0.9228516,0.2470703,0.262207,-0.6772461,0.4169922,-0.4423828,-1,1,0,0,-2,-2,0,-1,-8,-13,-16,-3,-3,0,4,0,8,8,8,3.1875,3.1875,3.1875,6.322762,3.066633,6.650161,8.479479,6.628536,8.150044,-0.1668439,-0.427807,1.436404,0.1494015,0.2957853,1.440102,0.07613108,0.3947117,1.522606,-0.2186979,-0.4064243,1.467583,0.1034103,0.2526948,1.482524,0.05329121,-0.04788912,1.527264,0.03892658,-0.3596706,1.507684,-0.1242943,0.1326673,1.530232,-0.04164849,-0.3489302,1.476604,-0.1917129,-0.1312778,1.544057,0.3427636,0.01115084,1.316521,NA,NA,NotTracked,NotTracked,
0.9150391,0.2749023,0.2514648,-0.9951172,0.3618164,-0.1845703,1,-2,-2,-2,-1,-1,0,1,0,9,8,6,2,1,0,-3,7.125,7.125,7.125,21.0625,21.0625,21.0625,6.330415,3.073506,6.655352,8.370255,6.735394,7.982639,-0.1673254,-0.4278647,1.436875,0.1458227,0.3087914,1.43762,0.07520806,0.3941604,1.522525,-0.2167944,-0.4344658,1.454204,0.1072017,0.2575031,1.481101,0.05376989,-0.04774986,1.527187,0.03833245,-0.3593366,1.50692,-0.124175,0.1325487,1.530347,-0.04216784,-0.34883,1.476478,-0.1918242,-0.131048,1.544217,0.3413232,0.009658414,1.316056,NA,NA,NotTracked,NotTracked,
0.9399414,0.3120117,0.246582,-1.027832,0.4169922,-0.184082,0,-1,-1,-2,-2,-2,1,0,-5,-3,-5,4,27,6,1,1,3.125,3.125,3.125,-1.875,-1.875,-1.875,6.339415,3.079256,6.655872,8.263073,6.79527,7.839985,-0.1681455,-0.4280629,1.436957,0.1653815,0.2786172,1.410252,0.07395524,0.3938733,1.522563,-0.2182919,-0.4399478,1.450036,0.1467388,0.2559686,1.461375,0.05306949,-0.04764278,1.526687,0.03774644,-0.3591015,1.506206,-0.1241427,0.1324683,1.529818,-0.0428674,-0.3487495,1.476151,-0.1918538,-0.1313334,1.544362,0.3370454,0.009961985,1.313108,NA,NA,NotTracked,NotTracked,
0.9287109,0.2827148,0.2607422,-0.9194336,0.418457,0.07568359,-2,-1,-2,0,-1,-2,0,-1,-7,-17,-6,-10,3,3,2,1,-4.375,-4.375,-4.375,-16.9375,-16.9375,-16.9375,6.344303,3.082451,6.647678,8.153438,6.78313,7.759257,-0.1677114,-0.4269938,1.436212,0.1315158,0.3314189,1.418227,0.07254264,0.393372,1.522442,-0.2161161,-0.4398129,1.446471,0.1161756,0.2897449,1.448,0.05240928,-0.04772215,1.526054,0.03743288,-0.3590212,1.505553,-0.124136,0.1322061,1.52975,-0.04324238,-0.3487758,1.475933,-0.1920951,-0.1316339,1.544496,0.3314363,0.0143886,1.306754,NA,NA,NotTracked,NotTracked,
0.9135742,0.2641602,0.253418,-0.8432617,0.4160156,-0.168457,-1,-1,0,-1,-2,-1,-2,-1,16,11,-5,1,3,0,-2,-7,-4.875,-4.875,-4.875,-15.25,-15.25,-15.25,6.337785,3.082996,6.648285,8.319436,6.733261,7.994267,-0.1683951,-0.4271742,1.436844,0.135076,0.3079809,1.427751,0.07218379,0.3931382,1.522489,-0.2186793,-0.4515849,1.448818,0.1171433,0.2707583,1.462773,0.05271148,-0.04768586,1.526087,0.03695985,-0.3589652,1.505286,-0.1241406,0.1319944,1.529929,-0.04385573,-0.34873,1.476025,-0.1922882,-0.1321608,1.544488,0.3248537,0.02103139,1.299276,NA,NA,NotTracked,NotTracked,
0.9145508,0.2641602,0.2314453,-0.7695313,0.3330078,-0.5229492,-1,-1,-1,-1,-1,-2,-2,-1,-5,8,6,1,6,0,-3,-10,-4.6875,-4.6875,-4.6875,47.9375,47.9375,47.9375,6.332074,3.080778,6.643811,8.556694,6.712332,8.229715,-0.168699,-0.4274644,1.435802,0.1448674,0.2559565,1.442369,0.0720939,0.3927687,1.522419,-0.2209528,-0.4304821,1.4608,0.09068026,0.1781892,1.468333,0.05297645,-0.04759284,1.52609,0.03651945,-0.358976,1.504977,-0.1242663,0.1320117,1.529818,-0.04432496,-0.3488018,1.475957,-0.1924979,-0.1319967,1.544469,0.3257637,0.01965171,1.300052,NA,NA,NotTracked,NotTracked,
0.9311523,0.269043,0.2333984,-1.016602,0.3427734,-0.2070313,-1,-2,0,0,-1,-1,-1,-2,-18,-8,-6,-5,-6,-3,-6,-26,-0.125,-0.125,-0.125,18.4375,18.4375,18.4375,6.337458,3.080408,6.636505,8.425043,6.779902,8.014306,-0.1676074,-0.423751,1.435823,0.1366003,0.3138895,1.424692,0.07176404,0.3925855,1.522425,-0.2139389,-0.4328728,1.438789,0.1068223,0.2765817,1.451857,0.05258311,-0.04765107,1.525838,0.03626586,-0.3590157,1.504805,-0.1243168,0.132098,1.529223,-0.04467978,-0.3488916,1.475947,-0.1927798,-0.1317523,1.544373,0.3257651,0.01944268,1.30033,NA,NA,NotTracked,NotTracked,
0.9282227,0.2705078,0.2397461,-1.028809,0.440918,-0.03710938,-1,-1,-1,-1,-1,-1,-1,-1,1,2,3,-10,-5,-1,-2,2,-2.125,-2.125,-2.125,16.875,16.875,16.875,6.344553,3.080897,6.625893,8.199152,6.830038,7.717768,-0.1678382,-0.4237424,1.435603,0.1419343,0.3201527,1.419593,0.07157014,0.3925072,1.522389,-0.215264,-0.4325565,1.444011,0.09765746,0.2672809,1.467929,0.05193598,-0.04763843,1.525394,0.036319,-0.358932,1.504568,-0.1242356,0.1316692,1.528873,-0.04471618,-0.3488746,1.475696,-0.1930555,-0.1322063,1.544142,0.3252949,0.0214427,1.299228,NA,NA,NotTracked,NotTracked,
0.9272461,0.300293,0.2573242,-0.9228516,0.3349609,0.07666016,0,-4,-2,0,0,-2,0,-3,-9,-11,-12,-14,-9,-6,0,-5,-2.3125,-2.3125,-2.3125,-16.6875,-16.6875,-16.6875,6.342718,3.077757,6.618708,8.166662,6.817987,7.703641,-0.1681586,-0.4238322,1.43661,0.1416829,0.3226217,1.419104,0.07115698,0.392345,1.522387,-0.2156386,-0.4255834,1.443857,0.09700827,0.2682454,1.465218,0.05132143,-0.04776165,1.525085,0.03629345,-0.3588953,1.50445,-0.1241781,0.1316193,1.528416,-0.04482238,-0.3488439,1.475391,-0.1932771,-0.132351,1.544005,0.3240013,0.02358377,1.297636,NA,NA,NotTracked,NotTracked,
0.9189453,0.2817383,0.2456055,-0.8652344,0.394043,-0.2905273,-2,-1,0,0,-1,-1,-1,0,3,-9,-8,-4,-1,-1,0,17,-7.5625,-7.5625,-7.5625,-44.5,-44.5,-44.5,6.340301,3.079808,6.612279,8.408598,6.740541,8.060017,-0.1675099,-0.4231586,1.436411,0.1161339,0.3591364,1.431095,0.07110726,0.3923128,1.522378,-0.2144514,-0.4253893,1.443144,0.1576641,0.3534259,1.499342,0.05163145,-0.0475656,1.525306,0.03621446,-0.358851,1.504438,-0.1241772,0.1316423,1.528258,-0.04495959,-0.3487803,1.475383,-0.1935211,-0.1322161,1.543816,0.3220674,0.0248045,1.296482,NA,NA,NotTracked,NotTracked,
0.9111328,0.2597656,0.2358398,-0.8154297,0.4389648,-0.3369141,-3,-1,1,0,-1,-2,-1,-2,2,-2,-5,-2,-1,0,-2,-9,0.0625,0.0625,0.0625,69,69,69,6.34154,3.078584,6.607879,8.619215,6.748004,8.212381,-0.166558,-0.4230681,1.434993,0.1368662,0.3169077,1.44502,0.07116184,0.3922134,1.522408,-0.211932,-0.4433823,1.436015,0.1008318,0.2618667,1.476522,0.0524024,-0.04727282,1.525569,0.03622138,-0.3587984,1.504437,-0.1242668,0.1317163,1.528381,-0.04489601,-0.3487405,1.47547,-0.1936369,-0.1316585,1.543604,0.3309098,0.006461594,1.295371,NA,NA,NotTracked,NotTracked,
0.9448242,0.2416992,0.2382813,-0.7402344,0.2719727,-0.152832,-1,0,0,-1,0,-2,0,0,-3,0,-1,-2,-2,-2,1,-6,-2.8125,-2.8125,-2.8125,8.0625,8.0625,8.0625,6.340625,3.074395,6.599715,8.419831,6.800903,7.956148,-0.1670338,-0.4236249,1.436116,0.1310209,0.3320197,1.434939,0.07119875,0.3922451,1.522367,-0.2127308,-0.4410157,1.437374,0.1003498,0.2742069,1.456971,0.05282791,-0.04701281,1.525789,0.0362424,-0.358633,1.504462,-0.1242738,0.13185,1.527915,-0.04484364,-0.3486356,1.475486,-0.1937659,-0.1313035,1.543319,0.3341651,0.001411462,1.301681,NA,NA,NotTracked,NotTracked,
0.9169922,0.2436523,0.2304688,-0.6420898,0.3833008,-0.06787109,1,-1,-2,-1,-1,-1,-2,-1,0,1,1,-1,-11,-4,0,-5,6.3125,6.3125,6.3125,-0.25,-0.25,-0.25,6.341649,3.069738,6.602046,8.084169,6.798131,7.579921,-0.1670186,-0.4240604,1.435923,0.1658995,0.2715937,1.404654,0.07101287,0.3924968,1.522226,-0.2113808,-0.4565714,1.429889,0.1495106,0.251732,1.44525,0.05242361,-0.04688336,1.525783,0.03619573,-0.3585372,1.504566,-0.1243273,0.1319191,1.527758,-0.04487637,-0.3485681,1.475539,-0.1938627,-0.130996,1.543098,0.3383012,-0.003214468,1.308089,NA,NA,NotTracked,NotTracked,
0.9179688,0.2543945,0.2163086,-0.6269531,0.293457,0.07568359,-1,-1,0,-2,1,-2,-1,0,1,0,1,0,-1,2,-1,-2,10.9375,10.9375,10.9375,0.4375,0.4375,0.4375,6.351025,3.067811,6.607717,7.656048,6.715333,7.106373,-0.1676154,-0.4249811,1.437511,0.1735635,0.254494,1.38212,0.06961013,0.3936554,1.522531,-0.2156968,-0.4429865,1.442992,0.1464436,0.2582529,1.421778,0.05150863,-0.04674599,1.525759,0.0360105,-0.3583389,1.504831,-0.1247007,0.1320437,1.527709,-0.04502111,-0.3483798,1.475608,-0.1938742,-0.1313805,1.543004,0.3468893,-0.02963978,1.340545,NA,NA,NotTracked,Unknown,
0.9394531,0.2646484,0.230957,-0.6484375,0.3691406,0.1650391,-1,1,-1,-1,0,0,0,-1,-3,-1,-1,3,3,2,-2,-8,17.625,17.625,17.625,-55.75,-55.75,-55.75,6.375992,3.06615,6.615411,7.178897,6.455359,6.623726,-0.1676768,-0.426144,1.438558,0.1888867,0.183614,1.335215,0.06684221,0.3959723,1.52374,-0.2120748,-0.4421571,1.437773,0.1729264,0.1506139,1.3385,0.05069849,-0.04684084,1.525829,0.03563146,-0.3584015,1.505145,-0.1279318,0.1320101,1.529327,-0.04533213,-0.3484864,1.475954,-0.1941503,-0.1321626,1.543149,0.3418339,-0.06928843,1.405328,NA,NA,NotTracked,Unknown,
0.9482422,0.2817383,0.2431641,-0.6337891,0.4750977,0.2890625,-2,-2,-1,-1,-1,-1,-3,-1,-8,-2,-1,1,3,-2,-2,-2,15.4375,15.4375,15.4375,-78.6875,-78.6875,-78.6875,6.388359,3.063239,6.632172,6.703942,5.832207,6.185349,-0.1671353,-0.4275054,1.438652,0.1778934,0.08018992,1.319292,0.06428277,0.3973054,1.524846,-0.2139401,-0.4320837,1.442786,0.1448009,0.05694909,1.397077,0.0484014,-0.04832396,1.525641,0.03585999,-0.3599286,1.505518,-0.1307353,0.131547,1.530194,-0.04452634,-0.3504669,1.476849,-0.1946207,-0.137282,1.543463,0.3302162,-0.08610206,1.439539,NA,NA,NotTracked,Closed,
0.9277344,0.3061523,0.2646484,-0.08251953,0.597168,0.3730469,-2,-1,-2,0,-1,-1,-1,-1,-3,-3,-5,-10,-15,-2,-3,1,8.1875,8.1875,8.1875,-11.75,-11.75,-11.75,6.385636,3.063047,6.653931,6.509038,5.003344,5.916784,-0.1691276,-0.4309834,1.43979,0.1842888,-0.04223908,1.294814,0.06176439,0.3984441,1.525879,-0.2182389,-0.4582721,1.448222,0.138095,-0.03867078,1.385429,0.04740021,-0.0484132,1.525303,0.03613289,-0.3599012,1.505766,-0.1325479,0.1311616,1.530772,-0.04382263,-0.3506284,1.477103,-0.1950062,-0.1398985,1.544175,0.3210907,-0.08330386,1.452246,NA,NA,NotTracked,Unknown,
0.8989258,0.3261719,0.2661133,0.4594727,1.01416,0.5224609,-1,0,-1,-1,-1,-3,-2,-2,-4,1,-2,-3,0,-2,-4,-9,3.5625,3.5625,3.5625,28.5625,28.5625,28.5625,6.381727,3.067603,6.667366,6.578778,4.392237,5.780361,-0.1700823,-0.4305978,1.440276,0.1859743,-0.1939874,1.284033,0.05864053,0.399254,1.527248,-0.2218635,-0.4186091,1.463946,0.2150817,-0.1583795,1.256846,0.04578961,-0.04835033,1.52468,0.03599475,-0.3598473,1.505695,-0.1338699,0.1309659,1.531367,-0.04387241,-0.3505425,1.476666,-0.1948265,-0.1424243,1.544509,0.3431546,-0.09469767,1.504508,NA,NA,NotTracked,Unknown,
0.921875,0.2958984,0.2553711,0.9423828,0.8476563,0.5136719,0,-1,-2,-2,-3,0,0,-2,5,5,3,2,1,1,2,2,-10.125,-10.125,-10.125,-1,-1,-1,6.377864,3.077791,6.660088,6.674911,3.864227,5.638955,-0.1700957,-0.4315391,1.43729,0.2083353,-0.3179028,1.357831,0.05608677,0.3995676,1.528832,-0.2212885,-0.4431392,1.461467,0.2472716,-0.3057161,1.270833,0.04426378,-0.04845455,1.523839,0.03513701,-0.3598706,1.505053,-0.1350328,0.1306011,1.531593,-0.04453819,-0.350473,1.475452,-0.1942905,-0.1448063,1.544215,0.2951893,-0.1131966,1.538331,NA,NA,NotTracked,Unknown,
0.9257813,0.2558594,0.2402344,1.233887,0.7226563,0.3647461,0,-2,0,0,-1,-1,-2,-1,-3,-1,1,1,3,0,1,-5,-9.9375,-9.9375,-9.9375,-8.875,-8.875,-8.875,6.371381,3.082459,6.647514,6.920833,3.347658,5.326391,-0.1693265,-0.4317645,1.434077,0.2481051,-0.3798552,1.383079,0.05516241,0.3996861,1.53017,-0.2178029,-0.451957,1.445,0.269054,-0.3910445,1.330333,0.04396541,-0.04871551,1.52357,0.03539572,-0.3603629,1.504848,-0.1357038,0.1301849,1.531199,-0.04397621,-0.3510757,1.474622,-0.1939863,-0.1460108,1.543502,0.2907835,-0.1333933,1.540221,NA,NA,NotTracked,NotTracked,
0.940918,0.2617188,0.2285156,1.214355,0.559082,0.1923828,-1,-1,-2,-1,-1,-1,-1,-2,0,1,0,-2,-3,-3,-3,-2,-16.1875,-16.1875,-16.1875,4.3125,4.3125,4.3125,6.367022,3.078678,6.626524,7.266158,3.095874,4.92681,-0.169705,-0.4314236,1.433824,0.2544296,-0.4225088,1.424768,0.0553755,0.3997742,1.531232,-0.2169195,-0.4465815,1.442538,0.3007354,-0.4191427,1.401722,0.04411067,-0.04895489,1.523485,0.03674747,-0.3613296,1.504884,-0.1360209,0.1299769,1.530486,-0.04221715,-0.3522751,1.47399,-0.1939907,-0.1466365,1.542449,0.2879948,-0.1483181,1.540501,NA,NA,NotTracked,NotTracked,
0.9404297,0.2470703,0.2290039,1.15918,0.5229492,0.04443359,-2,0,-3,0,0,0,-1,-2,-3,-6,-6,1,3,-1,-2,0,-16.125,-16.125,-16.125,4.0625,4.0625,4.0625,6.348577,3.06533,6.604843,7.614606,2.99484,4.573651,-0.1690929,-0.4307881,1.433563,0.2643841,-0.4429305,1.446896,0.05699493,0.3999712,1.532984,-0.218332,-0.4434628,1.449812,0.3135126,-0.4446064,1.440333,0.04453689,-0.04905861,1.52353,0.03876814,-0.3616848,1.505344,-0.1360005,0.1299999,1.529423,-0.03991806,-0.3528102,1.473721,-0.1944192,-0.1463726,1.540252,0.2853566,-0.1553942,1.540824,NA,NA,NotTracked,NotTracked,
0.9394531,0.25,0.2148438,1.062012,0.3920898,0.07128906,-2,-1,-1,-2,0,-2,0,0,-3,-2,-1,3,3,3,-2,-1,-5.875,-5.875,-5.875,-20.5,-20.5,-20.5,6.343034,3.057662,6.593294,7.610105,2.96682,4.550136,-0.1700883,-0.4293503,1.433166,0.2656675,-0.4392172,1.457792,0.06010322,0.3995902,1.534506,-0.217465,-0.4412186,1.443835,0.3134888,-0.4337373,1.460619,0.04503506,-0.04914141,1.523507,0.03994739,-0.3618196,1.505604,-0.135343,0.1306813,1.52759,-0.03870639,-0.3529081,1.47349,-0.1951415,-0.1451026,1.538356,0.2836672,-0.1584216,1.542704,NA,NA,NotTracked,NotTracked,
0.9228516,0.2563477,0.2119141,0.8637695,0.3789063,0.08837891,0,-3,0,1,0,-1,-1,-1,1,-1,0,-2,-3,1,1,0,-3.9375,-3.9375,-3.9375,-32.3125,-32.3125,-32.3125,6.351683,3.047391,6.572651,7.33662,2.984785,4.780663,-0.1696567,-0.4274532,1.433917,0.259997,-0.4325024,1.457491,0.06317578,0.399261,1.536365,-0.216836,-0.4474095,1.440896,0.3050982,-0.4465588,1.455116,0.04526735,-0.04914905,1.523525,0.04055278,-0.3617848,1.5059,-0.1350606,0.1310193,1.526076,-0.03808023,-0.3528434,1.473364,-0.1953861,-0.1445228,1.537512,0.2820474,-0.1595326,1.54682,NA,NA,NotTracked,NotTracked,
0.9272461,0.2543945,0.2265625,0.8168945,0.2338867,-0.01123047,-1,-2,0,1,-2,-2,-1,1,1,-1,-1,0,0,1,-2,-1,-6.125,-6.125,-6.125,-16.5625,-16.5625,-16.5625,6.35436,3.040703,6.558552,7.273433,2.986753,4.794567,-0.1694371,-0.4298789,1.435163,0.2563807,-0.4275748,1.459582,0.06508204,0.3988936,1.537419,-0.2190972,-0.4449328,1.445907,0.2971849,-0.4148909,1.467133,0.04538132,-0.04908907,1.523513,0.04085553,-0.3615774,1.506123,-0.1348841,0.1312982,1.524623,-0.03776306,-0.3526262,1.473356,-0.1957249,-0.1438815,1.536862,0.2798333,-0.1580411,1.550187,NA,NA,NotTracked,NotTracked,
0.9379883,0.2724609,0.2207031,0.9560547,0.34375,0.01953125,-1,0,-3,-1,-1,-1,-1,0,-1,-1,-2,0,-1,-1,0,-3,-1.25,-1.25,-1.25,6.125,6.125,6.125,6.362381,3.037499,6.548097,7.393303,2.977448,4.68631,-0.1688911,-0.4287868,1.434662,0.2557497,-0.4265502,1.461571,0.06587524,0.3989811,1.537941,-0.2205577,-0.4331129,1.451714,0.2936678,-0.4651441,1.458714,0.04538399,-0.04904841,1.523519,0.04088058,-0.3615752,1.506305,-0.1347265,0.1318057,1.523465,-0.03775256,-0.3525965,1.473371,-0.195864,-0.1432922,1.536328,0.2778687,-0.157539,1.551711,NA,NA,NotTracked,NotTracked,
0.9345703,0.234375,0.2143555,0.9135742,0.3007813,0.03808594,-1,-2,-1,-1,-1,-1,-2,-3,-3,2,-1,-1,-1,1,0,-7,-3.125,-3.125,-3.125,1.5625,1.5625,1.5625,6.369246,3.03446,6.535404,7.419796,2.981093,4.654425,-0.1700353,-0.4271723,1.434883,0.2549493,-0.4246034,1.462124,0.06587957,0.3989683,1.538079,-0.2171418,-0.4354006,1.444917,0.29347,-0.4575281,1.452187,0.04533411,-0.048927,1.523524,0.04097374,-0.3613631,1.506582,-0.1351326,0.1321846,1.52254,-0.03767101,-0.3524344,1.473533,-0.1960378,-0.1424518,1.535724,0.2765931,-0.1570448,1.552584,NA,NA,NotTracked,NotTracked,
0.9453125,0.2207031,0.2250977,0.9301758,0.2929688,0.06445313,-2,-1,-1,0,-2,-1,0,-1,-1,1,0,1,0,0,0,1,-2.8125,-2.8125,-2.8125,6.8125,6.8125,6.8125,6.368745,3.033727,6.529396,7.423809,2.981646,4.659044,-0.1714387,-0.4280511,1.436079,0.2543256,-0.4249025,1.462601,0.06546054,0.3991605,1.538224,-0.2246604,-0.4330474,1.463435,0.2932712,-0.4576493,1.451558,0.04516489,-0.04883771,1.523627,0.04083105,-0.3613281,1.506983,-0.1356884,0.1323318,1.521977,-0.037807,-0.3523788,1.473834,-0.1963341,-0.1420606,1.535138,0.2756569,-0.1562828,1.553483,NA,NA,NotTracked,NotTracked,
