ALX,ALY,ALZ,ARX,ARY,ARZ,EMG0L,EMG1L,EMG2L,EMG3L,EMG4L,EMG5L,EMG6L,EMG7L,EMG0R,EMG1R,EMG2R,EMG3R,EMG4R,EMG5R,EMG6R,EMG7R,GLX,GLY,GLZ,GRX,GRY,GRZ,ORL,OPL,OYL,ORR,OPR,OYR,LHNX,LHNY,LHNZ,RHNX,RHNY,RHNZ,HX,HY,HZ,LTX,LTY,LTZ,RTX,RTY,RTZ,SpineMidX,SpineMidY,SpineMidZ,SpineBaseX,SpineBaseY,SpineBaseZ,ShoulderLeftX,ShoulderLeftY,ShoulderLeftZ,ShoulderRightX,ShoulderRightY,ShoulderRightZ,ElbowLeftX,ElbowLeftY,ElbowLeftZ,ElbowRightX,ElbowRightY,ElbowRightZ,Myo_Pose_left,Myo_Pose_Right,Kinect_pose_left,Kinect_pose_right
0.956543,-0.3012695,0.09082031,0.9389648,0.2675781,0.121582,2,3,0,-1,-3,-2,-3,-1,1,0,0,-1,-1,0,1,1,0.1875,0.1875,0.1875,0.9375,0.9375,0.9375,2.912928,2.991637,7.230738,6.767234,2.983003,3.591831,-0.00221756,-0.3897996,1.567484,0.361657,-0.4039216,1.54042,0.2098051,0.40808,1.651316,0.03682314,-0.3762505,1.531106,0.3160137,-0.3778045,1.51125,0.1965502,-0.06217356,1.652981,0.1891113,-0.3914621,1.637903,0.01855044,0.1277488,1.632335,0.1006958,-0.3817616,1.606607,-0.0188018,-0.1355559,1.639846,0.3971924,-0.1282158,1.621738,NA,NA,NotTracked,NotTracked,
0.9458008,-0.2875977,0.07666016,0.9291992,0.2592773,0.1235352,-2,1,-1,-1,-1,0,0,2,-2,-1,-3,-2,4,-2,0,-1,0.9375,0.9375,0.9375,1.9375,1.9375,1.9375,2.915113,2.990672,7.230081,6.768495,2.982005,3.592463,-0.002420889,-0.3895069,1.566783,0.3612101,-0.4040562,1.539482,0.2097154,0.4081485,1.650682,0.03737217,-0.3756055,1.530534,0.3144609,-0.3959967,1.50704,0.1964778,-0.06221073,1.652583,0.1890488,-0.3915124,1.637557,0.01838323,0.1276419,1.631629,0.1006339,-0.3818253,1.606276,-0.01902043,-0.1363839,1.638915,0.3970391,-0.1281759,1.621206,NA,NA,NotTracked,NotTracked,
0.9472656,-0.2890625,0.07519531,0.9350586,0.2524414,0.1235352,-1,-1,-1,-1,-2,0,-1,-1,-1,-1,0,0,-2,-4,0,-1,1.1875,1.1875,1.1875,1.3125,1.3125,1.3125,2.914999,2.990336,7.230886,6.770072,2.980965,3.593829,-0.002483634,-0.389056,1.566479,0.3612431,-0.4038605,1.538806,0.2097464,0.408142,1.650095,0.03576948,-0.363149,1.530618,0.314854,-0.3931832,1.507504,0.1962814,-0.06224957,1.6518,0.1888696,-0.3915689,1.637051,0.01837603,0.1276903,1.631045,0.1004761,-0.3818549,1.605724,-0.01917844,-0.1363812,1.638362,0.3969727,-0.1283469,1.620351,NA,NA,NotTracked,NotTracked,
0.9482422,-0.284668,0.07958984,0.9311523,0.2280273,0.1206055,-2,31,1,-1,-2,-1,-2,-3,1,0,0,3,3,2,-1,0,0.0625,0.0625,0.0625,0.125,0.125,0.125,2.914999,2.990336,7.230886,6.756866,2.975572,3.604276,-0.002002434,-0.3898234,1.56697,0.3606102,-0.4046947,1.538911,0.2096575,0.408151,1.649435,0.03651867,-0.3774953,1.529573,0.3152217,-0.3776917,1.5095,0.1960625,-0.06225617,1.65129,0.1887059,-0.3915674,1.636704,0.01850988,0.1282408,1.630686,0.100327,-0.3818338,1.605458,-0.01938082,-0.1366396,1.638138,0.3968421,-0.1284211,1.619684,NA,NA,NotTracked,NotTracked,
0.9526367,-0.2890625,0.08691406,0.9038086,0.4116211,0.07519531,1,-4,-1,-1,-3,0,-3,-2,3,8,5,5,3,-5,-15,2,1.6875,1.6875,1.6875,-5,-5,-5,2.917747,2.990823,7.232876,6.785006,2.980078,3.57843,-0.002907527,-0.3895245,1.566385,0.3605232,-0.408291,1.537832,0.2096144,0.4080915,1.648567,0.03653193,-0.3747014,1.529711,0.3149279,-0.3891,1.507244,0.1958208,-0.06226967,1.650668,0.1885309,-0.391586,1.636143,0.0184102,0.1281634,1.630183,0.1001249,-0.3818738,1.604954,-0.01932128,-0.1368794,1.637768,0.3966939,-0.1284729,1.61918,NA,NA,NotTracked,NotTracked,
0.9638672,-0.3071289,0.08349609,1.118164,0.175293,0.1181641,0,-1,1,-1,-1,0,0,2,3,1,-4,-4,8,-4,-8,18,1.375,1.375,1.375,-74.1875,-74.1875,-74.1875,2.918657,2.99169,7.233917,6.689293,3.034619,3.560077,-0.002587013,-0.3899263,1.566515,0.3613553,-0.4082279,1.535693,0.209546,0.4080603,1.648127,0.03678298,-0.3761217,1.528828,0.3153654,-0.3792797,1.508491,0.1957962,-0.06224321,1.65015,0.1884821,-0.391589,1.635809,0.01821977,0.1281288,1.629895,0.1000785,-0.3818814,1.604704,-0.01935642,-0.137173,1.637515,0.3967222,-0.1286082,1.618787,NA,NA,NotTracked,NotTracked,
0.9360352,-0.28125,0.06835938,0.8989258,0.90625,0.284668,0,15,1,-1,0,-2,1,-1,8,-32,-47,-8,9,-3,-28,0,1.8125,1.8125,1.8125,-20.625,-20.625,-20.625,2.918797,2.994525,7.239788,6.689713,3.283838,3.547773,-0.002488627,-0.3892322,1.565687,0.3561567,-0.4422131,1.500374,0.2094481,0.4080604,1.647545,0.03715091,-0.3761388,1.528285,0.305994,-0.4409057,1.489667,0.1957188,-0.06221873,1.649601,0.1883595,-0.3916358,1.635086,0.01810991,0.1281467,1.629609,0.09998631,-0.381882,1.603651,-0.01945051,-0.137249,1.63703,0.3980483,-0.1277525,1.618583,NA,NA,NotTracked,NotTracked,
0.9155273,-0.2788086,0.06884766,0.9111328,0.690918,0.5151367,1,-9,-2,-1,-3,-1,-6,-1,-5,0,-2,6,-1,6,-6,1,1.25,1.25,1.25,-91.125,-91.125,-91.125,2.921373,2.995002,7.238748,6.608015,3.635879,3.480401,-0.000648785,-0.4146205,1.561166,0.3422277,-0.3933487,1.428871,0.2094176,0.408096,1.647352,0.03339172,-0.4124538,1.519662,0.3607972,-0.3901133,1.389136,0.1954295,-0.06218461,1.649163,0.1876492,-0.3915966,1.634588,0.01789968,0.1280733,1.629398,0.09921465,-0.3816896,1.60283,-0.01972196,-0.1377482,1.636337,0.401387,-0.1240953,1.617666,NA,NA,NotTracked,Lasso,
0.9682617,-0.3061523,0.1083984,0.609375,0.7734375,0.5966797,-2,3,2,0,0,0,-1,1,-4,-21,-23,-5,-3,-3,7,-2,-6.75,-6.75,-6.75,30.3125,30.3125,30.3125,2.923864,3.000608,7.211238,6.628519,4.087569,3.433746,-0.001082975,-0.411399,1.560217,0.3185488,-0.2966435,1.353859,0.2092888,0.4081521,1.647006,0.03261319,-0.4220819,1.51587,0.3323325,-0.2954291,1.297893,0.1946919,-0.06217601,1.648812,0.1854412,-0.3914638,1.633842,0.01767746,0.1273884,1.628802,0.09677096,-0.381277,1.601933,-0.01998242,-0.1371104,1.635742,0.4051759,-0.1100434,1.614989,NA,NA,NotTracked,Closed,
0.9570313,-0.2475586,0.07763672,0.2724609,0.8569336,0.5532227,3,5,-1,0,0,1,1,-3,2,4,12,5,-7,1,-2,-1,-1.8125,-1.8125,-1.8125,-12.9375,-12.9375,-12.9375,2.932602,3.004464,7.197652,6.643272,4.76026,3.416877,-0.0005928222,-0.4014018,1.560937,0.2984962,-0.1782491,1.280796,0.2091505,0.4081758,1.646797,0.03829833,-0.379627,1.524509,0.301608,-0.2092492,1.259615,0.1942606,-0.06212064,1.648728,0.1847585,-0.3912015,1.633587,0.01752496,0.1272657,1.62858,0.09623647,-0.3810857,1.601809,-0.02006245,-0.1361374,1.635201,0.4110538,-0.09259856,1.603984,NA,NA,NotTracked,Closed,
0.9648438,-0.2890625,0.06640625,-0.08300781,0.8945313,0.5019531,-2,-16,-5,-2,-1,-2,-1,-2,-3,-10,-1,-12,-6,-3,1,-3,0.375,0.375,0.375,39.6875,39.6875,39.6875,2.92978,3.004863,7.199504,6.686995,5.25118,3.445096,0.0004040303,-0.4048074,1.560537,0.1953586,-0.04646941,1.115765,0.20908,0.4081094,1.646559,0.03752904,-0.3882488,1.523069,0.1996358,-0.0754048,1.082108,0.1941703,-0.0620862,1.648758,0.1847141,-0.391046,1.633507,0.01742716,0.1271433,1.628571,0.09618235,-0.3810305,1.601909,-0.02009703,-0.1352317,1.635057,0.417409,-0.08309857,1.5337,NA,NA,NotTracked,Unknown,
0.9404297,-0.2944336,0.07421875,-0.2563477,0.8999023,0.4682617,0,2,-1,-1,-1,0,-2,0,-4,-3,1,-2,1,-1,2,-4,3.1875,3.1875,3.1875,28.1875,28.1875,28.1875,2.925833,3.006417,7.208058,6.734463,5.554376,3.485468,-0.001415335,-0.3968318,1.562957,0.2771411,0.07909611,1.275988,0.2089921,0.4080046,1.646462,0.03838509,-0.3796722,1.524792,0.2742817,0.0585475,1.235955,0.1935485,-0.06244228,1.649126,0.1843937,-0.3916812,1.633474,0.0178024,0.1268153,1.628705,0.09573939,-0.3818709,1.602006,-0.02010359,-0.1352625,1.635119,0.3983122,-0.06605177,1.464148,NA,NA,NotTracked,Unknown,
0.9458008,-0.300293,0.1015625,-0.5620117,0.6933594,0.3657227,-2,-6,-2,-2,-2,-2,-1,-2,5,9,7,3,-1,5,-1,0,8.4375,8.4375,8.4375,38.5625,38.5625,38.5625,2.931027,3.011714,7.217945,6.932248,6.180889,3.67571,-0.0009707161,-0.4015884,1.563726,0.2748953,0.1828489,1.304906,0.2072929,0.407924,1.646589,0.03900316,-0.4032219,1.522939,0.2656856,0.1559533,1.262188,0.1930885,-0.06245085,1.649336,0.1836778,-0.3918493,1.633736,0.01789992,0.1269318,1.62922,0.09380742,-0.3820839,1.603822,-0.0203981,-0.1299062,1.636789,0.4023912,-0.05551312,1.460563,NA,NA,NotTracked,Unknown,
0.9428711,-0.3203125,0.08447266,-0.6191406,0.5556641,0.2685547,-3,-22,-1,-1,-1,0,1,1,10,-1,-3,4,0,-4,-9,2,10,10,10,30.5,30.5,30.5,2.935481,3.018226,7.230543,7.133215,6.455247,3.876223,-0.003658003,-0.3973963,1.566915,0.2851085,0.2362363,1.350458,0.2049423,0.4076689,1.646357,0.035227,-0.4096498,1.524286,0.2799822,0.233925,1.299865,0.1925842,-0.06206024,1.64943,0.1823564,-0.3915807,1.63415,0.01928265,0.1271873,1.630509,0.0911184,-0.3813709,1.605372,-0.02042117,-0.1199743,1.639159,0.408721,-0.03140881,1.431563,NA,NA,NotTracked,Unknown,
0.9477539,-0.3212891,0.07958984,-0.6728516,0.4794922,0.171875,3,5,-1,-1,-3,-1,0,3,-10,-3,-5,-4,-1,-1,1,-4,8.625,8.625,8.625,18.1875,18.1875,18.1875,2.933663,3.022559,7.242859,7.382551,6.650998,4.132603,-0.004607138,-0.3965411,1.56667,0.281135,0.2898614,1.389241,0.2025231,0.4070127,1.644916,0.02690717,-0.4153445,1.521154,0.2739989,0.28216,1.338776,0.1922053,-0.0618229,1.64967,0.1815612,-0.3910849,1.634045,0.02128677,0.1280922,1.631818,0.08989487,-0.3805252,1.60568,-0.02031497,-0.1188602,1.639685,0.4100594,0.004097699,1.405237,NA,NA,NotTracked,Unknown,
0.940918,-0.3256836,0.1030273,-0.7304688,0.3662109,-0.008300781,-4,12,0,0,0,-2,-5,-6,3,-8,-9,1,2,6,15,5,2.4375,2.4375,2.4375,2.8125,2.8125,2.8125,2.936889,3.032564,7.255351,7.732288,6.79747,4.513225,-0.004992954,-0.3961797,1.567317,0.2839834,0.3031065,1.419745,0.2011627,0.4064321,1.643604,0.0331396,-0.3832048,1.52788,0.2693554,0.3055829,1.373059,0.1918058,-0.06170342,1.649643,0.1810736,-0.3905922,1.633846,0.02224277,0.1288976,1.633274,0.08926485,-0.3798737,1.605758,-0.0205156,-0.1189263,1.640476,0.4109186,0.02864143,1.392722,NA,NA,NotTracked,Lasso,
0.9375,-0.3300781,0.09912109,-0.7587891,0.3774414,-0.05810547,-7,-11,-4,-1,-1,-2,-4,-1,-1,-7,-7,-5,-3,-4,-2,2,-0.625,-0.625,-0.625,-8.5,-8.5,-8.5,2.939105,3.037322,7.253882,7.896453,6.822831,4.703391,-0.00477332,-0.396021,1.567149,0.2774875,0.3151162,1.442811,0.2002851,0.4055845,1.641599,0.03252092,-0.385354,1.528318,0.2623073,0.3185092,1.39717,0.191575,-0.061658,1.649606,0.1808076,-0.3903691,1.633642,0.02222739,0.1290103,1.634277,0.08893288,-0.3796261,1.605648,-0.02054437,-0.1186958,1.641033,0.410875,0.0399026,1.38763,NA,NA,NotTracked,Unknown,
0.9487305,-0.3164063,0.09033203,-0.8500977,0.3745117,-0.1391602,0,16,-3,-2,-1,-1,-1,-1,5,4,-4,-8,-9,-4,-3,-2,-2.25,-2.25,-2.25,-5.75,-5.75,-5.75,2.93844,3.04191,7.250966,7.960722,6.819578,4.788547,-0.00508849,-0.3966359,1.567029,0.2731497,0.3112589,1.45374,0.1998705,0.4047085,1.639581,0.03247022,-0.3904007,1.527258,0.2557326,0.3197642,1.409023,0.191364,-0.06165326,1.649593,0.1805858,-0.390177,1.633482,0.02202568,0.1289751,1.634869,0.0887273,-0.3794489,1.605531,-0.02073904,-0.1185231,1.641364,0.4105643,0.04330334,1.386138,NA,NA,NotTracked,Unknown,
0.9375,-0.3173828,0.0859375,-0.8881836,0.4243164,-0.144043,1,1,-3,-2,-1,-1,0,2,2,-5,-6,1,1,-21,3,3,-3.8125,-3.8125,-3.8125,-9.25,-9.25,-9.25,2.938799,3.042551,7.246705,7.961109,6.800098,4.799531,-0.005219714,-0.396649,1.565901,0.2686711,0.3094379,1.459903,0.1995754,0.4036833,1.637689,0.03226446,-0.3992997,1.523651,0.2055816,0.2921553,1.513561,0.1910194,-0.06176516,1.64952,0.1803549,-0.3901331,1.633305,0.02197988,0.1288739,1.635165,0.0885023,-0.379366,1.60541,-0.02089876,-0.1183286,1.641459,0.4087133,0.0522163,1.382273,NA,NA,NotTracked,Unknown,
0.9423828,-0.3154297,0.08984375,-0.9321289,0.4423828,-0.1381836,0,-7,-2,-1,-2,-1,2,-1,-2,1,3,1,-1,-1,-5,-3,-7.3125,-7.3125,-7.3125,8.9375,8.9375,8.9375,2.935595,3.041383,7.241522,7.941954,6.796754,4.776219,-0.004982103,-0.3959306,1.565208,0.2672201,0.3102832,1.462504,0.1994188,0.4033565,1.636589,0.03192619,-0.4019132,1.523958,0.2066587,0.291237,1.514825,0.1908408,-0.06187115,1.649553,0.1802697,-0.3901314,1.633288,0.02199456,0.1288452,1.635504,0.08840244,-0.3793353,1.605405,-0.02092941,-0.1183173,1.641528,0.4088105,0.05222726,1.382382,NA,NA,NotTracked,Unknown,
0.9414063,-0.3076172,0.1005859,-0.9160156,0.3881836,-0.1254883,-1,-3,-3,-1,0,0,0,0,-6,2,3,-9,-4,-3,2,-2,-4.8125,-4.8125,-4.8125,5.375,5.375,5.375,2.941671,3.040074,7.226639,7.94285,6.798593,4.772321,-0.004564715,-0.3960639,1.566013,0.2669333,0.3117704,1.466271,0.1993987,0.4031846,1.636248,0.0314956,-0.4104631,1.524476,0.2089359,0.2899371,1.517925,0.1907021,-0.06188093,1.649658,0.1801794,-0.3900095,1.633428,0.02209476,0.1291745,1.635562,0.08828079,-0.3791724,1.605572,-0.02109928,-0.1181134,1.641772,0.40927,0.05194009,1.382825,NA,NA,NotTracked,Closed,
0.9375,-0.3007813,0.09179688,-0.9067383,0.4023438,-0.1279297,-1,4,-2,-3,-2,0,1,-3,-4,2,0,0,-1,-1,1,-1,-1.4375,-1.4375,-1.4375,1.375,1.375,1.375,2.940258,3.038723,7.221479,7.949481,6.806485,4.768987,-0.004731043,-0.3961364,1.567804,0.2672968,0.3141465,1.46742,0.1994118,0.4030946,1.636189,0.03207104,-0.4004155,1.526746,0.208039,0.2897582,1.518327,0.1904146,-0.06185968,1.649948,0.1799639,-0.3898454,1.633748,0.0221775,0.1298335,1.635403,0.08807383,-0.3789462,1.605827,-0.02122176,-0.118127,1.642103,0.4103785,0.05098049,1.383716,NA,NA,NotTracked,Closed,
0.9453125,-0.2954102,0.09814453,-0.8574219,0.3920898,-0.08056641,-3,-21,-1,-1,0,-1,5,6,-23,-15,-7,0,-4,0,-1,-1,-0.375,-0.375,-0.375,2.875,2.875,2.875,2.941186,3.037924,7.220545,7.940227,6.815108,4.752727,-0.004831381,-0.3960362,1.568642,0.2689432,0.3129575,1.468804,0.1995656,0.4028678,1.636004,0.0314399,-0.4008318,1.526665,0.2102433,0.2865863,1.521826,0.1903245,-0.06189599,1.650112,0.1798718,-0.3898085,1.633906,0.0222402,0.129715,1.635939,0.08797262,-0.3788843,1.605967,-0.02120517,-0.118365,1.642465,0.4111078,0.0502857,1.38436,NA,NA,NotTracked,Unknown,
0.9482422,-0.3276367,0.07958984,-0.7407227,0.3647461,-0.08349609,-1,-5,1,-1,0,-2,-4,-1,17,4,0,-1,-7,9,10,-2,0.25,0.25,0.25,11.1875,11.1875,11.1875,2.94042,3.037892,7.22131,7.925599,6.818345,4.724676,-0.001542903,-0.3908128,1.568502,0.2702973,0.313251,1.468829,0.1997041,0.4026811,1.63612,0.03886664,-0.3686398,1.529632,0.2094367,0.2866604,1.52122,0.1901433,-0.06213912,1.651415,0.1797561,-0.3897708,1.634204,0.02255189,0.1299844,1.636437,0.08786669,-0.3788017,1.606205,-0.02112362,-0.117676,1.643255,0.4117017,0.05284788,1.383884,NA,NA,NotTracked,Closed,
0.934082,-0.3920898,0.07958984,-0.7045898,0.3740234,-0.005371094,-2,-7,-1,2,-2,-2,25,0,-11,2,3,19,24,4,5,-17,6.9375,6.9375,6.9375,-11.125,-11.125,-11.125,2.940123,3.048558,7.220861,7.792713,6.786218,4.581714,-0.004445639,-0.3940636,1.569004,0.2707673,0.3117857,1.459139,0.1998831,0.4025746,1.63653,0.03450847,-0.3782604,1.532509,0.2103308,0.2885799,1.52135,0.1900517,-0.06210267,1.651596,0.1795066,-0.3895914,1.634705,0.0229212,0.1307877,1.63636,0.08759757,-0.3785116,1.606749,-0.02137516,-0.116936,1.644436,0.413638,0.04690505,1.387005,NA,NA,NotTracked,Lasso,
1.038574,-0.3852539,0.07177734,-0.8725586,0.3496094,-0.03515625,0,1,5,-1,-8,-9,13,4,-7,5,9,11,38,-1,10,1,72.5625,72.5625,72.5625,-0.5,-0.5,-0.5,3.073668,3.14087,7.223169,7.391185,6.62149,4.149717,-0.004808309,-0.419881,1.551876,0.2665864,0.2992973,1.421162,0.1998831,0.4028443,1.63812,0.03632628,-0.4251634,1.5155,0.2586951,0.2761042,1.478125,0.1899832,-0.0621619,1.651834,0.1793945,-0.3897868,1.635156,0.0244152,0.1308011,1.638394,0.0874643,-0.3786662,1.60732,-0.02163962,-0.1164763,1.645744,0.4168308,0.01632769,1.402586,NA,NA,NotTracked,Unknown,
0.9360352,-0.5771484,0.112793,-0.8149414,0.6254883,0.1098633,-2,-4,-3,0,4,12,10,14,-41,-15,-11,-12,-16,17,-6,-33,-16.75,-16.75,-16.75,13.25,13.25,13.25,3.126838,3.263473,7.186786,7.207045,6.339091,3.893225,-0.009565712,-0.4227227,1.514924,0.2603048,0.2415111,1.368435,0.1992741,0.4063809,1.6428,0.04097857,-0.4146028,1.510877,0.2631397,0.221312,1.445143,0.1900971,-0.06216567,1.651956,0.1795917,-0.3901005,1.635395,0.0251223,0.1305782,1.640196,0.08797108,-0.3795447,1.608184,-0.02686477,-0.1025535,1.650312,0.4171155,-0.01965995,1.428327,NA,NA,NotTracked,Closed,
0.8476563,-0.7519531,0.2822266,-0.7709961,0.6748047,0.1235352,-5,-2,-3,-1,-3,-9,-11,-21,23,-1,-4,-4,-37,1,-2,19,-22.375,-22.375,-22.375,-3.6875,-3.6875,-3.6875,3.087018,3.451794,7.184292,7.107513,5.983744,3.762237,-0.009865453,-0.3820146,1.453796,0.2393839,0.1780346,1.298199,0.1995522,0.409189,1.651124,0.03974121,-0.3816429,1.45575,0.1978976,0.1820628,1.301286,0.1899479,-0.06235341,1.651907,0.180454,-0.3918371,1.635867,0.0235967,0.1315656,1.644641,0.0896474,-0.3842549,1.61094,-0.03460089,-0.09773104,1.648587,0.4118295,-0.03449987,1.44041,NA,NA,Unknown,Closed,
0.4790039,-0.7822266,0.3085938,-0.4389648,0.9853516,0.1762695,1,-7,0,0,-1,1,19,-2,12,-8,-4,-3,-9,-6,-1,-4,-86.0625,-86.0625,-86.0625,37.9375,37.9375,37.9375,2.970354,3.727454,7.15333,7.130961,5.492366,3.660371,-0.007761837,-0.3401,1.394953,0.2218978,0.09413747,1.242059,0.2029062,0.4076536,1.658805,0.0251578,-0.3652613,1.43575,0.1770153,0.1006015,1.2428,0.1905137,-0.06347365,1.652846,0.1828458,-0.395659,1.636183,0.02329497,0.1328657,1.646314,0.09277774,-0.3894684,1.611432,-0.04553013,-0.08379523,1.635311,0.4018773,-0.03592171,1.445433,NA,NA,Unknown,Closed,
0.5219727,-0.84375,0.2563477,-0.04980469,1.010254,0.2255859,-4,-7,0,-1,-5,-7,0,-1,23,4,-1,0,-1,-2,8,6,-70.4375,-70.4375,-70.4375,54.875,54.875,54.875,2.82939,3.901313,7.170458,7.190487,5.120021,3.621823,-0.008528477,-0.3074237,1.336891,0.2200306,0.001671241,1.204876,0.2058878,0.4084875,1.667391,0.0383054,-0.3114727,1.334517,0.1703493,0.00828603,1.21,0.1915676,-0.06287835,1.654179,0.1854417,-0.3938505,1.636833,0.02379175,0.1339345,1.647635,0.0962287,-0.3877378,1.610239,-0.04979016,-0.07872966,1.604439,0.4121863,-0.03801746,1.462139,NA,NA,Unknown,Unknown,
0.6850586,-0.7373047,0.2177734,0.1201172,1.102539,0.222168,-4,-4,-1,-3,-2,-5,-7,7,12,-6,-6,-4,-4,4,-9,-9,-55.1875,-55.1875,-55.1875,62.375,62.375,62.375,2.719607,3.997955,7.210103,7.300601,4.809587,3.603405,-0.009354258,-0.285615,1.291357,0.2269046,-0.08239701,1.188415,0.2073961,0.408397,1.676096,0.001232041,-0.2583903,1.252815,0.1759534,-0.087359,1.203333,0.1938676,-0.06140909,1.661836,0.186406,-0.3925293,1.637091,0.02411903,0.1341598,1.649346,0.09762361,-0.3863685,1.609912,-0.04867698,-0.07432799,1.581994,0.4107874,-0.03646319,1.459807,NA,NA,Unknown,Unknown,
0.7109375,-0.6269531,0.1206055,0.2143555,1.04541,0.04296875,-8,-2,-3,-2,1,-3,2,4,9,1,5,3,3,-6,4,4,-62.8125,-62.8125,-62.8125,47.25,47.25,47.25,2.600907,4.054309,7.252662,7.429486,4.523476,3.560214,-0.008618309,-0.265611,1.257863,0.2376627,-0.1404293,1.184556,0.2084133,0.4084162,1.682287,0.01305718,-0.2456377,1.21819,0.1879261,-0.1564549,1.204818,0.1947315,-0.06075785,1.665267,0.1870226,-0.3921045,1.637238,0.02416826,0.1340253,1.64941,0.09883453,-0.385819,1.609543,-0.04625105,-0.06894813,1.561203,0.4247485,-0.02176658,1.438644,NA,NA,Closed,Unknown,
0.6538086,-0.7094727,0.06982422,0.3911133,1.011719,0.07714844,5,5,2,-2,2,6,48,-2,-28,-11,-2,-1,-32,-7,-8,-21,-40.375,-40.375,-40.375,-22,-22,-22,2.543444,4.074584,7.264764,7.465049,4.384785,3.468824,-0.005207517,-0.2516397,1.236319,0.2531632,-0.1771666,1.179619,0.2087688,0.4091588,1.688348,0.03880266,-0.2571147,1.235231,0.2068454,-0.1938867,1.200778,0.1951669,-0.06044635,1.66743,0.1872727,-0.3919312,1.637372,0.02439848,0.1337206,1.649142,0.09940527,-0.385483,1.609275,-0.04801644,-0.06758314,1.490476,0.4146362,-0.02376829,1.435027,NA,NA,Unknown,Unknown,
0.5981445,-0.7602539,0.02148438,0.5209961,0.8774414,-0.04736328,-27,-5,0,-1,3,2,17,-2,33,12,7,-2,13,11,10,24,-23.6875,-23.6875,-23.6875,-39.1875,-39.1875,-39.1875,2.467511,4.093397,7.274774,7.469001,4.264561,3.305781,-0.001930506,-0.2459204,1.222884,0.2732324,-0.204534,1.176139,0.2090865,0.4095055,1.693468,0.04290541,-0.2599153,1.2217,0.2267796,-0.2311674,1.1947,0.1953176,-0.06045374,1.66932,0.1872811,-0.3919615,1.637403,0.02476138,0.1334153,1.648689,0.09950419,-0.3854342,1.609215,-0.04434911,-0.0627498,1.477507,0.3968196,-0.02999241,1.424742,NA,NA,Closed,Unknown,
0.5947266,-0.7954102,-0.03466797,0.5541992,0.8393555,-0.0546875,2,-10,-5,-3,-5,-11,-6,16,-1,-8,-5,-4,2,11,-1,9,-17.0625,-17.0625,-17.0625,-23.9375,-23.9375,-23.9375,2.439685,4.097662,7.291557,7.468699,4.202876,3.211962,0.0003845289,-0.2444755,1.214884,0.2927026,-0.2263502,1.17375,0.2091658,0.4093095,1.696666,0.04311024,-0.248948,1.216684,0.2468722,-0.258304,1.192714,0.1953046,-0.06091975,1.670886,0.1875086,-0.3923681,1.637503,0.02538585,0.1323351,1.647523,0.09983694,-0.3856213,1.609067,-0.04214284,-0.06109694,1.467606,0.3851967,-0.03523659,1.412322,NA,NA,Closed,Unknown,
0.5888672,-0.7832031,-0.07373047,0.5268555,0.8803711,0.03564453,-2,-14,-17,0,1,3,7,15,-21,10,2,-2,-12,-3,3,21,-2.8125,-2.8125,-2.8125,-19.6875,-19.6875,-19.6875,2.419844,4.088527,7.300827,7.453037,4.179347,3.172986,0.001558159,-0.2465208,1.212515,0.3026368,-0.2338316,1.177692,0.2090549,0.40907,1.699157,0.04346344,-0.2572174,1.212353,0.2552024,-0.260693,1.195,0.1956388,-0.06138009,1.672541,0.1880879,-0.3928091,1.63777,0.02578159,0.1319824,1.647098,0.10057,-0.3859094,1.60901,-0.04151728,-0.06031464,1.466715,0.3807378,-0.03906566,1.406496,NA,NA,Closed,Unknown,
0.550293,-0.8134766,-0.08691406,0.421875,0.9082031,0.09130859,0,4,-1,2,-2,-3,-37,-26,20,6,1,1,0,5,-9,7,-2.0625,-2.0625,-2.0625,0.5625,0.5625,0.5625,2.407504,4.07752,7.299901,7.439451,4.187033,3.17335,0.003543153,-0.2491066,1.21367,0.3029154,-0.2343704,1.177584,0.2091053,0.4088992,1.700683,0.04494993,-0.2549621,1.220098,0.2539299,-0.2534164,1.191449,0.1959283,-0.06159065,1.673432,0.188559,-0.3930225,1.638035,0.02607928,0.1316797,1.646776,0.1011276,-0.3860381,1.609078,-0.04021275,-0.0598844,1.465749,0.3803912,-0.0391679,1.406518,NA,NA,Unknown,Unknown,
0.546875,-0.8574219,-0.05615234,0.4394531,0.878418,0.06054688,10,12,-1,0,-2,3,42,7,-1,10,6,2,-4,0,-1,-6,-5.875,-5.875,-5.875,-4.3125,-4.3125,-4.3125,2.400923,4.069971,7.295728,7.418885,4.19883,3.173334,0.002634596,-0.252001,1.216125,0.302267,-0.2336675,1.179504,0.2090117,0.4089191,1.701713,0.04898398,-0.2675984,1.2245,0.2514502,-0.2562562,1.197663,0.1962195,-0.06169635,1.674376,0.1890236,-0.3933151,1.638505,0.02629346,0.1314977,1.646545,0.1016192,-0.3862477,1.609406,-0.03959207,-0.05959233,1.465377,0.3795627,-0.04047178,1.404727,NA,NA,Closed,Unknown,
0.5664063,-0.8432617,-0.06787109,0.4814453,0.8515625,0.04638672,0,3,-6,-4,-4,-6,-12,2,4,-10,-3,0,0,4,23,13,2.5,2.5,2.5,-12.8125,-12.8125,-12.8125,2.400177,4.066525,7.295085,7.40509,4.199071,3.167683,0.003391658,-0.2540972,1.217688,0.3024502,-0.234928,1.17799,0.2088234,0.4086524,1.702219,0.04822923,-0.2694376,1.233222,0.2516506,-0.2532688,1.192988,0.1963117,-0.06184786,1.674894,0.1893794,-0.3935345,1.638711,0.02644444,0.1314135,1.646446,0.1019824,-0.3864078,1.609529,-0.0388555,-0.05945414,1.466661,0.3790852,-0.0406063,1.405233,NA,NA,Closed,Unknown,
0.5449219,-0.8623047,-0.06787109,0.4594727,0.8691406,0.06787109,-3,-1,14,-2,-2,2,13,-7,4,-3,0,-1,-1,2,-2,6,-4.8125,-4.8125,-4.8125,-2.375,-2.375,-2.375,2.392245,4.063884,7.296577,7.394629,4.201406,3.173203,4.411739E-05,-0.2552451,1.218626,0.3021727,-0.2352322,1.179334,0.2088524,0.4086324,1.70257,0.04387261,-0.2680115,1.218942,0.2513787,-0.252516,1.19499,0.196391,-0.06196263,1.675602,0.1896693,-0.3937578,1.639004,0.02653842,0.1312256,1.646336,0.1022772,-0.3865889,1.609738,-0.03863346,-0.06012952,1.466672,0.3787462,-0.04120509,1.405035,NA,NA,Closed,Unknown,
0.5581055,-0.8208008,-0.07373047,0.4638672,0.8242188,0.06298828,-6,-9,-36,-6,-3,-2,2,30,-3,-1,-3,-1,4,-3,-2,1,-0.5,-0.5,-0.5,-11.25,-11.25,-11.25,2.38994,4.060275,7.310019,7.375301,4.207369,3.183913,-0.002399825,-0.2586521,1.220427,0.3007649,-0.2363496,1.179644,0.2088371,0.408583,1.70307,0.04302178,-0.2656584,1.227154,0.2507458,-0.2475835,1.193243,0.1964382,-0.06218777,1.676136,0.1898628,-0.3940507,1.639427,0.02677474,0.1309325,1.646346,0.1024729,-0.3867887,1.610024,-0.03839993,-0.060952,1.467461,0.3784558,-0.04246109,1.404795,NA,NA,Unknown,Unknown,
0.5888672,-0.7871094,-0.06835938,0.5004883,0.7495117,0.04541016,15,9,4,0,-2,-4,-10,-11,3,-1,-1,-2,-1,-3,-2,-10,-0.125,-0.125,-0.125,-13.0625,-13.0625,-13.0625,2.380962,4.049673,7.316414,7.355719,4.198805,3.19077,-0.005793279,-0.2598627,1.223139,0.2990855,-0.2364868,1.181399,0.2088374,0.4086179,1.703145,0.03890549,-0.2639581,1.230008,0.2502229,-0.2497834,1.192725,0.1963314,-0.06223529,1.676442,0.1898342,-0.3941409,1.639655,0.02670833,0.130836,1.646329,0.1024654,-0.3868302,1.610292,-0.03868933,-0.06149643,1.467732,0.3784029,-0.04298507,1.405695,NA,NA,Closed,Unknown,
0.5805664,-0.7709961,-0.05810547,0.5097656,0.6567383,0.04833984,2,-2,0,0,-1,0,-2,0,4,-1,1,0,2,2,0,-5,3.3125,3.3125,3.3125,-12.3125,-12.3125,-12.3125,2.38179,4.044229,7.3182,7.327175,4.165349,3.201462,-0.01255608,-0.2671603,1.231176,0.2998057,-0.2458498,1.186038,0.2087941,0.4086434,1.703125,0.02984277,-0.2729883,1.232267,0.2479462,-0.2493093,1.206625,0.1961319,-0.06231081,1.676612,0.1895847,-0.3943141,1.639968,0.02662343,0.1307196,1.646578,0.1022352,-0.3868992,1.610541,-0.04042084,-0.06356366,1.473967,0.3798888,-0.04606037,1.410216,NA,NA,Closed,Unknown,
0.6445313,-0.6674805,-0.04638672,0.5527344,0.6791992,0.1459961,-4,-9,0,-1,0,-1,-3,0,-1,0,0,0,0,0,-1,-4,0.8125,0.8125,0.8125,-13.25,-13.25,-13.25,2.364003,3.969024,7.345001,7.297296,4.071369,3.216468,-0.01893524,-0.2877258,1.252954,0.3006586,-0.2655571,1.204255,0.2086968,0.4086862,1.70294,0.02515705,-0.2888822,1.255833,0.25066,-0.2651281,1.215636,0.195887,-0.06239695,1.676828,0.1890272,-0.3944466,1.640361,0.02619932,0.1303954,1.647212,0.1016204,-0.3868273,1.61095,-0.04282574,-0.07055842,1.488011,0.3838023,-0.06156757,1.417367,NA,NA,Closed,Unknown,
0.6557617,-0.6132813,-0.02539063,0.5698242,0.6494141,0.144043,-1,-9,-2,0,0,0,-1,-3,-4,-2,-1,-1,-7,-3,0,1,22.4375,22.4375,22.4375,-21.6875,-21.6875,-21.6875,2.387362,3.880997,7.352844,7.252355,3.957655,3.22328,-0.02498155,-0.3172915,1.290711,0.307833,-0.2962035,1.232602,0.2088831,0.4087875,1.701877,0.02113824,-0.321748,1.290083,0.2605926,-0.2845059,1.2345,0.195512,-0.06239982,1.677005,0.1883735,-0.3943704,1.640802,0.02571307,0.1299715,1.648973,0.1006627,-0.3863654,1.611427,-0.0453147,-0.0745736,1.565978,0.3899168,-0.08138091,1.436066,NA,NA,Closed,Unknown,
