ALX,ALY,ALZ,ARX,ARY,ARZ,EMG0L,EMG1L,EMG2L,EMG3L,EMG4L,EMG5L,EMG6L,EMG7L,EMG0R,EMG1R,EMG2R,EMG3R,EMG4R,EMG5R,EMG6R,EMG7R,GLX,GLY,GLZ,GRX,GRY,GRZ,ORL,OPL,OYL,ORR,OPR,OYR,LHNX,LHNY,LHNZ,RHNX,RHNY,RHNZ,HX,HY,HZ,LTX,LTY,LTZ,RTX,RTY,RTZ,SpineMidX,SpineMidY,SpineMidZ,SpineBaseX,SpineBaseY,SpineBaseZ,ShoulderLeftX,ShoulderLeftY,ShoulderLeftZ,ShoulderRightX,ShoulderRightY,ShoulderRightZ,ElbowLeftX,ElbowLeftY,ElbowLeftZ,ElbowRightX,ElbowRightY,ElbowRightZ,Myo_Pose_left,Myo_Pose_Right,Kinect_pose_left,Kinect_pose_right
0.9306641,-0.3583984,0.1445313,0.9438477,0.315918,0.2460938,-1,-1,-1,0,0,0,-1,0,-2,-1,-1,-3,-6,-1,-1,-1,-3.25,-3.25,-3.25,-28.9375,-28.9375,-28.9375,3.105702,3.113934,5.031075,6.590487,3.251215,3.59173,-0.005497189,-0.4296494,1.50275,0.3332866,-0.4290174,1.456828,0.1999133,0.4051495,1.615113,-0.0506926,-0.4333434,1.524594,0.3613278,-0.4679476,1.414357,0.1891527,-0.06438338,1.613303,0.1843455,-0.3906342,1.592872,0.01369405,0.1221271,1.599386,0.09621361,-0.3813336,1.56168,-0.02353086,-0.1383423,1.604491,0.3970686,-0.137271,1.581414,NA,NA,NotTracked,NotTracked,
0.9423828,-0.3505859,0.1298828,0.8569336,0.4770508,0.3305664,-2,-2,-2,-3,-2,-1,0,-1,-4,-12,-14,-2,3,-5,1,-3,0.8125,0.8125,0.8125,15.5625,15.5625,15.5625,3.104788,3.115396,5.030079,6.549521,3.351542,3.654443,-0.004816704,-0.4274115,1.502705,0.3211796,-0.416445,1.445714,0.2004115,0.40524,1.615162,-0.04993744,-0.4340199,1.52213,0.3400235,-0.4742694,1.432375,0.1891995,-0.0643194,1.613067,0.1836215,-0.3904065,1.592488,0.01371954,0.1218803,1.599673,0.09530666,-0.3809309,1.561372,-0.02340824,-0.1382786,1.604617,0.398783,-0.1347062,1.581707,NA,NA,NotTracked,NotTracked,
0.9174805,-0.3544922,0.1416016,0.8222656,0.4204102,0.3637695,-4,-1,6,0,-3,0,-1,-1,1,0,7,0,-2,-2,-1,-2,-1.8125,-1.8125,-1.8125,-26.1875,-26.1875,-26.1875,3.099653,3.119183,5.031523,6.48671,3.519938,3.678945,-0.004740917,-0.4272106,1.501143,0.3070714,-0.3994768,1.434094,0.2007315,0.4051397,1.615185,-0.05027879,-0.4345766,1.522572,0.3269825,-0.4251342,1.395514,0.188949,-0.0642663,1.612817,0.1814232,-0.3900515,1.591868,0.01375926,0.1214942,1.600056,0.09273164,-0.3802859,1.561022,-0.02274555,-0.137979,1.604943,0.4002812,-0.1314666,1.582125,NA,NA,NotTracked,NotTracked,
0.9306641,-0.3579102,0.1259766,0.8066406,0.5874023,0.3842773,0,-2,-1,-1,-1,0,-1,0,8,25,20,4,-3,2,5,3,1.75,1.75,1.75,-8.5625,-8.5625,-8.5625,3.094793,3.121191,5.037457,6.478932,3.658297,3.674006,-0.004438975,-0.4269097,1.501678,0.2920379,-0.3817778,1.415043,0.2010626,0.4050819,1.615615,-0.04909345,-0.4550551,1.516875,0.2722502,-0.4144803,1.440385,0.1888384,-0.06425342,1.61277,0.1801994,-0.3900096,1.591523,0.01391041,0.1212071,1.600642,0.09118266,-0.3798557,1.560606,-0.02242781,-0.1376176,1.604955,0.4013689,-0.1288995,1.582461,NA,NA,NotTracked,Unknown,
0.9179688,-0.3676758,0.1303711,0.7763672,0.6274414,0.4570313,-1,-1,-1,-1,-4,0,-2,0,6,17,20,-10,-15,1,6,2,-4.875,-4.875,-4.875,-23.4375,-23.4375,-23.4375,3.081435,3.119493,5.044903,6.453875,3.823715,3.651869,-0.004705372,-0.4258318,1.502529,0.2760958,-0.3536235,1.388321,0.201118,0.4050806,1.616057,-0.05067188,-0.4457574,1.523553,0.2530755,-0.3701572,1.419526,0.1887666,-0.06428727,1.6128,0.1795999,-0.3901473,1.591588,0.01394597,0.1208548,1.60122,0.09058028,-0.3797667,1.560785,-0.02184115,-0.1379994,1.605189,0.4018477,-0.1259249,1.584057,NA,NA,NotTracked,Unknown,
0.8930664,-0.3432617,0.15625,0.6049805,0.965332,0.6938477,-3,0,-3,-2,-1,0,-1,0,3,-9,7,-4,18,6,7,10,-5.9375,-5.9375,-5.9375,-34.5,-34.5,-34.5,3.08008,3.117557,5.037997,6.425398,4.160561,3.58918,-0.004562627,-0.4262737,1.502897,0.2465799,-0.3038389,1.381196,0.2010672,0.4051091,1.616219,-0.04971492,-0.4392018,1.521334,0.2602333,-0.3771597,1.4174,0.1888705,-0.06436194,1.61283,0.1795761,-0.3902948,1.591645,0.01405472,0.1207853,1.601428,0.09070271,-0.3798099,1.560835,-0.02160388,-0.1375755,1.605102,0.4022346,-0.1222334,1.585744,NA,NA,NotTracked,Closed,
0.9399414,-0.3359375,0.1469727,0.07763672,0.8725586,0.6586914,-1,-2,0,0,-1,-1,-1,-2,5,38,23,16,11,-9,7,9,5.6875,5.6875,5.6875,-64.125,-64.125,-64.125,3.09359,3.117838,5.027792,6.343834,4.577234,3.538562,-0.004268902,-0.4267842,1.503203,0.2373093,-0.1880689,1.339367,0.2010553,0.4051087,1.616245,-0.04893067,-0.4312835,1.527583,0.1967757,-0.1664217,1.425857,0.1894234,-0.06443738,1.612767,0.1804831,-0.3902976,1.591703,0.01408128,0.120725,1.601553,0.09242184,-0.3802704,1.560859,-0.02130694,-0.1379531,1.605239,0.4041281,-0.1109165,1.588829,NA,NA,NotTracked,Unknown,
0.9106445,-0.387207,0.1132813,-0.2700195,0.6210938,0.5922852,-3,-4,-1,-1,0,-1,-1,0,3,-22,-19,-23,1,-12,0,-3,-4.9375,-4.9375,-4.9375,-23.4375,-23.4375,-23.4375,3.08835,3.112887,5.029734,6.255995,5.2713,3.473765,-0.003624231,-0.4238038,1.503687,0.2373259,-0.05939196,1.316757,0.2011513,0.4050603,1.616292,-0.04788309,-0.4381395,1.52016,0.1906083,-0.04155641,1.3326,0.189631,-0.06435849,1.612815,0.181006,-0.3897094,1.592016,0.0168675,0.1222137,1.599132,0.09294385,-0.3799301,1.561162,-0.02105223,-0.1373062,1.605441,0.4027687,-0.1060978,1.552035,NA,NA,NotTracked,Closed,
0.9282227,-0.3813477,0.1474609,-0.4355469,0.6040039,0.5791016,-1,-1,-1,-2,-1,-1,-1,0,41,110,89,51,7,-1,5,0,-9.375,-9.375,-9.375,5.9375,5.9375,5.9375,3.075858,3.111711,5.028902,6.252737,5.748766,3.447806,-0.003584469,-0.4241983,1.503352,0.261238,0.06469809,1.339559,0.2013807,0.4048965,1.616265,-0.04626493,-0.4287657,1.516419,0.2497708,0.1047404,1.344333,0.1898445,-0.06452631,1.612921,0.1816562,-0.3898586,1.592092,0.01702243,0.1216877,1.599414,0.09363591,-0.3804605,1.561167,-0.02106916,-0.1372942,1.605403,0.3741991,-0.09874004,1.48379,NA,NA,NotTracked,Closed,
0.9428711,-0.3681641,0.1464844,-0.3984375,0.5712891,0.6113281,-2,0,-4,-1,-1,-1,-1,-1,4,-65,-50,-38,-5,5,3,12,-6.6875,-6.6875,-6.6875,5.4375,5.4375,5.4375,3.070355,3.115176,5.025591,6.286095,6.111703,3.464875,-0.004497059,-0.424219,1.502162,0.2921802,0.1405352,1.373035,0.2012013,0.4047685,1.616384,-0.04806501,-0.424886,1.519652,0.2665454,0.1662157,1.451167,0.1900229,-0.06495111,1.613023,0.1819929,-0.3908657,1.592103,0.01687808,0.1214736,1.599803,0.09381919,-0.3822871,1.562645,-0.02097743,-0.1363582,1.605169,0.3793562,-0.1002757,1.485479,NA,NA,NotTracked,Closed,
0.9204102,-0.3349609,0.1230469,-0.6782227,0.4560547,0.5380859,-2,-2,-2,0,-1,-2,-2,-1,6,31,28,11,-30,2,10,24,-7.375,-7.375,-7.375,2.375,2.375,2.375,3.063209,3.11917,5.015017,6.334173,6.369458,3.523163,-0.0054249,-0.4170765,1.502922,0.3131605,0.1756634,1.405034,0.2008034,0.40469,1.616523,-0.05017295,-0.4367582,1.524738,0.3391459,0.1780873,1.375177,0.190192,-0.0644315,1.613134,0.1820703,-0.3902365,1.592428,0.01697973,0.1215414,1.600171,0.09362868,-0.3814763,1.563641,-0.02035445,-0.1323921,1.604798,0.3853192,-0.100253,1.480207,NA,NA,NotTracked,Unknown,
0.9228516,-0.3007813,0.1376953,-0.7695313,0.4326172,0.4003906,-1,0,5,0,-1,-1,-3,-2,-62,-47,-53,-49,-24,-7,-15,-31,4.4375,4.4375,4.4375,-4.4375,-4.4375,-4.4375,3.068048,3.119786,5.015499,6.469334,6.607728,3.691653,-0.002605737,-0.4258189,1.500741,0.3201932,0.1962447,1.427843,0.2003259,0.4045635,1.616664,-0.04907067,-0.433594,1.520616,0.3460739,0.2096892,1.390808,0.1910545,-0.06336155,1.613786,0.1822856,-0.3892611,1.592762,0.01711697,0.1215536,1.60039,0.09354301,-0.380603,1.564112,-0.02029754,-0.1290345,1.604724,0.3901,-0.09479707,1.469381,NA,NA,NotTracked,Unknown,
0.9355469,-0.3574219,0.1386719,-0.8388672,0.4169922,0.2646484,-1,0,-3,-1,0,-1,-2,-3,-34,7,-6,-9,-24,-4,-11,-32,2.8125,2.8125,2.8125,-17,-17,-17,3.078941,3.110063,5.009429,6.619749,6.736703,3.896269,-0.004014516,-0.4167562,1.50534,0.321616,0.208636,1.441952,0.1999303,0.404379,1.616451,-0.04782699,-0.4178472,1.52068,0.3143916,0.142389,1.524875,0.1917613,-0.06237062,1.614243,0.1823424,-0.3881647,1.593252,0.0187701,0.1225408,1.599164,0.09329279,-0.3793305,1.564969,-0.02034002,-0.1278053,1.604897,0.3914689,-0.08814437,1.45695,NA,NA,NotTracked,Unknown,
0.9267578,-0.3759766,0.1123047,-0.8583984,0.4111328,0.2280273,1,1,-3,0,-1,-1,0,-2,6,-2,8,4,-7,2,-3,6,-0.375,-0.375,-0.375,-11.5625,-11.5625,-11.5625,3.079814,3.102726,5.010202,6.796967,6.822186,4.109894,-0.001621348,-0.4267717,1.504818,0.3196681,0.2216686,1.455197,0.1996935,0.4042519,1.61622,-0.0484038,-0.4286567,1.522013,0.2891099,0.2035847,1.468,0.1931504,-0.06076387,1.614902,0.1824723,-0.3869233,1.594001,0.01905256,0.1225722,1.59971,0.09318236,-0.378212,1.565918,-0.02047938,-0.1256483,1.605465,0.3892714,-0.08231369,1.44928,NA,NA,NotTracked,Closed,
0.9067383,-0.3574219,0.1416016,-0.8969727,0.3813477,0.1098633,-2,0,-4,-1,-2,-1,-1,0,-25,-8,-21,-27,2,2,8,0,1.75,1.75,1.75,7.1875,7.1875,7.1875,3.07647,3.110212,5.010154,6.982196,6.874269,4.313403,-0.00292653,-0.4261381,1.504562,0.3176346,0.2280629,1.464735,0.1994192,0.4038584,1.61588,-0.04951947,-0.4302953,1.524535,0.2875643,0.2065563,1.472119,0.1944924,-0.05950911,1.615353,0.1829087,-0.3859256,1.594434,0.01938022,0.1226369,1.599998,0.09369043,-0.3773386,1.566503,-0.02064697,-0.1252274,1.605821,0.3877306,-0.07169455,1.440057,NA,NA,NotTracked,NotTracked,
0.9267578,-0.3374023,0.1396484,-0.8535156,0.3842773,0.1386719,-2,-2,2,-2,-2,-1,-3,-1,23,22,-13,-24,-12,7,-2,2,-6.4375,-6.4375,-6.4375,26.0625,26.0625,26.0625,3.0776,3.111449,5.004429,7.083203,6.871971,4.374692,-0.004342534,-0.414671,1.507481,0.3100708,0.2432759,1.471902,0.1992296,0.4036365,1.615668,-0.04777298,-0.4137861,1.52424,0.2705048,0.2530523,1.508455,0.19587,-0.05820251,1.615897,0.1830528,-0.3850017,1.595221,0.01975993,0.1226078,1.600309,0.0937977,-0.3764723,1.567605,-0.0210057,-0.1240133,1.606279,0.3873267,-0.06612951,1.435252,NA,NA,NotTracked,NotTracked,
0.9326172,-0.3569336,0.1225586,-0.878418,0.4057617,0.1430664,-1,-2,0,0,-1,-2,-1,0,18,64,20,-33,-2,-11,-8,-4,-0.6875,-0.6875,-0.6875,3.1875,3.1875,3.1875,3.074999,3.111304,5.002267,7.119133,6.865897,4.400997,-0.004786408,-0.4136177,1.50722,0.2701788,0.3168855,1.510465,0.1990818,0.4035203,1.615547,-0.04894355,-0.4166095,1.524286,0.2437491,0.280197,1.55375,0.196771,-0.05731909,1.616315,0.1830368,-0.3845946,1.595612,0.02091376,0.1231031,1.599268,0.09366835,-0.3760841,1.568125,-0.02119119,-0.1232981,1.606384,0.3866941,-0.05244669,1.412864,NA,NA,NotTracked,NotTracked,
0.9277344,-0.3554688,0.1210938,-0.9506836,0.3769531,0.07958984,-2,-1,-1,0,-2,-3,-1,-1,1,-4,-6,-8,14,-9,17,-9,-0.5625,-0.5625,-0.5625,-11.9375,-11.9375,-11.9375,3.070898,3.112458,5.005195,7.195856,6.887188,4.505155,-0.004980634,-0.4138075,1.509011,0.2715873,0.314932,1.516183,0.1988941,0.4033246,1.615726,-0.05003209,-0.4137209,1.527,0.2466819,0.2823038,1.558874,0.1974948,-0.05673451,1.616791,0.1831837,-0.384332,1.595901,0.02124677,0.1228242,1.600142,0.09391477,-0.3758466,1.568605,-0.02119858,-0.1225927,1.606991,0.3869164,-0.05189989,1.413099,NA,NA,NotTracked,NotTracked,
0.9160156,-0.3564453,0.1459961,-0.9638672,0.3583984,0.002441406,0,-5,-3,-2,0,0,-2,0,-9,-9,-7,12,-18,10,-3,-6,-4,-4,-4,-1,-1,-1,3.068928,3.113551,5.004311,7.311562,6.918113,4.641589,-0.005635412,-0.4136204,1.50807,0.2644462,0.312302,1.523967,0.1987816,0.4031466,1.615952,-0.05068545,-0.4230456,1.529838,0.2389307,0.265508,1.563017,0.197711,-0.05658626,1.616974,0.1831706,-0.3841503,1.596078,0.02139126,0.1225837,1.600583,0.09393597,-0.3757463,1.568786,-0.02136448,-0.1226352,1.607172,0.3876756,-0.05093241,1.412807,NA,NA,NotTracked,NotTracked,
0.9194336,-0.3828125,0.1489258,-0.8955078,0.3417969,0.04394531,-3,-2,-5,-2,-2,-2,-2,-2,-3,5,14,21,5,-4,5,0,-6.1875,-6.1875,-6.1875,-2.5625,-2.5625,-2.5625,3.06423,3.113343,4.999749,7.345677,6.916217,4.677608,-0.004633058,-0.4244761,1.505084,0.2644376,0.3093323,1.526268,0.198932,0.402934,1.616417,-0.05031833,-0.4284157,1.525577,0.2434125,0.2649861,1.567037,0.1978577,-0.05643481,1.617267,0.1831404,-0.3839912,1.596291,0.02145506,0.1224706,1.600889,0.0939007,-0.3756123,1.569009,-0.02192443,-0.1218004,1.607094,0.3881114,-0.05031991,1.412841,NA,NA,NotTracked,NotTracked,
0.9179688,-0.3535156,0.1328125,-0.887207,0.3344727,-0.01464844,2,1,2,-1,0,-1,-1,-1,40,25,7,12,2,6,-5,6,-3.375,-3.375,-3.375,6.8125,6.8125,6.8125,3.065763,3.114913,4.989155,7.328157,6.90954,4.656874,-0.004563278,-0.422903,1.504188,0.2668161,0.3103387,1.525275,0.1990197,0.4028132,1.616507,-0.04995363,-0.4337253,1.520822,0.2407971,0.2676646,1.562128,0.1979545,-0.0563284,1.617391,0.1831236,-0.3838158,1.596421,0.02145535,0.1224598,1.600961,0.09387212,-0.3754679,1.569159,-0.02202624,-0.121786,1.607041,0.3883452,-0.04987058,1.413019,NA,NA,NotTracked,NotTracked,
0.9208984,-0.3330078,0.1225586,-0.9072266,0.3300781,-0.01708984,-2,0,3,-1,-2,0,-1,-3,2,12,14,21,23,-3,-6,-6,0.8125,0.8125,0.8125,52,52,52,3.075697,3.113726,4.978244,7.124083,6.887621,4.369893,-0.004593051,-0.4235321,1.504884,0.2898624,0.2812224,1.49959,0.1990287,0.4028073,1.616499,-0.05033122,-0.4313342,1.524006,0.2437101,0.2688295,1.562261,0.1980459,-0.05622192,1.617417,0.1832068,-0.3837012,1.596568,0.02144593,0.1224664,1.600955,0.09396835,-0.3753816,1.569276,-0.02222954,-0.1216605,1.60685,0.388472,-0.04959607,1.412965,NA,NA,NotTracked,NotTracked,
0.9331055,-0.3295898,0.1445313,-0.9306641,0.3168945,0.09375,0,3,-1,-2,-1,-1,0,-1,0,-3,-17,-25,-18,-5,-22,-5,4.1875,4.1875,4.1875,41.9375,41.9375,41.9375,3.089001,3.110717,4.9705,6.811351,6.790225,3.94443,-0.004390816,-0.4211205,1.505859,0.3052748,0.2529856,1.450997,0.1989191,0.4028019,1.616496,-0.05020384,-0.4368792,1.52474,0.2778956,0.2163242,1.436467,0.1979559,-0.0561511,1.617425,0.1832259,-0.3837017,1.596917,0.02183122,0.1231971,1.599785,0.09382519,-0.3753886,1.569663,-0.02239516,-0.1213803,1.606677,0.387199,-0.05972908,1.425223,NA,NA,NotTracked,NotTracked,
0.921875,-0.3413086,0.1430664,-0.8852539,0.3979492,0.2758789,1,-2,0,-1,0,1,-1,-1,4,0,-11,-28,-9,0,7,13,5.5625,5.5625,5.5625,13.5,13.5,13.5,3.111845,3.104308,4.961308,6.510911,6.583264,3.539394,-0.004236542,-0.421182,1.507598,0.301886,0.2553496,1.405665,0.1986645,0.4028715,1.61619,-0.04825436,-0.4174348,1.525692,0.2709362,0.2128976,1.385214,0.1973109,-0.05613617,1.617401,0.1830791,-0.3835753,1.597533,0.02190252,0.1237391,1.598895,0.09338449,-0.375141,1.57025,-0.02253802,-0.1209457,1.606593,0.3854325,-0.06322362,1.426898,NA,NA,NotTracked,Unknown,
0.9379883,-0.3842773,0.1484375,-0.9443359,0.390625,0.2988281,0,-1,-1,-1,0,0,-1,1,9,9,7,-3,-17,2,4,12,2.375,2.375,2.375,7.6875,7.6875,7.6875,3.114634,3.09931,4.963189,6.361441,6.388683,3.346976,-0.003177707,-0.4264098,1.508193,0.3079948,0.206991,1.341491,0.1985404,0.4029723,1.615946,-0.04901146,-0.4288242,1.5261,0.2695204,0.2019693,1.364143,0.1958283,-0.0568791,1.617105,0.1827237,-0.3837884,1.597902,0.02149644,0.1237281,1.599016,0.09271017,-0.3752899,1.570468,-0.02256008,-0.1210401,1.606515,0.3819062,-0.0670044,1.422498,NA,NA,NotTracked,Unknown,
0.9350586,-0.3647461,0.1328125,-0.7304688,0.519043,0.4389648,-1,2,-2,-2,-2,-1,3,-2,-1,-8,-2,-6,11,3,-6,-11,-1.9375,-1.9375,-1.9375,-3.125,-3.125,-3.125,3.107187,3.097502,4.971395,6.284411,6.146507,3.229795,-0.004251044,-0.4242754,1.508308,0.3040889,0.1884581,1.28041,0.1987836,0.403133,1.615699,-0.05113727,-0.4407547,1.531637,0.2649956,0.1929072,1.279474,0.1943112,-0.05779092,1.616917,0.1823607,-0.3838974,1.598208,0.02137874,0.1241698,1.598422,0.09207988,-0.3753002,1.570719,-0.02265145,-0.1208503,1.606483,0.3761953,-0.06531295,1.415021,NA,NA,NotTracked,Unknown,
0.9223633,-0.3271484,0.1401367,-0.5444336,0.6723633,0.6303711,-3,-2,0,-1,-2,-1,-2,-2,3,4,8,22,-6,-9,2,5,-3.625,-3.625,-3.625,12.0625,12.0625,12.0625,3.097228,3.103235,4.972612,6.215256,5.79754,3.114616,-0.004793005,-0.4244576,1.506724,0.301697,0.1528281,1.216383,0.1996617,0.4032156,1.615514,-0.04990512,-0.431713,1.525422,0.2601851,0.1880296,1.234857,0.1932094,-0.05895135,1.616675,0.1821262,-0.384566,1.598365,0.02063425,0.1240724,1.598743,0.0918405,-0.3758743,1.570732,-0.02273641,-0.1218089,1.606,0.367211,-0.05909442,1.401679,NA,NA,NotTracked,Closed,
0.940918,-0.3344727,0.1464844,-0.3261719,0.6132813,0.8076172,-2,-1,2,0,-1,0,-2,-3,-1,13,5,10,16,3,1,-8,0.0625,0.0625,0.0625,9.375,9.375,9.375,3.091522,3.107227,4.975733,6.186002,5.545948,3.045296,-0.004841238,-0.4235664,1.505889,0.301006,0.1155275,1.157364,0.2013728,0.4032769,1.615503,-0.04979019,-0.4303876,1.524334,0.316434,0.1059042,1.11919,0.1926974,-0.0608331,1.616231,0.1821795,-0.3868855,1.597925,0.02013656,0.1239559,1.598898,0.09213375,-0.378228,1.569908,-0.02322514,-0.1243552,1.605389,0.3606255,-0.05008442,1.35426,NA,NA,NotTracked,Closed,
0.9506836,-0.331543,0.1303711,0.008300781,0.6894531,0.7958984,-3,-3,-5,0,0,-1,-2,-1,-3,-10,-10,-6,-26,7,11,-1,2.5625,2.5625,2.5625,0.125,0.125,0.125,3.091341,3.109126,4.982769,6.185211,5.310576,2.991586,-0.004750811,-0.4235359,1.505376,0.3044128,0.07684579,1.112533,0.2028073,0.4034915,1.615605,-0.04987624,-0.4334069,1.522709,0.313137,0.06094021,1.075167,0.1925294,-0.06215756,1.615853,0.1824186,-0.3886853,1.597425,0.0196908,0.1237716,1.599173,0.09283487,-0.3802952,1.569268,-0.02362275,-0.1270029,1.605271,0.3512622,-0.03754187,1.375021,NA,NA,NotTracked,Closed,
0.90625,-0.3461914,0.1132813,0.01171875,0.6713867,0.8232422,-2,1,-5,-2,-3,-4,-1,-1,12,15,3,-2,0,4,13,24,6.375,6.375,6.375,-19.5,-19.5,-19.5,3.079443,3.109308,5.004323,6.147356,5.100807,2.930247,-0.005374368,-0.423748,1.506929,0.3080023,0.04753676,1.081437,0.204611,0.4038991,1.616003,-0.04958617,-0.4279936,1.522047,0.2998151,0.03321858,1.044056,0.1924028,-0.06259277,1.615713,0.1824695,-0.3893331,1.597128,0.01932731,0.1238709,1.599653,0.09317318,-0.3810721,1.568892,-0.02364949,-0.127721,1.605612,0.3489632,-0.03758193,1.372069,NA,NA,NotTracked,Closed,
0.9135742,-0.3525391,0.1445313,0.09082031,0.6572266,0.7495117,-1,0,4,0,-1,-3,-3,-1,-7,-10,-5,10,3,-1,-2,-14,4,4,4,-14.25,-14.25,-14.25,3.074668,3.106615,5.018849,6.1184,5.015522,2.904193,-0.00592984,-0.4243928,1.507638,0.3094759,0.03011264,1.062292,0.2061016,0.4040009,1.616375,-0.05218689,-0.4089963,1.5372,0.3269733,0.008469606,1.034714,0.1922798,-0.06311871,1.61537,0.1824341,-0.3900892,1.596813,0.01911427,0.1239286,1.599891,0.09337141,-0.3816619,1.56877,-0.02388046,-0.1299444,1.606241,0.3451529,-0.06268648,1.350917,NA,NA,NotTracked,Closed,
0.9389648,-0.362793,0.1518555,0.06787109,0.6831055,0.7963867,-2,-5,0,-1,1,-1,0,0,-5,-1,-10,-19,-7,-3,-10,-115,7.3125,7.3125,7.3125,0.75,0.75,0.75,3.077228,3.10165,5.026612,6.118172,4.979062,2.903951,-0.005808892,-0.426893,1.508192,0.3060798,0.02167145,1.054847,0.2073368,0.4040187,1.616701,-0.05071703,-0.4193274,1.529094,0.2907941,-0.01357511,1.04845,0.1921133,-0.06355757,1.614853,0.1822426,-0.3904976,1.596659,0.01895898,0.1240254,1.600118,0.09341411,-0.3819802,1.56872,-0.02387355,-0.1309062,1.606625,0.3418439,-0.05384662,1.356623,NA,NA,NotTracked,Closed,
0.9248047,-0.3452148,0.1333008,-0.005371094,0.7133789,0.7895508,-1,-4,-5,0,-1,0,-3,-1,7,17,8,-7,5,-4,-1,21,4.375,4.375,4.375,-8.625,-8.625,-8.625,3.08164,3.096258,5.036307,6.106693,4.979255,2.91071,-0.006243425,-0.4268371,1.510282,0.3039478,0.01850646,1.052964,0.2083209,0.4039894,1.616601,-0.05087099,-0.4203573,1.528803,0.3198642,-0.002293267,1.023324,0.1919207,-0.06405439,1.614075,0.1820061,-0.3909477,1.596522,0.01890618,0.1240884,1.60016,0.09339383,-0.3823153,1.56874,-0.02363169,-0.1315821,1.607126,0.3408506,-0.04662356,1.374207,NA,NA,NotTracked,Closed,
0.9213867,-0.3447266,0.1303711,0.008300781,0.6787109,0.7592773,-1,-2,10,0,-2,0,-2,-4,-6,-1,-3,-23,-11,0,-6,14,5.5625,5.5625,5.5625,1.5625,1.5625,1.5625,3.080467,3.093132,5.046075,6.104973,4.993517,2.910149,-0.00692766,-0.4271276,1.509806,0.3030565,0.01919919,1.051775,0.2090139,0.4040647,1.616282,-0.05178535,-0.4384044,1.528364,0.2987811,0.07302433,1.034583,0.1916394,-0.0645707,1.613191,0.1816618,-0.3915089,1.596245,0.01883981,0.124115,1.600175,0.09327567,-0.3827606,1.568671,-0.02354253,-0.1318294,1.607425,0.3394826,-0.04393176,1.374172,NA,NA,NotTracked,Closed,
0.9228516,-0.3452148,0.1254883,-0.06494141,0.6645508,0.8144531,-1,0,0,0,-1,0,2,-1,-9,-2,4,6,-9,6,3,1,2.5,2.5,2.5,6,6,6,3.079325,3.092718,5.051629,6.115014,5.012166,2.909675,-0.00722686,-0.4272293,1.511017,0.3036515,0.02143425,1.054775,0.2095156,0.4040449,1.615898,-0.05150509,-0.42778,1.530624,0.2712349,0.07020557,1.062,0.1915885,-0.06490305,1.6125,0.1814941,-0.3917423,1.59603,0.01881072,0.1241272,1.600188,0.0932356,-0.3829107,1.568658,-0.02322698,-0.1325846,1.607783,0.338921,-0.04460578,1.371118,NA,NA,NotTracked,Closed,
0.9213867,-0.3422852,0.1323242,-0.01513672,0.6142578,0.75,0,-2,-5,-1,-1,-1,0,-2,2,1,-3,-16,-1,9,-2,-1,4.125,4.125,4.125,8.875,8.875,8.875,3.082839,3.098081,5.058053,6.122332,5.015107,2.910015,-0.007938008,-0.4251594,1.5114,0.3048957,0.02475159,1.054519,0.2098462,0.4040925,1.615435,-0.05296049,-0.4274604,1.534529,0.2849428,0.07802067,1.048273,0.1914748,-0.0650906,1.612008,0.1812994,-0.3919431,1.595682,0.01867075,0.1240804,1.600291,0.09316331,-0.3830594,1.568558,-0.02297898,-0.1344596,1.608441,0.337762,-0.04362471,1.375843,NA,NA,NotTracked,Closed,
0.9311523,-0.3764648,0.1313477,0.02636719,0.605957,0.7197266,0,3,-1,-3,-1,-2,-1,0,10,5,0,-1,-13,-12,0,6,-4.25,-4.25,-4.25,14.5,14.5,14.5,3.076604,3.100144,5.058368,6.142595,5.002163,2.915189,-0.007693251,-0.4240481,1.508341,0.3043402,0.02236825,1.055234,0.2099357,0.4041279,1.615149,-0.05183411,-0.4332303,1.528256,0.2954071,0.07913772,1.046412,0.1912909,-0.06530769,1.611133,0.1810599,-0.3921889,1.595031,0.01856111,0.1241163,1.600296,0.09308425,-0.383302,1.568181,-0.02313416,-0.134311,1.608342,0.3374724,-0.04069921,1.373093,NA,NA,NotTracked,Closed,
0.9228516,-0.3393555,0.1362305,0.06982422,0.6005859,0.5820313,-1,-1,-4,-1,-1,0,0,0,9,3,1,2,3,1,3,15,-3.625,-3.625,-3.625,33.625,33.625,33.625,3.07762,3.107175,5.048613,6.185699,4.975113,2.917631,-0.008331646,-0.4243456,1.506639,0.300079,0.0168199,1.058083,0.2099703,0.4041592,1.615028,-0.05302869,-0.4353738,1.532333,0.2799398,0.06924741,1.060546,0.191131,-0.06547382,1.610629,0.1809494,-0.3924105,1.59452,0.01847171,0.1241306,1.600234,0.09306081,-0.383543,1.567776,-0.02311771,-0.134319,1.608291,0.3377137,-0.05540931,1.389138,NA,NA,NotTracked,Closed,
0.9140625,-0.3232422,0.1245117,0.05273438,0.6386719,0.5283203,-1,-3,3,-1,-3,0,1,-1,2,1,0,2,-1,-3,-15,-122,0.1875,0.1875,0.1875,80.5625,80.5625,80.5625,3.082916,3.11163,5.0415,6.337526,4.889281,2.927625,-0.008187061,-0.4241408,1.505742,0.2888435,-0.0004182979,1.057762,0.2099306,0.4041769,1.615017,-0.05216154,-0.4323004,1.525162,0.2594766,0.05174613,1.0508,0.191019,-0.06555885,1.610206,0.1809308,-0.3924769,1.593759,0.01816118,0.1240771,1.600255,0.09311992,-0.3837432,1.566903,-0.02324232,-0.1341791,1.60791,0.34312,-0.0877066,1.341354,NA,NA,NotTracked,Closed,
0.9311523,-0.3271484,0.125,0.1245117,0.6352539,0.5493164,-2,-2,5,0,-2,-3,-2,0,-2,1,0,-2,-2,-1,4,-11,7.3125,7.3125,7.3125,92.25,92.25,92.25,3.088228,3.115789,5.043235,6.476693,4.752028,2.960195,-0.009080489,-0.4253453,1.504503,0.275964,-0.05813214,1.057258,0.209412,0.4043157,1.61508,-0.05441234,-0.438985,1.533004,0.231163,-0.06290007,1.039125,0.1907022,-0.06541411,1.609745,0.1806669,-0.3920529,1.592776,0.01734524,0.1237188,1.600575,0.09294444,-0.3834705,1.566011,-0.02337668,-0.1346828,1.60764,0.3513316,-0.1246202,1.41297,NA,NA,NotTracked,Unknown,
0.9331055,-0.3452148,0.1352539,0.3671875,0.6704102,0.4619141,-3,-4,1,-1,-1,-1,0,0,11,3,2,2,0,2,7,-51,4.6875,4.6875,4.6875,86.25,86.25,86.25,3.096772,3.118291,5.044746,6.607153,4.518415,3.005477,-0.00875912,-0.4255843,1.504859,0.275759,-0.1465396,1.07213,0.2083277,0.4045845,1.615882,-0.05080441,-0.4237095,1.521182,0.257513,-0.1059158,1.093167,0.1901856,-0.06533095,1.609394,0.1801277,-0.3918188,1.591671,0.01664267,0.1233988,1.600869,0.09247772,-0.3831676,1.564813,-0.02318693,-0.1353839,1.607315,0.3873362,-0.07575335,1.405529,NA,NA,NotTracked,Unknown,
0.9375,-0.3852539,0.1401367,0.4785156,0.9384766,0.5146484,-1,-3,-2,-1,-2,-1,0,-2,0,2,2,1,-3,0,-2,11,4.8125,4.8125,4.8125,55.8125,55.8125,55.8125,3.104832,3.121511,5.045876,6.723515,4.234647,3.032868,-0.008093542,-0.4241658,1.504277,0.2895571,-0.2403018,1.118111,0.2064679,0.4046506,1.616955,-0.05090193,-0.4291577,1.521446,0.2501455,-0.2329594,1.105445,0.1892589,-0.0654562,1.608924,0.1787406,-0.3918955,1.590248,0.01640063,0.123279,1.60064,0.09115958,-0.3830084,1.563178,-0.02308158,-0.136356,1.607418,0.3913697,-0.1101084,1.394041,NA,NA,NotTracked,Unknown,
0.9287109,-0.3857422,0.1245117,0.7109375,0.8320313,0.4038086,0,-1,-3,-1,-1,0,-1,-2,-4,-2,-1,0,-1,-1,-2,7,1.9375,1.9375,1.9375,45.625,45.625,45.625,3.10454,3.124702,5.050919,6.828351,3.846431,3.032248,-0.009232358,-0.4248855,1.504982,0.3080207,-0.3288415,1.176025,0.2049137,0.4048831,1.617608,-0.05155235,-0.4311819,1.523626,0.2635,-0.3264994,1.170333,0.1887912,-0.06542304,1.608638,0.178351,-0.3918107,1.589541,0.01515222,0.1226286,1.601512,0.09069213,-0.3826849,1.562056,-0.02365841,-0.1382132,1.607926,0.3862167,-0.1019911,1.485407,NA,NA,NotTracked,Unknown,
0.918457,-0.3764648,0.1601563,0.8632813,0.671875,0.293457,1,-2,0,-1,-1,-2,0,0,7,-2,-1,-1,0,-2,-3,0,-4.625,-4.625,-4.625,71.5625,71.5625,71.5625,3.096009,3.128395,5.050018,6.944288,3.58894,3.013274,-0.009202802,-0.426389,1.50308,0.3319193,-0.3923699,1.247091,0.2037197,0.4050206,1.6179,-0.05302719,-0.434401,1.524327,0.3303339,-0.3775279,1.200259,0.1887352,-0.06542402,1.608503,0.1789139,-0.3919327,1.588966,0.01413577,0.1221989,1.601964,0.09155817,-0.3827604,1.560959,-0.02378645,-0.1385864,1.607591,0.3890902,-0.1167771,1.498347,NA,NA,NotTracked,Unknown,
0.9072266,-0.3500977,0.1518555,0.9042969,0.6040039,0.1557617,-2,-2,1,-1,-2,0,-2,-1,9,-1,-2,-2,0,-3,1,5,-9.375,-9.375,-9.375,48.4375,48.4375,48.4375,3.094521,3.124973,5.040999,7.061245,3.3865,2.987337,-0.007968944,-0.4355696,1.498032,0.3520666,-0.4438321,1.310776,0.2031041,0.4050834,1.617635,-0.05483574,-0.4413433,1.518683,0.3109935,-0.4356062,1.2968,0.1888989,-0.06552426,1.607902,0.1804474,-0.392462,1.587908,0.01341987,0.1218762,1.601581,0.09358139,-0.3831174,1.559107,-0.0242173,-0.1391122,1.606404,0.3897901,-0.122715,1.501911,NA,NA,NotTracked,Unknown,
