ALX,ALY,ALZ,ARX,ARY,ARZ,EMG0L,EMG1L,EMG2L,EMG3L,EMG4L,EMG5L,EMG6L,EMG7L,EMG0R,EMG1R,EMG2R,EMG3R,EMG4R,EMG5R,EMG6R,EMG7R,GLX,GLY,GLZ,GRX,GRY,GRZ,ORL,OPL,OYL,ORR,OPR,OYR,LHNX,LHNY,LHNZ,RHNX,RHNY,RHNZ,HX,HY,HZ,LTX,LTY,LTZ,RTX,RTY,RTZ,SpineMidX,SpineMidY,SpineMidZ,SpineBaseX,SpineBaseY,SpineBaseZ,ShoulderLeftX,ShoulderLeftY,ShoulderLeftZ,ShoulderRightX,ShoulderRightY,ShoulderRightZ,ElbowLeftX,ElbowLeftY,ElbowLeftZ,ElbowRightX,ElbowRightY,ElbowRightZ,Myo_Pose_left,Myo_Pose_Right,Kinect_pose_left,Kinect_pose_right
0.9428711,-0.3476563,0.09814453,0.9414063,0.3979492,0.1552734,-1,-2,-1,-1,0,-2,-2,-2,1,0,1,0,0,2,1,1,3.5625,3.5625,3.5625,-19.6875,-19.6875,-19.6875,3.008428,3.111055,2.782699,6.940758,3.186218,9.148816,0.007136735,-0.4367596,1.518968,0.3947098,-0.4425504,1.478527,0.2342445,0.401552,1.615071,-0.04143682,-0.4518266,1.52451,0.4420252,-0.428387,1.466792,0.2203496,-0.065933,1.611984,0.2146545,-0.3906977,1.597562,0.04422161,0.1250731,1.609245,0.1264289,-0.3812952,1.56747,0.001114565,-0.1430009,1.615045,0.4358172,-0.1347713,1.594037,NA,NA,NotTracked,NotTracked,
0.9116211,-0.3579102,0.1142578,0.9755859,0.5009766,0.1801758,-2,-1,-1,-2,-2,0,0,0,1,7,-8,1,0,1,0,0,2.0625,2.0625,2.0625,-19.8125,-19.8125,-19.8125,3.011209,3.113505,2.782859,6.856676,3.325562,9.207856,0.007287536,-0.437412,1.520483,0.3879489,-0.4312515,1.46542,0.2342431,0.4015006,1.615365,-0.04070577,-0.4397741,1.525766,0.4297244,-0.4334362,1.443091,0.2202233,-0.06591181,1.612166,0.214461,-0.3906869,1.597643,0.04422709,0.1249593,1.609514,0.1262596,-0.3812726,1.567531,0.001341086,-0.1431925,1.615525,0.4380613,-0.1331872,1.592773,NA,NA,NotTracked,NotTracked,
0.9174805,-0.3554688,0.1225586,0.8100586,0.5834961,0.3496094,-1,-1,-1,-2,0,-1,-1,-1,-3,-5,-8,-2,0,0,-3,-1,-0.0625,-0.0625,-0.0625,33.1875,33.1875,33.1875,3.009927,3.113568,2.786013,6.802464,3.504053,9.292516,0.006890252,-0.4376183,1.520289,0.3763979,-0.4005367,1.443176,0.23412,0.4013728,1.615828,-0.04097258,-0.4405017,1.525431,0.4184589,-0.4045919,1.426706,0.2197698,-0.06590512,1.612462,0.2132612,-0.3904969,1.597761,0.04420231,0.1249672,1.609992,0.1250023,-0.3810144,1.56755,0.001233855,-0.1430445,1.615692,0.4408789,-0.1321331,1.592372,NA,NA,NotTracked,Unknown,
0.9282227,-0.3500977,0.1313477,0.7275391,0.7158203,0.3393555,-2,1,-2,0,-1,-2,-1,-1,-3,2,-3,0,-4,-7,-2,-1,-4.0625,-4.0625,-4.0625,17.75,17.75,17.75,3.008132,3.112164,2.787971,6.794856,3.728011,9.363736,0.006539229,-0.4377805,1.521283,0.3570141,-0.3563805,1.416101,0.2339426,0.4013897,1.61648,-0.0413169,-0.4398428,1.527554,0.3655223,-0.37004,1.364093,0.2186534,-0.06575379,1.612987,0.209838,-0.3899651,1.597954,0.0440546,0.1248462,1.61075,0.1212777,-0.3800454,1.567814,0.001275749,-0.1421198,1.616564,0.4472104,-0.1252864,1.592484,NA,NA,NotTracked,Unknown,
0.9155273,-0.3598633,0.125,0.5732422,0.7666016,0.3979492,-1,-1,0,-1,-2,0,0,-2,-5,-14,-6,-2,-7,0,-4,-2,1.375,1.375,1.375,14.5625,14.5625,14.5625,3.011686,3.113071,2.781702,6.763684,4.062017,9.439048,0.006806829,-0.4354586,1.521736,0.316485,-0.3142599,1.418807,0.2336954,0.4013093,1.61707,-0.04235702,-0.4486468,1.531611,0.3116571,-0.3002521,1.340774,0.2171435,-0.06562904,1.613593,0.2061379,-0.3898021,1.598264,0.04391476,0.1248417,1.611293,0.1177473,-0.3795492,1.56835,0.001240453,-0.1418743,1.616831,0.4612281,-0.09836806,1.591475,NA,NA,NotTracked,Unknown,
0.9467773,-0.3666992,0.1259766,0.4575195,0.9360352,0.4506836,-1,0,0,-2,1,-1,-1,-2,-5,15,-3,5,5,0,-2,5,-1.25,-1.25,-1.25,-10.875,-10.875,-10.875,3.017831,3.114733,2.775508,6.741941,4.349772,9.481278,0.006879209,-0.4379261,1.519692,0.2999261,-0.2362555,1.398784,0.2334594,0.4013588,1.617852,-0.04172558,-0.4407626,1.529934,0.307482,-0.2175423,1.344651,0.2165731,-0.06551345,1.613969,0.2053217,-0.3896588,1.598382,0.04383827,0.1247542,1.611898,0.1172726,-0.3794232,1.568643,0.001321087,-0.1415614,1.617384,0.4634446,-0.09396095,1.589716,NA,NA,NotTracked,Unknown,
0.9199219,-0.3427734,0.1040039,0.1557617,0.8823242,0.4770508,-1,-2,-1,-1,-1,-1,0,0,2,-7,-18,-7,-4,4,-1,2,3.9375,3.9375,3.9375,-13.1875,-13.1875,-13.1875,3.027775,3.119151,2.770055,6.69302,4.692239,9.533581,0.007156212,-0.4383887,1.521644,0.2727263,-0.1576038,1.382361,0.2332983,0.4013885,1.618305,-0.04155341,-0.4396363,1.534397,0.2772726,-0.1459038,1.322416,0.2164913,-0.06529217,1.614242,0.205541,-0.3891951,1.598627,0.04383291,0.1247115,1.612209,0.117554,-0.3791761,1.568869,0.001608802,-0.1411325,1.618209,0.4687202,-0.09235616,1.570331,NA,NA,NotTracked,Unknown,
0.9204102,-0.3706055,0.1083984,-0.1171875,0.9101563,0.4140625,0,-2,-2,-4,-1,-3,-1,-1,-1,-11,-7,-5,-8,1,-1,-2,-0.3125,-0.3125,-0.3125,9.5,9.5,9.5,3.02375,3.11969,2.773447,6.70237,5.065577,9.577109,0.007132367,-0.4379276,1.520619,0.2637621,-0.0630402,1.379883,0.233066,0.4013196,1.618671,-0.0413386,-0.4573192,1.528222,0.2661722,-0.05759181,1.322789,0.2163442,-0.06521507,1.614449,0.2055205,-0.3887374,1.598869,0.04378847,0.1246088,1.612528,0.1176937,-0.3788745,1.56915,0.001614593,-0.1406309,1.618574,0.4690198,-0.09135811,1.561519,NA,NA,NotTracked,Unknown,
0.9223633,-0.3354492,0.1186523,-0.3339844,0.8134766,0.3842773,-1,-2,-3,-1,0,-1,0,0,-16,-14,0,1,-5,5,0,1,-1.3125,-1.3125,-1.3125,53.8125,53.8125,53.8125,3.020267,3.118032,2.778629,6.78888,5.513769,9.631535,0.006508296,-0.4384946,1.522143,0.2690867,0.02581633,1.381054,0.2329852,0.4013007,1.618745,-0.04304763,-0.4436095,1.539722,0.264267,0.03393403,1.332154,0.2160781,-0.06510329,1.61494,0.2054384,-0.388347,1.599115,0.0437517,0.1244958,1.612994,0.1176841,-0.37872,1.569401,0.001503084,-0.1401762,1.619038,0.4602234,-0.08962119,1.529776,NA,NA,NotTracked,Unknown,
0.9223633,-0.3666992,0.1293945,-0.4355469,0.815918,0.3925781,-3,-1,-1,0,-2,0,-1,0,-8,-11,-32,-14,0,-7,-31,-15,-3.375,-3.375,-3.375,46.5625,46.5625,46.5625,3.018166,3.118118,2.777144,6.900106,5.759327,9.699423,0.006935767,-0.437911,1.521914,0.2778592,0.08791058,1.394387,0.2325916,0.4011975,1.618896,-0.04138721,-0.4442748,1.531343,0.2685735,0.09761427,1.344128,0.2158464,-0.065199,1.615212,0.2052807,-0.3884049,1.599209,0.04340573,0.1246398,1.613658,0.1173745,-0.3789771,1.569639,0.001438439,-0.1402378,1.619564,0.4563015,-0.08290698,1.507209,NA,NA,NotTracked,Unknown,
0.9267578,-0.359375,0.1210938,-0.5136719,0.8095703,0.3647461,-1,-1,-1,-1,-2,-1,-1,-1,-11,-21,-24,-11,-6,1,4,-8,-1.625,-1.625,-1.625,27.75,27.75,27.75,3.023777,3.118379,2.769368,7.045654,5.974136,9.838993,0.006666727,-0.4372075,1.522329,0.2850007,0.1287219,1.421695,0.2314786,0.4012596,1.619246,-0.04091225,-0.4378728,1.529499,0.2909283,0.1220783,1.369217,0.2151012,-0.06532548,1.615755,0.2050181,-0.3893086,1.599183,0.04268051,0.1244597,1.614524,0.1165687,-0.3805316,1.570752,0.0009642959,-0.1384032,1.620336,0.4595722,-0.07085402,1.480661,NA,NA,NotTracked,Unknown,
0.9360352,-0.3798828,0.1245117,-0.5517578,0.6743164,0.1240234,1,0,0,-2,-2,-1,-1,0,-1,-1,-1,-2,-5,3,17,-15,-1,-1,-1,43.8125,43.8125,43.8125,3.022954,3.120456,2.765804,7.190624,6.134512,9.982874,0.006728973,-0.4384852,1.521702,0.2929952,0.1618183,1.445928,0.2302144,0.4012004,1.619472,-0.04201605,-0.4350311,1.536591,0.299167,0.1534595,1.389481,0.21415,-0.06555472,1.6161,0.2045325,-0.3903887,1.599277,0.04265881,0.124487,1.614965,0.1156753,-0.3817932,1.572075,0.0008192497,-0.1377629,1.620665,0.4630703,-0.06250973,1.465059,NA,NA,NotTracked,Unknown,
0.8984375,-0.3574219,0.1113281,-0.5830078,0.6455078,0.1054688,-2,-2,-2,-2,-2,-2,-1,0,-7,27,13,5,8,-3,4,3,-8.3125,-8.3125,-8.3125,47.8125,47.8125,47.8125,3.019363,3.118786,2.761524,7.330528,6.235466,0.06921266,0.006831332,-0.436299,1.52306,0.3053999,0.1780242,1.456697,0.2297133,0.4014115,1.619591,-0.04119721,-0.4371079,1.532549,0.2899267,0.1122621,1.509753,0.2138279,-0.06563132,1.616322,0.2040262,-0.3911217,1.599443,0.04290535,0.1244469,1.614993,0.1149059,-0.3823586,1.572861,0.0008111623,-0.1367736,1.620836,0.4673701,-0.0483566,1.444972,NA,NA,NotTracked,Unknown,
0.9243164,-0.347168,0.1230469,-0.5917969,0.612793,0.08203125,-1,-2,-3,0,-1,-3,1,0,-9,0,6,-6,-4,2,12,-11,-1.625,-1.625,-1.625,28.8125,28.8125,28.8125,3.01253,3.120112,2.757387,7.417363,6.260053,0.08841398,0.006557647,-0.4378794,1.519521,0.299938,0.2089379,1.44034,0.2294228,0.4012691,1.619101,-0.04225705,-0.4455743,1.53027,0.322654,0.1343809,1.522375,0.2137647,-0.06559479,1.616376,0.203696,-0.3914255,1.599313,0.04364884,0.1241174,1.614582,0.1144441,-0.3825232,1.573034,0.001044689,-0.1351136,1.620632,0.4697794,-0.0426678,1.437486,NA,NA,NotTracked,Unknown,
0.9301758,-0.3608398,0.1254883,-0.6606445,0.6201172,0.09228516,-1,0,-2,-1,-1,-2,-1,-1,11,-1,1,-2,-4,8,3,6,0.5,0.5,0.5,14.125,14.125,14.125,3.015352,3.125257,2.754518,7.437722,6.282993,0.08300503,0.006974056,-0.4378245,1.518541,0.3010924,0.2143608,1.438604,0.2292507,0.4012873,1.618656,-0.04136768,-0.4423549,1.530148,0.2864622,0.1860389,1.474364,0.2140966,-0.06558926,1.615947,0.2034727,-0.3915412,1.599244,0.04440355,0.1238113,1.614183,0.113956,-0.3824903,1.573194,0.001235838,-0.1333796,1.620483,0.4720501,-0.03848557,1.432787,NA,NA,NotTracked,Unknown,
0.9287109,-0.3476563,0.1166992,-0.6689453,0.6337891,0.01660156,-1,-1,-2,0,-1,-1,0,-2,-3,-5,-1,3,27,1,-5,4,-0.625,-0.625,-0.625,13.5625,13.5625,13.5625,3.027864,3.127816,2.741271,7.424691,6.273552,0.03061538,0.007958439,-0.4381413,1.5169,0.2992653,0.2116611,1.430781,0.2289719,0.401388,1.617933,-0.04129376,-0.4435455,1.529599,0.2796662,0.1891961,1.447727,0.2140426,-0.06548495,1.616061,0.2032926,-0.3916625,1.599157,0.0448104,0.1236988,1.613882,0.1136618,-0.3825295,1.573279,0.001519071,-0.132363,1.620028,0.473209,-0.03672139,1.430356,NA,NA,NotTracked,Lasso,
0.9140625,-0.3637695,0.1108398,-0.65625,0.7490234,0.08642578,-2,-1,-2,0,-1,-1,0,0,12,48,25,2,-3,-1,-18,9,-2.75,-2.75,-2.75,3.6875,3.6875,3.6875,3.026775,3.126107,2.737962,7.365587,6.151214,9.927687,0.00832095,-0.4381619,1.515858,0.2837837,0.2063959,1.415152,0.2286246,0.4016056,1.617761,-0.03949985,-0.4506525,1.522407,0.2745474,0.1739088,1.437429,0.2138859,-0.06552731,1.616092,0.2031289,-0.3920437,1.598956,0.04487607,0.1236031,1.613747,0.1134667,-0.3827812,1.573281,0.001614177,-0.1319811,1.619699,0.4734913,-0.03661669,1.429846,NA,NA,NotTracked,Unknown,
0.9306641,-0.3535156,0.1098633,-0.6806641,0.8486328,0.1254883,-1,-3,-2,-2,-1,0,0,-3,4,-20,-15,-1,-2,-2,-9,11,2.375,2.375,2.375,-17.875,-17.875,-17.875,3.026766,3.124714,2.740183,7.323824,6.06212,9.893512,0.008411463,-0.4382922,1.517432,0.2839528,0.1829617,1.40637,0.2282243,0.4019445,1.617948,-0.04252448,-0.4593085,1.532769,0.3168895,0.1448209,1.500167,0.2133215,-0.06580552,1.616039,0.2028912,-0.3927478,1.598843,0.04481507,0.1236124,1.61368,0.1131508,-0.3833928,1.573503,0.001748842,-0.1323233,1.619573,0.4733893,-0.03792786,1.430859,NA,NA,NotTracked,Unknown,
0.9316406,-0.355957,0.1142578,-0.7167969,0.8364258,0.1196289,-1,0,-3,-1,-1,0,0,-1,6,2,4,6,1,-9,7,-4,2.1875,2.1875,2.1875,-17.6875,-17.6875,-17.6875,3.01986,3.121635,2.751815,7.287556,6.039227,9.887911,0.008682181,-0.4380328,1.516577,0.258578,0.1953641,1.415459,0.2280498,0.402173,1.617838,-0.0409672,-0.451112,1.526372,0.2895756,0.2026994,1.381292,0.2127937,-0.06588677,1.61586,0.2027549,-0.3933232,1.598518,0.04457317,0.1236886,1.613499,0.1130462,-0.3839018,1.573513,0.001859989,-0.1340101,1.618743,0.4734379,-0.04004972,1.433118,NA,NA,NotTracked,Unknown,
0.909668,-0.3500977,0.1044922,-0.7407227,0.8046875,0.07226563,0,-1,0,-1,-1,-2,-2,-1,-23,-21,-16,-1,0,0,-13,-13,1.4375,1.4375,1.4375,-10.8125,-10.8125,-10.8125,3.011741,3.118716,2.763075,7.258295,6.081576,9.897516,0.007282333,-0.4372218,1.516679,0.2869383,0.1697407,1.420208,0.2280564,0.4022616,1.617645,-0.0419817,-0.4484316,1.526917,0.3049975,0.1281875,1.500615,0.2123994,-0.06584201,1.615703,0.2025617,-0.3936732,1.598232,0.04429593,0.1240083,1.613303,0.1128837,-0.3842173,1.573462,0.001690965,-0.134226,1.618288,0.47389,-0.04229975,1.435942,NA,NA,NotTracked,Unknown,
0.9223633,-0.3666992,0.1220703,-0.7485352,0.7519531,0.07177734,-3,-1,0,-2,-2,-2,0,-1,4,6,9,1,1,-4,-9,-11,-1.4375,-1.4375,-1.4375,-4.9375,-4.9375,-4.9375,2.998502,3.115835,2.774634,7.266663,6.144885,9.925579,0.00656548,-0.4375912,1.516951,0.294303,0.1752806,1.429899,0.2282505,0.4025263,1.617034,-0.04237489,-0.4496746,1.526278,0.3059794,0.1265245,1.502733,0.2119938,-0.06619699,1.614504,0.2024797,-0.3938235,1.598048,0.04418591,0.1241719,1.612946,0.1128093,-0.3843408,1.573424,0.001342812,-0.1350904,1.617372,0.4745374,-0.04334799,1.437424,NA,NA,NotTracked,Unknown,
0.9248047,-0.355957,0.1186523,-0.7724609,0.7255859,0.03955078,-1,0,1,-2,-2,-3,-2,0,-3,-4,-4,-1,-2,-3,8,2,-0.8125,-0.8125,-0.8125,18.9375,18.9375,18.9375,2.992362,3.115452,2.781908,7.312795,6.222623,9.960068,0.005698623,-0.4374873,1.516542,0.3025318,0.1843991,1.438049,0.2286335,0.402429,1.616217,-0.04358289,-0.4518633,1.525809,0.3147357,0.1268753,1.511605,0.2119239,-0.06618655,1.614462,0.2023252,-0.3939325,1.597728,0.04424571,0.1242727,1.612494,0.1126609,-0.3843997,1.573181,0.0009320781,-0.1349028,1.61694,0.4751652,-0.04268627,1.436797,NA,NA,NotTracked,Unknown,
0.9189453,-0.362793,0.1308594,-0.7490234,0.6586914,0.05957031,0,-1,-2,-1,-1,-1,0,-1,-4,0,1,-7,0,-2,0,4,-2.5625,-2.5625,-2.5625,32.9375,32.9375,32.9375,2.992563,3.117604,2.777922,7.398052,6.302674,9.989094,0.005027076,-0.4366851,1.514693,0.3082007,0.1978972,1.435746,0.2291983,0.4020705,1.615446,-0.04410881,-0.4466116,1.525193,0.3192501,0.1313519,1.513905,0.2119259,-0.06618066,1.614422,0.2022065,-0.3939113,1.59723,0.04469838,0.1243761,1.611561,0.1124488,-0.3842712,1.572629,0.0005440148,-0.1345192,1.61617,0.4764136,-0.04155178,1.435158,NA,NA,NotTracked,Unknown,
0.9257813,-0.3535156,0.1210938,-0.7089844,0.6279297,0.05908203,-1,-1,-1,-1,-3,0,-1,-2,8,4,2,-5,-9,-2,-4,-4,-2.25,-2.25,-2.25,27.8125,27.8125,27.8125,3.000683,3.124539,2.765023,7.459321,6.3421,0.004430518,0.00563912,-0.4371154,1.512137,0.2567361,0.2765094,1.474663,0.2296443,0.4018176,1.614358,-0.04318885,-0.4496595,1.523089,0.2066736,0.2647914,1.498257,0.2134227,-0.06624021,1.612895,0.2021363,-0.3937346,1.596776,0.04561847,0.1245797,1.610284,0.1122559,-0.3839073,1.571972,0.0005266622,-0.1327467,1.615293,0.4779762,-0.03822178,1.431209,NA,NA,NotTracked,Unknown,
0.9306641,-0.3564453,0.1166992,-0.7124023,0.6088867,0.02001953,0,0,-1,-1,0,-2,-1,-3,-6,-10,-7,-2,-1,1,9,-5,-0.1875,-0.1875,-0.1875,25.375,25.375,25.375,3.010155,3.12888,2.7542,7.504653,6.362147,0.001291676,0.006479708,-0.4362088,1.510373,0.2570328,0.2788893,1.468785,0.2299773,0.4018712,1.613045,-0.04056929,-0.441896,1.514,0.2085004,0.2642815,1.501916,0.2147312,-0.06571096,1.611937,0.202116,-0.393393,1.596245,0.04647611,0.1248126,1.608984,0.1120921,-0.3834018,1.571299,0.0008236208,-0.1311969,1.614431,0.4789236,-0.03332278,1.426162,NA,NA,NotTracked,Unknown,
0.9223633,-0.3496094,0.1166992,-0.6635742,0.6289063,0.04736328,0,-1,-3,-1,1,-3,-1,0,2,4,2,6,1,-3,1,-11,0.375,0.375,0.375,10.8125,10.8125,10.8125,3.020672,3.1315,2.742832,7.493866,6.313961,9.943236,0.008303553,-0.4354886,1.508512,0.3952215,0.09372199,1.421941,0.2301006,0.4022436,1.611581,-0.041903,-0.4493983,1.518674,0.3700401,0.07181107,1.501274,0.21504,-0.06544204,1.611747,0.2021129,-0.3932241,1.595768,0.04713804,0.1248943,1.607854,0.1119732,-0.3830777,1.570528,0.001129709,-0.1295609,1.613572,0.479358,-0.03070887,1.423033,NA,NA,NotTracked,Unknown,
0.9301758,-0.3486328,0.1000977,-0.6616211,0.6645508,0.08691406,-1,-1,-1,-2,-1,-1,-1,-1,-3,5,0,3,9,2,1,-4,3.4375,3.4375,3.4375,0.1875,0.1875,0.1875,3.02818,3.132441,2.740822,7.449666,6.247471,9.883225,0.009371903,-0.4357316,1.507897,0.3927982,0.09205133,1.40342,0.2300743,0.4025157,1.611365,-0.04047266,-0.448232,1.51589,0.3913363,0.05964127,1.484778,0.2149357,-0.06538422,1.611916,0.2020946,-0.3932798,1.595575,0.04733742,0.1248521,1.607529,0.111894,-0.383108,1.570345,0.001610342,-0.1293259,1.613251,0.4790092,-0.02961816,1.420782,NA,NA,NotTracked,Unknown,
0.9306641,-0.3515625,0.1054688,-0.6582031,0.7138672,0.07861328,1,-2,-2,-1,-3,-2,-3,-1,-11,3,0,-1,7,0,3,-8,2.8125,2.8125,2.8125,-9.6875,-9.6875,-9.6875,3.029454,3.129827,2.743802,7.398189,6.182412,9.834213,0.009525758,-0.4367403,1.509247,0.2850282,0.2016879,1.385675,0.2298946,0.4028349,1.611283,-0.03958355,-0.4563392,1.514067,0.2765718,0.1694607,1.408364,0.2146642,-0.06538246,1.612009,0.2020747,-0.3933231,1.595416,0.04734224,0.1248857,1.607463,0.1118565,-0.3831213,1.570313,0.001739405,-0.1292891,1.613001,0.4766422,-0.0288216,1.418073,NA,NA,NotTracked,Unknown,
0.921875,-0.362793,0.112793,-0.6162109,0.8110352,0.1083984,-2,-1,-2,-1,-1,-1,0,1,-4,-12,-9,-6,-12,-2,6,-2,1.9375,1.9375,1.9375,-16.9375,-16.9375,-16.9375,3.025654,3.12388,2.748709,7.346021,6.116341,9.79321,0.009393129,-0.4354043,1.511936,0.2632858,0.2012177,1.380026,0.229874,0.4030361,1.611342,-0.03957912,-0.437934,1.521813,0.2026818,0.211697,1.394818,0.2142628,-0.06556712,1.611978,0.2020704,-0.3936747,1.595119,0.04726406,0.1249187,1.607505,0.1118471,-0.3834969,1.570273,0.001737931,-0.1295265,1.612923,0.4738446,-0.03202992,1.418976,NA,NA,NotTracked,Unknown,
0.9267578,-0.355957,0.1103516,-0.6557617,0.8349609,0.1591797,-2,0,-1,-2,1,0,-2,-1,-9,-5,5,-1,3,1,2,8,4.125,4.125,4.125,-21.5,-21.5,-21.5,3.018898,3.117971,2.762949,7.267684,6.054118,9.753798,0.008347555,-0.4354278,1.514302,0.2608349,0.1902281,1.379585,0.229693,0.4033552,1.611513,-0.04084893,-0.44487,1.520467,0.243229,0.1607173,1.387951,0.2135862,-0.06564356,1.611984,0.2020516,-0.3939852,1.594868,0.04687859,0.1250691,1.607645,0.1118471,-0.3839019,1.570226,0.001723949,-0.1318109,1.613073,0.4711956,-0.03700136,1.422062,NA,NA,NotTracked,Unknown,
0.9213867,-0.362793,0.1166992,-0.6894531,0.8066406,0.1181641,-1,0,-5,-1,-1,-2,0,0,-19,-11,-11,-6,-4,0,-7,4,3.4375,3.4375,3.4375,-22.5,-22.5,-22.5,3.009312,3.114932,2.780094,7.221391,6.040863,9.742055,0.0076647,-0.4359888,1.515636,0.2628621,0.1785346,1.385916,0.2296641,0.4034018,1.611629,-0.04116128,-0.4359649,1.521308,0.2494363,0.1435933,1.38875,0.2131937,-0.06566709,1.612076,0.2021088,-0.394231,1.594725,0.04645684,0.1250187,1.60791,0.111989,-0.384345,1.570273,0.001559913,-0.1323071,1.613239,0.4695444,-0.04212704,1.426805,NA,NA,NotTracked,Unknown,
0.9155273,-0.3574219,0.1181641,-0.7060547,0.7749023,0.1005859,-3,0,-2,-1,-1,1,-2,0,4,-1,-1,-1,1,-3,2,-7,-2.5,-2.5,-2.5,-15.5625,-15.5625,-15.5625,2.995313,3.108483,2.795593,7.200121,6.063006,9.749375,0.005964868,-0.4370334,1.518304,0.2833086,0.1627915,1.394524,0.2297743,0.4033712,1.611847,-0.04433347,-0.4440274,1.526642,0.2948202,0.1297437,1.48411,0.2126809,-0.0656087,1.612342,0.2020859,-0.3943989,1.594702,0.04597869,0.1251114,1.608309,0.1119728,-0.3846325,1.570406,0.001209439,-0.1331901,1.613695,0.4683009,-0.04774518,1.433168,NA,NA,NotTracked,Closed,
0.9204102,-0.3686523,0.1245117,-0.671875,0.6796875,0.1040039,-2,-2,0,0,-2,1,-3,-1,-15,-1,0,2,3,0,4,-3,-7.4375,-7.4375,-7.4375,-3.75,-3.75,-3.75,2.974565,3.098399,2.798656,7.183059,6.09644,9.749608,0.004682833,-0.4370123,1.519063,0.2766739,0.1737189,1.399749,0.2300871,0.4033708,1.611976,-0.04402022,-0.4426965,1.52291,0.2673636,0.1420421,1.454571,0.2124302,-0.0656794,1.612421,0.202059,-0.394526,1.594624,0.04590657,0.125144,1.608326,0.1119636,-0.3848212,1.57037,0.0007075482,-0.1341724,1.613802,0.4677305,-0.05020293,1.436669,NA,NA,NotTracked,Unknown,
0.9204102,-0.3579102,0.1293945,-0.5742188,0.6591797,0.1347656,-1,0,0,0,0,0,-1,0,0,-2,-3,-1,-2,-4,-1,-8,-5.375,-5.375,-5.375,1.625,1.625,1.625,2.97591,3.100242,2.787385,7.164657,6.061307,9.715247,0.004951948,-0.4376035,1.518693,0.2831682,0.1637067,1.392574,0.2304291,0.4034386,1.612428,-0.04384363,-0.4500461,1.522432,0.3040894,0.1249077,1.489375,0.2122204,-0.06572582,1.61256,0.2020323,-0.394616,1.594709,0.04585107,0.1252159,1.608416,0.1119345,-0.3849261,1.570506,0.000515628,-0.1343748,1.613797,0.4668515,-0.05221362,1.439388,NA,NA,NotTracked,Unknown,
0.9223633,-0.3554688,0.1240234,-0.5258789,0.6850586,0.1914063,-1,-1,-3,-1,-1,-2,-1,-1,-1,-1,-1,1,-3,1,-8,4,-1.9375,-1.9375,-1.9375,-3.6875,-3.6875,-3.6875,2.989042,3.109284,2.767789,7.126949,5.949042,9.660965,0.005899627,-0.4371824,1.516418,0.2615828,0.1553828,1.368062,0.2311767,0.4032418,1.612794,-0.04318807,-0.4438499,1.525146,0.2471086,0.1279628,1.389,0.2121426,-0.06570309,1.612856,0.2023109,-0.3947872,1.594814,0.04574079,0.1253023,1.608533,0.1123294,-0.3851599,1.570639,0.0006250052,-0.1345274,1.613735,0.4646553,-0.05304943,1.441206,NA,NA,NotTracked,Unknown,
0.9321289,-0.3530273,0.1196289,-0.4394531,0.722168,0.2226563,-1,-1,-1,-3,-1,0,0,-1,2,4,3,1,2,-3,-3,-2,-2.25,-2.25,-2.25,-5.125,-5.125,-5.125,3.007666,3.119459,2.743735,7.074442,5.681564,9.578925,0.008101352,-0.4366328,1.512766,0.2695512,0.1015872,1.34095,0.2329206,0.4020364,1.613169,-0.03943845,-0.4463674,1.518617,0.2471366,0.0811088,1.3652,0.2127245,-0.0661067,1.613276,0.2029619,-0.3949209,1.594967,0.04496491,0.1259161,1.60954,0.1132573,-0.385428,1.57041,0.001026049,-0.1347265,1.613529,0.4576964,-0.05471941,1.4437,NA,NA,NotTracked,Closed,
0.9277344,-0.3457031,0.1152344,-0.2055664,0.7998047,0.2495117,-1,-3,1,-2,-2,-1,-2,-1,-1,-5,-5,-2,-1,0,-2,0,-0.25,-0.25,-0.25,-1.25,-1.25,-1.25,3.036525,3.131738,2.712554,7.042994,5.394857,9.512458,0.01128943,-0.4359567,1.509975,0.2584136,0.04054921,1.309468,0.2348569,0.4014048,1.613838,-0.03538772,-0.4435123,1.515578,0.2169295,0.03376917,1.327,0.213633,-0.06568438,1.614425,0.2045349,-0.3935347,1.595616,0.04535248,0.125737,1.609493,0.1154366,-0.3842425,1.569449,0.001350625,-0.1348378,1.613389,0.4489064,-0.05609562,1.458851,NA,NA,NotTracked,Unknown,
0.9267578,-0.3461914,0.1118164,0.05175781,0.8706055,0.3618164,-1,-1,-3,0,0,-1,0,-1,-1,-2,-2,-3,-2,-1,6,1,3.4375,3.4375,3.4375,-3.5,-3.5,-3.5,3.051467,3.137614,2.698555,7.02667,5.065669,9.457083,0.013553,-0.4354986,1.508421,0.2579671,-0.0398614,1.285933,0.2360198,0.4012236,1.614773,-0.030765,-0.4362312,1.514848,0.1912022,-0.03937221,1.275,0.2138827,-0.06522124,1.614846,0.205171,-0.3915639,1.596041,0.0459902,0.12557,1.609359,0.1165549,-0.3823168,1.568631,0.002146857,-0.1348498,1.613252,0.4546505,-0.06995281,1.486248,NA,NA,NotTracked,Unknown,
0.9370117,-0.3554688,0.1044922,0.2207031,0.9301758,0.3535156,-1,-1,-1,0,-1,-1,0,-2,-2,3,0,-1,-1,-6,-5,-5,6.8125,6.8125,6.8125,-2.6875,-2.6875,-2.6875,3.059688,3.140032,2.698894,7.033909,4.625036,9.408738,0.01583623,-0.4374463,1.509273,0.262375,-0.1265933,1.2826,0.2364791,0.4010769,1.615274,-0.03430473,-0.4638917,1.521381,0.2135674,-0.1393051,1.277714,0.214408,-0.06491416,1.614953,0.2061484,-0.3899083,1.596243,0.04621112,0.1253695,1.609545,0.1177735,-0.3808208,1.568343,0.003166473,-0.1346734,1.613061,0.4964436,-0.08292837,1.475984,NA,NA,NotTracked,Closed,
0.9262695,-0.3583984,0.1064453,0.453125,0.9086914,0.3364258,0,0,0,-2,-1,1,-1,-1,-7,-2,0,2,1,-6,3,-2,5.875,5.875,5.875,-2.75,-2.75,-2.75,3.060077,3.137117,2.710233,7.040308,4.31712,9.369008,0.01602919,-0.4364477,1.511575,0.2764996,-0.2106319,1.295273,0.2366246,0.4009109,1.615602,-0.03177319,-0.4445004,1.52012,0.2392451,-0.2291974,1.28975,0.2146133,-0.06488924,1.614984,0.2061879,-0.3896063,1.596304,0.04614531,0.1252542,1.609913,0.1181347,-0.3804008,1.568065,0.004183196,-0.1348284,1.613472,0.4964949,-0.07737129,1.510647,NA,NA,NotTracked,Unknown,
0.9140625,-0.3647461,0.1157227,0.5952148,0.8491211,0.2954102,0,-2,-2,-2,0,0,1,-1,-5,-3,-4,-2,1,2,-3,-4,8.5625,8.5625,8.5625,-19.875,-19.875,-19.875,3.054102,3.131184,2.727764,7.03952,4.025065,9.321911,0.01489138,-0.4364612,1.513781,0.2916685,-0.2894627,1.314573,0.2367518,0.4007047,1.615779,-0.03315548,-0.4428612,1.523,0.2919806,-0.3267996,1.324,0.2146889,-0.06517667,1.614842,0.2055783,-0.389835,1.596271,0.04625234,0.1250218,1.610103,0.117686,-0.3802259,1.567867,0.004907362,-0.1361212,1.61383,0.4847693,-0.08551897,1.517496,NA,NA,NotTracked,Unknown,
0.9155273,-0.378418,0.1347656,0.8149414,0.7294922,0.1943359,0,0,-1,0,-1,-1,0,1,-13,-2,1,0,-1,-5,1,-2,3.4375,3.4375,3.4375,-8.4375,-8.4375,-8.4375,3.042051,3.124007,2.74888,7.066732,3.668954,9.235295,0.01444502,-0.4370025,1.516855,0.3214962,-0.3519653,1.347801,0.2367708,0.40065,1.615993,-0.03310345,-0.4399519,1.522323,0.2807421,-0.3456897,1.332129,0.214667,-0.06520581,1.614844,0.2043971,-0.3896632,1.596524,0.04622959,0.1249619,1.61052,0.1162525,-0.3793459,1.567844,0.005072321,-0.1368124,1.614578,0.4348249,-0.09854073,1.550386,NA,NA,NotTracked,Unknown,
0.9326172,-0.3779297,0.1396484,0.9663086,0.5258789,0.1333008,-3,-2,1,-2,-2,0,0,-1,-6,-1,1,1,-1,-5,3,6,4.9375,4.9375,4.9375,-50.3125,-50.3125,-50.3125,3.029107,3.120282,2.774679,7.075498,3.458188,9.131764,0.01318262,-0.435944,1.516985,0.3517363,-0.3997891,1.387803,0.2368117,0.4006106,1.61602,-0.03563552,-0.4456052,1.524995,0.3191057,-0.3949367,1.362466,0.2147949,-0.06533036,1.614658,0.2042731,-0.389634,1.596482,0.04621741,0.1248149,1.61088,0.1160139,-0.3791497,1.567611,0.005230581,-0.1384376,1.6152,0.4252297,-0.111518,1.554652,NA,NA,NotTracked,Unknown,
0.9335938,-0.3686523,0.1201172,1.039063,0.4638672,0.03369141,-1,-2,-3,-1,-1,-1,-2,-2,3,1,-2,0,-2,2,-4,5,3.875,3.875,3.875,9.875,9.875,9.875,3.028788,3.122211,2.782966,7.148455,3.273139,9.034664,0.01232936,-0.4365035,1.517988,0.3764436,-0.4346826,1.424638,0.2368097,0.4006076,1.616018,-0.03694594,-0.4468352,1.529962,0.3404475,-0.4279999,1.416211,0.2154353,-0.06564172,1.614406,0.2054526,-0.389984,1.596226,0.04620549,0.1247254,1.611196,0.1172781,-0.3793239,1.566953,0.005133735,-0.1398907,1.616154,0.4215899,-0.1293199,1.558476,NA,NA,NotTracked,Unknown,
0.9082031,-0.3623047,0.1113281,0.965332,0.4169922,0.09228516,-1,-1,-1,-1,-2,-2,-1,0,-2,-1,-3,0,-3,1,-3,4,1.3125,1.3125,1.3125,-12.1875,-12.1875,-12.1875,3.029412,3.123625,2.78761,7.172965,3.132776,8.993218,0.01224048,-0.4366116,1.51811,0.3876174,-0.4504373,1.461139,0.236848,0.40055,1.615948,-0.03755354,-0.4375134,1.53376,0.3345966,-0.4239281,1.462,0.2167441,-0.06611568,1.613935,0.208302,-0.3905545,1.595909,0.04625569,0.1247538,1.611412,0.1202901,-0.3798996,1.566188,0.005133545,-0.1403598,1.616616,0.4223344,-0.1345455,1.56416,NA,NA,NotTracked,Unknown,
