ALX,ALY,ALZ,ARX,ARY,ARZ,EMG0L,EMG1L,EMG2L,EMG3L,EMG4L,EMG5L,EMG6L,EMG7L,EMG0R,EMG1R,EMG2R,EMG3R,EMG4R,EMG5R,EMG6R,EMG7R,GLX,GLY,GLZ,GRX,GRY,GRZ,ORL,OPL,OYL,ORR,OPR,OYR,LHNX,LHNY,LHNZ,RHNX,RHNY,RHNZ,HX,HY,HZ,LTX,LTY,LTZ,RTX,RTY,RTZ,SpineMidX,SpineMidY,SpineMidZ,SpineBaseX,SpineBaseY,SpineBaseZ,ShoulderLeftX,ShoulderLeftY,ShoulderLeftZ,ShoulderRightX,ShoulderRightY,ShoulderRightZ,ElbowLeftX,ElbowLeftY,ElbowLeftZ,ElbowRightX,ElbowRightY,ElbowRightZ,Myo_Pose_left,Myo_Pose_Right,Kinect_pose_left,Kinect_pose_right
0.9438477,-0.2504883,0.1513672,0.9467773,0.2172852,0.128418,-2,0,-1,-2,-2,-1,-1,-1,-2,-1,-2,-3,-4,0,-1,-1,1.5,1.5,1.5,0.0625,0.0625,0.0625,3.41362,2.987911,5.435348,6.625531,2.912762,3.276367,-0.1140464,-0.3980975,1.577289,0.2143837,-0.3947223,1.576714,0.05737515,0.4483564,1.640406,-0.07155927,-0.3913997,1.574913,0.1711652,-0.3776419,1.557213,0.0566791,-0.02467825,1.683453,0.05469135,-0.350383,1.676519,-0.1267099,0.1677975,1.664138,-0.0330224,-0.3424259,1.637064,-0.1628008,-0.07825911,1.662225,0.2744915,-0.08648671,1.67186,NA,NA,NotTracked,NotTracked,
0.9516602,-0.2563477,0.1665039,0.9545898,0.2104492,0.1240234,-2,2,0,-2,-3,0,0,-2,-2,-1,-2,2,-1,-10,-5,-3,-0.75,-0.75,-0.75,-1.1875,-1.1875,-1.1875,3.413072,2.988153,5.436572,6.625584,2.911754,3.275202,-0.1145545,-0.3981705,1.576894,0.2144542,-0.3940034,1.576415,0.05734631,0.4483607,1.640358,-0.07241882,-0.3903831,1.574979,0.171555,-0.3757462,1.556988,0.05663905,-0.02469767,1.683394,0.05464188,-0.3504134,1.67644,-0.1266938,0.1677679,1.664103,-0.03308922,-0.3424622,1.636982,-0.1629428,-0.07813025,1.662194,0.2744571,-0.08638178,1.671684,NA,NA,NotTracked,NotTracked,
0.9511719,-0.2529297,0.1699219,0.9467773,0.2114258,0.1191406,0,-1,-1,-1,-1,0,-2,0,0,-2,0,18,1,-1,-1,0,0.25,0.25,0.25,-0.4375,-0.4375,-0.4375,3.413072,2.988153,5.436572,6.624876,2.911089,3.274534,-0.1141472,-0.3981767,1.576929,0.2145095,-0.3943404,1.576051,0.0573229,0.4483527,1.640288,-0.07147874,-0.3922841,1.573532,0.1713682,-0.3761482,1.557782,0.05660679,-0.02467692,1.683288,0.054589,-0.3504,1.676309,-0.1266919,0.167747,1.663951,-0.03314223,-0.3424318,1.636791,-0.1630439,-0.07799111,1.662033,0.2742635,-0.08670042,1.671215,NA,NA,NotTracked,NotTracked,
0.949707,-0.2543945,0.1630859,0.9492188,0.2167969,0.1357422,-8,0,1,-2,0,-1,0,0,-2,-2,0,-5,-1,3,2,2,0,0,0,-0.6875,-0.6875,-0.6875,3.413512,2.988265,5.436069,6.624876,2.911089,3.274534,-0.1148446,-0.3980159,1.576587,0.2146112,-0.3945503,1.576618,0.05730563,0.4483879,1.640228,-0.07176974,-0.3916746,1.574926,0.1714131,-0.373926,1.556809,0.05660289,-0.02466493,1.683201,0.05450416,-0.3504198,1.676184,-0.12668,0.1677008,1.663856,-0.03323685,-0.3424372,1.636622,-0.1631221,-0.0780211,1.661947,0.2741957,-0.08674332,1.671018,NA,NA,NotTracked,NotTracked,
0.9501953,-0.2504883,0.1577148,0.9482422,0.2114258,0.1303711,-1,0,-2,0,-2,0,0,-1,2,0,0,-2,0,1,-1,-1,-0.5625,-0.5625,-0.5625,-0.25,-0.25,-0.25,3.414306,2.988182,5.435322,6.625137,2.911132,3.274133,-0.114705,-0.3982018,1.576675,0.2143882,-0.3940839,1.576261,0.05727959,0.4484065,1.640205,-0.0717765,-0.3838902,1.573045,0.1726878,-0.3993158,1.550631,0.05659469,-0.02463987,1.683128,0.05444166,-0.3503643,1.676097,-0.1266656,0.1676534,1.663774,-0.03329216,-0.3423755,1.636544,-0.1631468,-0.07812661,1.66184,0.2741505,-0.08678067,1.670907,NA,NA,NotTracked,NotTracked,
0.9482422,-0.2519531,0.1645508,0.9477539,0.2192383,0.1235352,-1,1,1,6,4,0,-23,-5,-2,-1,0,0,-3,-3,0,-1,0,0,0,0,0,0,3.413866,2.98807,5.435826,6.625677,2.910962,3.272761,-0.1146898,-0.3983605,1.577164,0.214294,-0.3946236,1.577353,0.05727656,0.4484268,1.640025,-0.07289796,-0.3924237,1.574216,0.1712173,-0.3754402,1.559829,0.05649179,-0.02468589,1.682974,0.05442747,-0.3504109,1.675932,-0.126614,0.1676743,1.663616,-0.0333092,-0.3423919,1.636404,-0.1632849,-0.0780689,1.661695,0.2740933,-0.08679809,1.670798,NA,NA,NotTracked,NotTracked,
0.9814453,-0.284668,0.1567383,0.9379883,0.2060547,0.140625,-2,-3,-2,-4,-2,-4,-6,1,-1,0,-1,13,1,-6,0,0,-6.375,-6.375,-6.375,0.0625,0.0625,0.0625,3.426811,2.999593,5.417834,6.619645,2.912041,3.27519,-0.1133885,-0.3964282,1.57242,0.2144694,-0.3949001,1.577205,0.05729128,0.4484246,1.639982,-0.07475738,-0.3862893,1.576002,0.1708962,-0.3814796,1.558651,0.05651869,-0.02466701,1.682912,0.0544116,-0.3504204,1.675864,-0.1265843,0.1676223,1.663617,-0.03332546,-0.3424051,1.636327,-0.1634588,-0.07775953,1.661792,0.2740598,-0.08678602,1.670777,NA,NA,NotTracked,NotTracked,
0.9614258,-0.3276367,0.2319336,0.9580078,0.2304688,0.140625,2,-1,1,0,-4,5,2,0,-1,-1,0,-4,0,-3,-2,-2,5.375,5.375,5.375,1.3125,1.3125,1.3125,3.478598,3.076664,5.371223,6.624146,2.914355,3.275947,-0.1109907,-0.3920313,1.561899,0.2141555,-0.3938713,1.576578,0.05731235,0.4484224,1.639986,-0.08090678,-0.3658626,1.584369,0.1709522,-0.3773761,1.557607,0.05661478,-0.0246829,1.682797,0.05450508,-0.3504219,1.675685,-0.1265699,0.1676395,1.663616,-0.03325123,-0.342406,1.636099,-0.1638509,-0.07693914,1.662669,0.2740546,-0.08674993,1.67076,NA,NA,NotTracked,NotTracked,
1.134277,-0.3232422,0.2353516,0.9555664,0.1977539,0.121582,3,3,24,-16,-42,7,5,-2,-2,-1,-1,0,1,2,1,-2,-2.8125,-2.8125,-2.8125,-0.0625,-0.0625,-0.0625,3.523874,3.182055,5.322011,6.620737,2.915844,3.279617,-0.1131088,-0.3360978,1.555228,0.2143209,-0.394634,1.576837,0.05742875,0.4484455,1.640054,-0.08206708,-0.3142122,1.575305,0.1707076,-0.3818977,1.556872,0.05680147,-0.0247024,1.682611,0.05528354,-0.350483,1.675152,-0.1264866,0.1677095,1.663646,-0.03253241,-0.3426471,1.635509,-0.1646829,-0.0751335,1.665192,0.2740567,-0.08671857,1.670747,NA,NA,NotTracked,NotTracked,
1.131836,-0.5380859,0.4101563,0.956543,0.1904297,0.1088867,-7,-2,-1,38,88,28,-1,-6,1,0,0,2,-2,8,0,0,-27.3125,-27.3125,-27.3125,-2.0625,-2.0625,-2.0625,3.576595,3.404744,5.228323,6.617871,2.918274,3.279422,-0.07224698,-0.308848,1.520645,0.2145341,-0.3944715,1.576243,0.05756325,0.4484395,1.640157,-0.02918171,-0.343136,1.557455,0.1711262,-0.3822882,1.557174,0.05764605,-0.02457505,1.682195,0.05811118,-0.3500957,1.673721,-0.1259499,0.1683579,1.663943,-0.02985825,-0.3427466,1.634185,-0.1668741,-0.06403086,1.674756,0.2741039,-0.08648749,1.670888,NA,NA,Unknown,NotTracked,
0.8037109,-0.7387695,0.6992188,0.9189453,0.2299805,0.1499023,-6,0,6,8,61,8,-15,-5,-1,-1,1,27,6,0,0,-1,-5,-5,-5,2.0625,2.0625,2.0625,3.608843,3.753749,5.16499,6.621418,2.923899,3.279747,-0.04898532,-0.2368644,1.479699,0.214034,-0.3940328,1.575669,0.05761124,0.4483977,1.64018,-0.03676995,-0.3093499,1.511696,0.1725758,-0.3994398,1.549857,0.05797158,-0.02448393,1.682147,0.05875476,-0.3498944,1.673619,-0.1244294,0.1702422,1.664707,-0.02907307,-0.3425422,1.63393,-0.1698973,-0.0528894,1.686326,0.2742114,-0.08616783,1.671085,NA,NA,Unknown,NotTracked,
0.2451172,-0.6254883,0.4526367,0.9516602,0.2363281,0.1665039,7,-5,4,-5,10,3,-18,-9,1,-2,-5,-6,1,9,3,0,-2.9375,-2.9375,-2.9375,2.8125,2.8125,2.8125,3.613736,4.288171,5.165937,6.60768,2.93273,3.294687,-0.03443225,-0.1572433,1.438922,0.213842,-0.3936374,1.575879,0.05762986,0.4483371,1.640285,-0.004748289,-0.2020612,1.492875,0.1709276,-0.3745697,1.556324,0.05789571,-0.02437402,1.682394,0.05833403,-0.3494414,1.674367,-0.1235421,0.1716927,1.66581,-0.02933557,-0.3418913,1.634376,-0.1714882,-0.04322143,1.685769,0.2742696,-0.08573759,1.671724,NA,NA,Unknown,NotTracked,
0.1523438,-0.6474609,0.4355469,0.934082,0.2524414,0.1459961,-4,-4,-24,-6,-9,-16,4,-13,1,-2,-1,5,2,1,2,0,-13.5625,-13.5625,-13.5625,6.125,6.125,6.125,3.593563,4.620814,5.173314,6.599526,2.944714,3.313065,-0.03908166,-0.09439507,1.380644,0.2130946,-0.3932015,1.576006,0.05766719,0.4484316,1.640974,0.004448477,-0.109557,1.486,0.1714098,-0.3881123,1.554155,0.05763412,-0.02414026,1.68291,0.05716566,-0.3487743,1.675293,-0.1236716,0.1724395,1.666244,-0.03019247,-0.3408633,1.635179,-0.2167718,-0.06331332,1.634217,0.2742882,-0.08519394,1.67278,NA,NA,Unknown,NotTracked,
0.1513672,-0.6977539,0.5253906,0.9458008,0.230957,0.1171875,-10,-7,-2,-2,-5,-23,-31,-5,-1,-1,-1,-9,3,2,-2,-2,-17.0625,-17.0625,-17.0625,4.75,4.75,4.75,3.562982,4.840394,5.168219,6.60759,2.955425,3.320923,-0.04003116,-0.05635899,1.363329,0.2131051,-0.3902132,1.576146,0.05801724,0.4483878,1.642207,0.005201916,-0.0751965,1.3875,0.1720951,-0.3635139,1.554689,0.05757612,-0.02389319,1.683698,0.05678447,-0.3482365,1.675894,-0.1231957,0.172628,1.666349,-0.0304573,-0.3401424,1.635601,-0.2185276,-0.06650436,1.633909,0.2743612,-0.08506612,1.673289,NA,NA,Unknown,NotTracked,
0.1313477,-0.7094727,0.5571289,0.9541016,0.2119141,0.1499023,-7,-48,-45,1,4,13,-4,4,0,-2,-1,-1,1,4,1,0,-30,-30,-30,3.8125,3.8125,3.8125,3.523536,4.95357,5.154921,6.60444,2.964979,3.330709,-0.04268902,-0.03835304,1.354026,0.2127153,-0.3894678,1.57669,0.05875408,0.448621,1.64476,-0.001843603,-0.05645977,1.3559,0.1697791,-0.3817185,1.558456,0.05763843,-0.02347911,1.684918,0.0564898,-0.3476937,1.676691,-0.1221278,0.1735468,1.666728,-0.03065578,-0.339421,1.636127,-0.222146,-0.06977089,1.624211,0.2746031,-0.08473942,1.673912,NA,NA,Closed,NotTracked,
0.1147461,-0.7099609,0.5991211,0.9921875,0.2724609,0.140625,-1,5,0,-2,-5,22,28,0,1,4,16,6,-1,5,2,1,-20.9375,-20.9375,-20.9375,7,7,7,3.4865,4.989689,5.135805,6.591285,2.987022,3.356862,-0.04604329,-0.03445923,1.348969,0.2125877,-0.3886862,1.576762,0.05937336,0.4485242,1.646723,-0.00294251,-0.05427954,1.3575,0.167838,-0.3950958,1.5535,0.05768987,-0.02323472,1.68596,0.05618188,-0.3472448,1.677537,-0.1209969,0.1743198,1.667002,-0.03086833,-0.3388131,1.63664,-0.2276239,-0.06965584,1.61351,0.2748948,-0.08454147,1.675024,NA,NA,Closed,NotTracked,
0.04248047,-0.7788086,0.628418,1.10498,0.3847656,0.1708984,-1,-5,-7,-1,-2,-15,-11,2,0,-51,-93,-5,-2,-1,0,-1,2.1875,2.1875,2.1875,34.5625,34.5625,34.5625,3.483731,4.978177,5.130657,6.603333,3.052235,3.392204,-0.04725388,-0.03558653,1.346822,0.2114028,-0.3873352,1.574874,0.05987736,0.4484476,1.648194,0.001649889,-0.042965,1.349375,0.1694423,-0.3829428,1.554336,0.05772623,-0.02310136,1.686658,0.0559459,-0.3469681,1.677864,-0.120447,0.1747867,1.667002,-0.03106288,-0.3384138,1.636812,-0.2306203,-0.06816463,1.605969,0.2754125,-0.08426391,1.676256,NA,NA,Unknown,NotTracked,
-0.002929688,-0.8100586,0.6040039,1.130859,0.487793,0.2817383,-4,6,1,1,9,-3,20,-7,-3,-12,103,0,-5,-5,-4,-4,3.375,3.375,3.375,105.4375,105.4375,105.4375,3.494487,4.970013,5.132133,6.612307,3.256373,3.50264,-0.04828418,-0.03874855,1.348531,0.2058853,-0.3819082,1.560735,0.06025092,0.4482924,1.649328,-0.002005111,-0.05383742,1.356122,0.1647739,-0.3659018,1.5482,0.05748562,-0.02295683,1.687379,0.05543577,-0.3466383,1.67826,-0.1201648,0.1750866,1.667126,-0.03156932,-0.3379074,1.637051,-0.2309529,-0.06735391,1.605985,0.2765869,-0.08342028,1.679687,NA,NA,Unknown,NotTracked,
0.01660156,-0.8413086,0.5942383,0.9204102,0.9628906,0.3857422,-4,-3,-19,-3,-2,1,14,4,11,-2,-11,-36,2,-2,1,5,8.8125,8.8125,8.8125,43.8125,43.8125,43.8125,3.503217,4.960515,5.13168,6.691804,3.609634,3.549898,-0.0476189,-0.04083726,1.349451,0.1942672,-0.321198,1.525147,0.06039317,0.4481022,1.649897,-0.004772896,-0.05761477,1.355214,0.1504627,-0.3259844,1.507512,0.05675083,-0.02282348,1.687752,0.05287287,-0.3460796,1.678293,-0.1208361,0.1754454,1.667097,-0.03439537,-0.3367222,1.636942,-0.2304158,-0.06798096,1.605203,0.2824401,-0.07620101,1.68721,NA,NA,Unknown,Unknown,
-0.015625,-0.8447266,0.5825195,0.2836914,0.659668,0.4750977,0,0,-10,-2,-9,2,13,-2,-1,-3,3,-25,6,-11,-11,-5,5.1875,5.1875,5.1875,-52.0625,-52.0625,-52.0625,3.513493,4.957996,5.127819,6.623403,4.18757,3.558224,-0.04575632,-0.04180678,1.351166,0.1606072,-0.2395958,1.493725,0.06041488,0.4478953,1.650193,-0.003584962,-0.05700503,1.355631,0.1664045,-0.2279273,1.431279,0.056463,-0.02287764,1.687957,0.05116506,-0.3460906,1.678249,-0.1212424,0.1758151,1.667316,-0.0355848,-0.3364177,1.637046,-0.2297136,-0.06783362,1.606629,0.2947249,-0.0525167,1.693297,NA,NA,Closed,Unknown,
-0.02832031,-0.8012695,0.5932617,0.07910156,0.6938477,0.3989258,0,-5,11,-1,6,4,1,4,-1,-16,-4,-9,4,14,0,-1,2,2,2,9.4375,9.4375,9.4375,3.529027,4.972419,5.122938,6.622272,4.559471,3.544814,-0.04511616,-0.04013274,1.35214,0.08946243,-0.22763,1.507735,0.06062501,0.447561,1.650582,-0.001829241,-0.05582825,1.35783,0.04365308,-0.1911051,1.496459,0.05671841,-0.02270962,1.688492,0.05084534,-0.345741,1.678674,-0.1205603,0.1760481,1.667586,-0.03565982,-0.3360952,1.637506,-0.2291534,-0.06794023,1.608809,0.295377,-0.08394866,1.626945,NA,NA,Unknown,Lasso,
-0.02978516,-0.8481445,0.6113281,0.07617188,0.5283203,0.4311523,-13,15,6,2,13,5,22,-2,13,-1,0,-36,0,-14,-4,7,6.1875,6.1875,6.1875,11.25,11.25,11.25,3.527942,4.990815,5.118357,6.624265,4.800729,3.542871,-0.04301112,-0.03675144,1.351854,0.1626263,-0.09341919,1.407757,0.06087918,0.4472738,1.651113,-0.001974601,-0.05424216,1.355602,0.1635325,-0.09653472,1.363886,0.05656411,-0.02263126,1.689193,0.05094056,-0.3454092,1.679184,-0.1202597,0.1761483,1.667819,-0.03547031,-0.3358118,1.638369,-0.2285379,-0.06772736,1.611887,0.3088292,-0.04773371,1.66468,NA,NA,Closed,Lasso,
0.0004882813,-0.8168945,0.6103516,0.1503906,0.6474609,0.4897461,-3,0,5,3,0,-1,-2,-9,-13,3,-3,-5,-5,-9,-3,0,-0.75,-0.75,-0.75,14.75,14.75,14.75,3.532801,5.006828,5.1103,6.650622,4.915504,3.551141,-0.04080645,-0.0335247,1.352766,0.1570605,-0.06537466,1.389495,0.06106938,0.4471121,1.65207,-0.0006275381,-0.05198105,1.354572,0.1478729,-0.03242926,1.364842,0.056384,-0.02276755,1.690139,0.05085821,-0.3452657,1.679941,-0.1196606,0.1764537,1.668167,-0.03553511,-0.3356737,1.639435,-0.2281049,-0.06755511,1.610551,0.3123943,-0.04324478,1.648914,NA,NA,Closed,Lasso,
0.0004882813,-0.8022461,0.59375,0.1445313,0.6586914,0.4233398,-3,-4,-20,-1,0,-1,-26,-3,-4,-6,-7,-5,7,19,4,0,0.875,0.875,0.875,18.4375,18.4375,18.4375,3.531364,5.020024,5.101375,6.673495,4.889882,3.563471,-0.03801228,-0.03083347,1.352268,0.1524682,-0.06260693,1.374868,0.06120966,0.4469084,1.653456,0.007279236,-0.04808546,1.36525,0.1511282,-0.05754425,1.330936,0.05624454,-0.02274828,1.691255,0.05118101,-0.3450176,1.680909,-0.1197617,0.1765476,1.668486,-0.03516201,-0.3355955,1.640611,-0.2260337,-0.0710384,1.613961,0.312245,-0.04006461,1.636175,NA,NA,NotTracked,NotTracked,
-0.02001953,-0.8105469,0.6206055,0.4316406,0.7646484,0.4121094,-3,-4,4,-5,-13,-12,20,0,-2,2,-7,-30,-35,-2,1,-3,1,1,1,26.375,26.375,26.375,3.528929,5.032538,5.098423,6.712317,4.767295,3.565014,-0.03698633,-0.02835425,1.35245,0.1501359,-0.08098239,1.367147,0.0614477,0.4467469,1.655393,0.006758176,-0.04209492,1.355362,0.1291827,-0.1150101,1.345767,0.05606172,-0.02256029,1.69263,0.05169392,-0.344554,1.681827,-0.1198947,0.1768243,1.669049,-0.03462803,-0.3353705,1.641684,-0.2264517,-0.06751072,1.612676,0.3076559,-0.03981262,1.629607,NA,NA,NotTracked,NotTracked,
-0.03759766,-0.8037109,0.5878906,0.621582,0.9609375,0.5185547,0,-3,-17,-1,1,2,-12,-7,16,-22,-15,4,-12,-10,13,7,1.9375,1.9375,1.9375,25.1875,25.1875,25.1875,3.53059,5.038656,5.099933,6.752115,4.569406,3.621871,-0.03713696,-0.0283493,1.352129,0.1501314,-0.1088094,1.37442,0.06148757,0.4466346,1.656344,0.003699042,-0.04684121,1.356082,0.1214849,-0.1474108,1.367167,0.05607856,-0.02251629,1.693133,0.05186789,-0.3444385,1.682018,-0.1203705,0.1767668,1.669316,-0.03448222,-0.3353089,1.64189,-0.2259348,-0.06883805,1.612624,0.3055188,-0.04032623,1.626831,NA,NA,Unknown,NotTracked,
-0.02832031,-0.8022461,0.5810547,0.4038086,1.072266,0.550293,-5,-5,-3,3,-1,0,7,2,-23,-6,-6,-34,-25,-14,-17,0,3.625,3.625,3.625,1.5625,1.5625,1.5625,3.533456,5.034803,5.109001,6.747058,4.535213,3.667025,-0.03689977,-0.03186014,1.351242,0.1495099,-0.1212837,1.403751,0.06115768,0.4468058,1.657353,0.04642798,-0.1115426,1.3675,0.1126339,-0.1591443,1.407833,0.05609249,-0.022471,1.693275,0.05191227,-0.3443257,1.681992,-0.1206905,0.1767822,1.669683,-0.03445097,-0.3352426,1.641879,-0.2246899,-0.07097715,1.614173,0.3051345,-0.04154793,1.628359,NA,NA,Unknown,Lasso,
-0.0009765625,-0.8232422,0.621582,-0.08203125,1.255859,0.5263672,4,-1,2,-1,-6,-8,36,5,4,-2,3,25,8,3,7,5,-0.375,-0.375,-0.375,-18.75,-18.75,-18.75,3.532629,5.018634,5.119637,6.728906,4.653283,3.734649,-0.03921646,-0.0352923,1.350557,0.1507762,-0.1083646,1.43826,0.0607009,0.4468726,1.657907,0.004815131,-0.04776174,1.3602,0.1203097,-0.1515282,1.509,0.05605774,-0.02245373,1.693276,0.05187225,-0.3442975,1.681771,-0.1209589,0.1763511,1.670075,-0.03451094,-0.3352759,1.641613,-0.2228235,-0.07224786,1.612345,0.3091727,-0.0414764,1.636434,NA,NA,Closed,Lasso,
0.02099609,-0.8193359,0.6420898,-0.3959961,1.037109,0.4487305,2,14,14,0,-1,1,-1,-2,-7,25,6,-12,-14,-6,-7,0,1.25,1.25,1.25,-29.8125,-29.8125,-29.8125,3.537153,5.000975,5.123326,6.688865,4.868145,3.750737,-0.0391587,-0.03895865,1.351245,0.1453652,-0.07370296,1.460003,0.06039011,0.4469112,1.657976,0.0054354,-0.04897764,1.357512,0.09988435,-0.05701944,1.516652,0.05603642,-0.02245694,1.693213,0.05198097,-0.3442572,1.681404,-0.120795,0.1761449,1.670231,-0.03437536,-0.3353001,1.641126,-0.2236542,-0.072354,1.614788,0.3147868,-0.03945813,1.641065,NA,NA,Unknown,Lasso,
0.01171875,-0.8173828,0.6513672,-0.3125,0.6811523,0.4194336,-1,-6,-18,-3,2,1,0,3,1,-32,-11,-10,7,27,12,3,4.4375,4.4375,4.4375,-14.125,-14.125,-14.125,3.54614,4.994843,5.117289,6.628618,5.145689,3.711182,-0.03749016,-0.03907051,1.355875,0.1463647,-0.02334029,1.437519,0.06015968,0.4468278,1.658012,0.004205751,-0.05088838,1.355264,0.09873836,-0.04717762,1.516714,0.05602607,-0.02240607,1.693226,0.05202708,-0.343932,1.681359,-0.1218565,0.1759803,1.670124,-0.03427326,-0.3350811,1.641098,-0.2235222,-0.07379916,1.613966,0.3173811,-0.03751716,1.64197,NA,NA,Closed,Unknown,
-0.02929688,-0.8115234,0.6337891,-0.159668,0.612793,0.4135742,-1,5,4,-1,1,-2,0,1,7,1,-3,-5,-27,-21,-16,-1,9.0625,9.0625,9.0625,-2,-2,-2,3.563405,5.014692,5.105606,6.612295,5.256639,3.652008,-0.0338643,-0.0351553,1.359813,0.1465349,0.006235283,1.411536,0.06008843,0.446801,1.658028,0.009015396,-0.05153047,1.368143,0.1059988,-0.02194037,1.417091,0.05602081,-0.02240349,1.693238,0.05207075,-0.3437976,1.681197,-0.1204636,0.1756458,1.670919,-0.03417794,-0.3349557,1.640892,-0.2239906,-0.07394025,1.614837,0.3079826,-0.03753757,1.627125,NA,NA,NotTracked,NotTracked,
-0.05078125,-0.8310547,0.640625,0.2504883,0.8105469,0.434082,-10,-5,-14,-4,-9,-5,-1,-4,-5,10,-3,0,6,58,6,-1,5.625,5.625,5.625,14.125,14.125,14.125,3.571594,5.042709,5.097637,6.65104,5.136379,3.58363,-0.03073786,-0.02877367,1.363283,0.1465403,0.001453245,1.381678,0.06003883,0.4468028,1.658238,0.01426448,-0.0407484,1.371556,0.1396933,-0.02001802,1.343305,0.05606618,-0.02240219,1.69334,0.05238346,-0.3437415,1.681165,-0.1198228,0.1752892,1.671446,-0.03384862,-0.3349486,1.640919,-0.2228204,-0.07543498,1.620458,0.3027421,-0.03696406,1.619207,NA,NA,NotTracked,NotTracked,
-0.06542969,-0.7963867,0.5986328,0.3754883,0.7788086,0.5424805,2,0,4,-2,-3,-3,-8,-6,-8,23,-4,-14,-10,-9,-2,-6,0.5,0.5,0.5,22.6875,22.6875,22.6875,3.575866,5.08677,5.090963,6.667495,5.009643,3.575356,-0.02842397,-0.02205022,1.365723,0.1513779,-0.02902727,1.363254,0.05989309,0.446835,1.658893,0.01382142,-0.0354685,1.369167,0.122159,-0.06028249,1.354619,0.05605545,-0.02241415,1.69342,0.05279617,-0.3437124,1.681092,-0.1197013,0.1750732,1.672233,-0.03340428,-0.3349856,1.641014,-0.2218476,-0.07842153,1.622306,0.3009796,-0.03553253,1.613158,NA,NA,NotTracked,NotTracked,
-0.07080078,-0.7944336,0.5966797,0.1323242,0.9838867,0.6303711,-8,3,6,1,8,-1,-5,-5,-22,-45,-7,-9,-5,-13,-20,-4,-1.3125,-1.3125,-1.3125,-15.375,-15.375,-15.375,3.570807,5.105127,5.094586,6.677372,4.839691,3.579026,-0.02847771,-0.01917651,1.365027,0.1516914,-0.05352513,1.364856,0.05966947,0.4468011,1.659475,0.006052629,-0.04223872,1.368582,0.1346338,-0.08679367,1.345875,0.05615313,-0.02242215,1.693493,0.05339002,-0.3438357,1.680842,-0.1193321,0.1743761,1.672929,-0.03291646,-0.3352142,1.641007,-0.2217768,-0.07845577,1.625966,0.2962488,-0.04519903,1.57536,NA,NA,NotTracked,NotTracked,
-0.04003906,-0.796875,0.6098633,-0.07519531,0.9746094,0.5688477,8,11,-10,3,6,4,-8,3,16,17,15,-4,40,13,-3,6,-1.375,-1.375,-1.375,-15.3125,-15.3125,-15.3125,3.569273,5.103103,5.10633,6.649614,4.826908,3.570144,-0.03067756,-0.01975518,1.365258,0.1531629,-0.06391471,1.372813,0.0593011,0.4469239,1.660398,0.01135842,-0.03430773,1.3725,0.1282877,-0.09852984,1.36645,0.05638954,-0.02238282,1.693492,0.05361986,-0.34375,1.680525,-0.1190463,0.1741295,1.67371,-0.03278532,-0.3352386,1.640996,-0.2214796,-0.07695508,1.625421,0.3190532,-0.02995279,1.617094,NA,NA,NotTracked,NotTracked,
-0.07519531,-0.8012695,0.6333008,-0.02685547,0.9204102,0.5292969,3,-9,-17,-2,-5,-7,-7,-3,-6,6,1,16,-11,-11,2,0,1,1,1,-8.875,-8.875,-8.875,3.571199,5.096143,5.11446,6.625082,4.855015,3.555625,-0.03209325,-0.02183581,1.366137,0.1551702,-0.06496406,1.376732,0.05912246,0.4471833,1.661325,0.01137538,-0.03039402,1.364429,0.1190143,-0.09564712,1.3731,0.0564259,-0.02234012,1.693505,0.05354757,-0.3437187,1.680268,-0.1202774,0.1738601,1.67409,-0.03280743,-0.3352576,1.640984,-0.2210435,-0.07670976,1.628288,0.3172842,-0.03275945,1.625006,NA,NA,NotTracked,NotTracked,
-0.06689453,-0.8139648,0.6376953,0.02441406,0.8813477,0.5361328,-4,1,-5,-2,-7,-1,8,-3,-2,-5,-2,-1,17,7,-11,-7,-0.25,-0.25,-0.25,-6,-6,-6,3.570909,5.092306,5.11587,6.618344,4.874487,3.549519,-0.03079104,-0.02200134,1.366354,0.1535507,-0.06243806,1.374196,0.05924739,0.4476745,1.662189,0.01651887,-0.03651963,1.385667,0.1169948,-0.09428617,1.378714,0.05657998,-0.02228442,1.693474,0.05353123,-0.3436972,1.679887,-0.1196842,0.1737788,1.675011,-0.03280655,-0.3352749,1.640893,-0.2207492,-0.07664739,1.628279,0.3170615,-0.03292162,1.624859,NA,NA,NotTracked,NotTracked,
-0.07373047,-0.7993164,0.6230469,0.05957031,0.8613281,0.5214844,-4,-4,7,2,2,5,6,1,-2,-15,0,14,0,5,-3,-5,-0.5,-0.5,-0.5,1.375,1.375,1.375,3.569232,5.096056,5.113181,6.618907,4.883288,3.546757,-0.03083139,-0.0210216,1.366983,0.1527138,-0.06114261,1.372752,0.05948934,0.4479868,1.663133,-0.02025565,-0.0452255,1.382333,0.1214762,-0.09485584,1.370438,0.05664439,-0.02222685,1.693497,0.05353659,-0.34367,1.679794,-0.1202343,0.1738758,1.675,-0.03279562,-0.3352607,1.64089,-0.2203714,-0.07584256,1.625594,0.3163856,-0.03308714,1.62447,NA,NA,NotTracked,NotTracked,
-0.06738281,-0.7885742,0.6347656,0.06738281,0.8457031,0.5273438,-2,-12,-7,-2,3,12,14,-4,-3,-8,-13,-15,-9,7,2,-11,0.4375,0.4375,0.4375,0.0625,0.0625,0.0625,3.567713,5.103364,5.117419,6.616968,4.885848,3.548071,-0.0303063,-0.01966305,1.366166,0.1526423,-0.06044485,1.371623,0.05968666,0.4482714,1.664073,-0.003547795,-0.04083816,1.374852,0.124448,-0.09497437,1.366633,0.05686499,-0.0221446,1.693561,0.0536602,-0.3436468,1.679692,-0.1196105,0.1737223,1.675953,-0.0326803,-0.3352632,1.640913,-0.2198347,-0.07637928,1.628028,0.3160427,-0.03305954,1.623962,NA,NA,NotTracked,NotTracked,
-0.05859375,-0.8154297,0.6328125,0.05761719,0.8706055,0.5415039,2,3,5,-2,-2,-8,-4,2,-3,3,-2,7,0,-3,-21,-3,-1.6875,-1.6875,-1.6875,-3.0625,-3.0625,-3.0625,3.565014,5.103742,5.123247,6.615333,4.892011,3.546426,-0.03170682,-0.01934392,1.366952,0.152215,-0.05976784,1.370957,0.05981574,0.4485025,1.665126,-0.01094685,-0.0426833,1.379192,0.1232164,-0.09501989,1.369064,0.05700282,-0.02209412,1.693717,0.05371343,-0.3436608,1.679653,-0.1193008,0.1733376,1.676669,-0.03262356,-0.3353086,1.640973,-0.2201708,-0.0755861,1.626842,0.2974334,-0.04503105,1.58348,NA,NA,NotTracked,NotTracked,
-0.06005859,-0.7797852,0.6367188,0.05615234,0.8427734,0.5244141,0,8,-1,1,1,-1,3,-4,-1,-9,3,14,1,5,5,4,-0.375,-0.375,-0.375,0.5,0.5,0.5,3.567578,5.101961,5.125659,6.613742,4.891497,3.546864,-0.03208015,-0.01928237,1.366974,0.152316,-0.06016769,1.370292,0.0598463,0.4486373,1.665654,-0.0004205309,-0.04010637,1.3782,0.1229373,-0.09450558,1.362667,0.05717536,-0.02201799,1.693787,0.05375328,-0.3436163,1.67963,-0.1191459,0.1732894,1.677172,-0.03254842,-0.3353147,1.64111,-0.2195912,-0.07616959,1.627544,0.311901,-0.03271982,1.616452,NA,NA,NotTracked,NotTracked,
-0.08251953,-0.7895508,0.6220703,0.06982422,0.8564453,0.5361328,3,5,19,-3,-5,-11,-23,-5,-22,-6,-8,-10,-6,-7,-10,7,0.25,0.25,0.25,-0.6875,-0.6875,-0.6875,3.566111,5.102767,5.128496,6.613105,4.887442,3.542797,-0.03192982,-0.019814,1.368257,0.1520223,-0.06129697,1.369445,0.05992086,0.4488964,1.666581,0.01402373,-0.04220409,1.3655,0.1219322,-0.09597217,1.360168,0.05739486,-0.02195635,1.694047,0.0538047,-0.3436067,1.679642,-0.1190032,0.1730419,1.678113,-0.03243469,-0.3353439,1.641275,-0.2173639,-0.07778283,1.628161,0.3121504,-0.03318819,1.617143,NA,NA,NotTracked,NotTracked,
-0.06787109,-0.7900391,0.6411133,0.07568359,0.8579102,0.5507813,1,-2,1,2,2,3,-5,0,13,-16,-6,-11,0,-6,10,5,1.25,1.25,1.25,-4.875,-4.875,-4.875,3.571001,5.100407,5.127752,6.60854,4.8815,3.533957,-0.03202184,-0.02064001,1.36923,0.1532865,-0.06268489,1.369494,0.05999916,0.4489399,1.66718,-0.02514127,-0.04516737,1.39025,0.1146581,-0.09314145,1.372354,0.05759153,-0.0219266,1.694204,0.05387976,-0.3436177,1.679626,-0.1188302,0.1727352,1.678714,-0.03234523,-0.3353874,1.64142,-0.2173111,-0.07773874,1.628695,0.3128171,-0.03325243,1.618652,NA,NA,NotTracked,NotTracked,
-0.06738281,-0.8046875,0.640625,0.06103516,0.8603516,0.5439453,0,4,7,-2,1,1,19,-2,-1,11,-3,8,12,13,9,-9,1.9375,1.9375,1.9375,-2.625,-2.625,-2.625,3.572099,5.1002,5.126994,6.607685,4.879469,3.531353,-0.03077891,-0.02084997,1.368532,0.1529701,-0.06389491,1.370658,0.06007783,0.4489603,1.667685,-0.0105272,-0.04023716,1.383571,0.1222395,-0.09654072,1.36458,0.05776992,-0.02187545,1.694416,0.05396581,-0.3436433,1.679658,-0.119951,0.1729134,1.678356,-0.03226787,-0.3354292,1.641483,-0.2169164,-0.07781465,1.628884,0.3127387,-0.03337349,1.619118,NA,NA,NotTracked,NotTracked,
