ALX,ALY,ALZ,ARX,ARY,ARZ,EMG0L,EMG1L,EMG2L,EMG3L,EMG4L,EMG5L,EMG6L,EMG7L,EMG0R,EMG1R,EMG2R,EMG3R,EMG4R,EMG5R,EMG6R,EMG7R,GLX,GLY,GLZ,GRX,GRY,GRZ,ORL,OPL,OYL,ORR,OPR,OYR,LHNX,LHNY,LHNZ,RHNX,RHNY,RHNZ,HX,HY,HZ,LTX,LTY,LTZ,RTX,RTY,RTZ,SpineMidX,SpineMidY,SpineMidZ,SpineBaseX,SpineBaseY,SpineBaseZ,ShoulderLeftX,ShoulderLeftY,ShoulderLeftZ,ShoulderRightX,ShoulderRightY,ShoulderRightZ,ElbowLeftX,ElbowLeftY,ElbowLeftZ,ElbowRightX,ElbowRightY,ElbowRightZ,Myo_Pose_left,Myo_Pose_Right,Kinect_pose_left,Kinect_pose_right
0.9648438,-0.2163086,0.1113281,0.9550781,0.1733398,0.03662109,-2,0,0,-3,0,-1,-2,-1,-2,1,1,1,-1,-3,-2,-1,0,0,0,-2.125,-2.125,-2.125,3.255002,2.899737,5.825981,7.112266,2.803137,3.012527,-0.1342046,-0.4072289,1.535104,0.2375011,-0.3903689,1.545077,0.04943452,0.4528377,1.589429,-0.174979,-0.4188659,1.52899,0.272455,-0.3952286,1.538909,0.04698378,-0.02347738,1.625485,0.04497774,-0.3501738,1.617721,-0.1364903,0.167528,1.613052,-0.04217976,-0.3416941,1.579811,-0.1739883,-0.08844899,1.60529,0.2739578,-0.08729566,1.619443,NA,NA,NotTracked,NotTracked,
0.9604492,-0.2163086,0.1152344,0.9614258,0.1865234,0.04638672,-1,-2,-1,-1,-1,-1,0,2,0,-1,-1,-3,-3,0,0,0,-0.125,-0.125,-0.125,-0.8125,-0.8125,-0.8125,3.255002,2.899737,5.825981,7.112797,2.80327,3.011998,-0.1341413,-0.4078936,1.535208,0.237873,-0.390828,1.544963,0.04944452,0.4528376,1.589431,-0.171968,-0.4225717,1.521036,0.2697471,-0.3954395,1.53146,0.04698313,-0.02350052,1.625506,0.04498998,-0.3502052,1.617738,-0.1364291,0.1674701,1.612711,-0.04216634,-0.3417108,1.579806,-0.1739335,-0.08853383,1.605334,0.2739138,-0.08779968,1.619527,NA,NA,NotTracked,NotTracked,
0.965332,-0.2207031,0.1054688,0.9604492,0.1806641,0.03466797,0,-1,1,-1,-1,0,1,0,0,-1,-1,-18,-2,2,-1,-2,-0.9375,-0.9375,-0.9375,0,0,0,3.255047,2.899063,5.825826,7.109459,2.804517,3.013668,-0.1340805,-0.4074281,1.535793,0.238036,-0.3903916,1.546324,0.04948034,0.4528211,1.589457,-0.172454,-0.4164965,1.525226,0.272029,-0.4036252,1.54141,0.04700729,-0.0234756,1.625594,0.04501047,-0.3501643,1.617784,-0.1362622,0.1677437,1.613654,-0.04213817,-0.3416791,1.57989,-0.1739331,-0.08870176,1.605394,0.2739211,-0.08777139,1.619719,NA,NA,NotTracked,NotTracked,
0.9624023,-0.2197266,0.1113281,0.9584961,0.1796875,0.04785156,-1,-1,-1,-4,-2,0,0,-4,-1,-1,-2,-1,-1,0,-2,1,0.25,0.25,0.25,-1.5,-1.5,-1.5,3.254828,2.899269,5.826219,7.108907,2.803983,3.0134,-0.1344597,-0.4081382,1.536048,0.2377357,-0.3908575,1.545996,0.04954594,0.452798,1.589595,-0.1744603,-0.4121997,1.527537,0.2724397,-0.389511,1.536667,0.04706055,-0.02347035,1.625666,0.04512078,-0.3501467,1.617849,-0.1361952,0.1678544,1.613798,-0.04203178,-0.341655,1.57996,-0.173822,-0.08880744,1.605427,0.2740346,-0.08757993,1.619935,NA,NA,NotTracked,NotTracked,
0.9682617,-0.2207031,0.1162109,0.9560547,0.1821289,0.04296875,-2,-3,-4,0,-1,-2,2,4,0,-1,-2,-6,-2,-3,-2,0,-0.75,-0.75,-0.75,-0.8125,-0.8125,-0.8125,3.254338,2.898967,5.826572,7.109678,2.80411,3.011797,-0.1341193,-0.407808,1.535905,0.2380073,-0.3909472,1.546258,0.04956798,0.452784,1.589621,-0.1771969,-0.4085897,1.536717,0.2746202,-0.3895109,1.541892,0.04708268,-0.02345338,1.62572,0.04521354,-0.3501008,1.617925,-0.1362395,0.1677614,1.613423,-0.04196825,-0.3416438,1.579973,-0.1738127,-0.08888327,1.605408,0.2741534,-0.08723883,1.62022,NA,NA,NotTracked,NotTracked,
0.9628906,-0.2089844,0.1088867,0.953125,0.1772461,0.04003906,-2,-1,-1,0,-2,-1,-1,-1,-2,0,-1,0,0,0,-2,-2,0.4375,0.4375,0.4375,1.6875,1.6875,1.6875,3.254338,2.898967,5.826572,7.113863,2.804237,3.007059,-0.1339839,-0.4074461,1.535231,0.2382668,-0.3906257,1.546574,0.04963087,0.4527453,1.589654,-0.1770755,-0.4081876,1.533381,0.2756651,-0.4166394,1.55,0.04710723,-0.02344997,1.625799,0.04526113,-0.3501019,1.618005,-0.1361991,0.1677606,1.613619,-0.04193638,-0.3416454,1.579992,-0.1737775,-0.08895569,1.605483,0.2741801,-0.08708365,1.620402,NA,NA,NotTracked,NotTracked,
0.9672852,-0.2172852,0.1181641,0.9604492,0.1772461,0.04345703,1,-2,0,-1,-1,-2,-1,-2,-1,-2,-1,0,-1,-2,0,-2,1.25,1.25,1.25,-1.375,-1.375,-1.375,3.25645,2.898641,5.825118,7.117906,2.804123,3.003013,-0.1338609,-0.4076662,1.534844,0.2377806,-0.3907846,1.545534,0.0496533,0.4527385,1.589657,-0.1710548,-0.4260784,1.521401,0.2729934,-0.3803616,1.536703,0.04713491,-0.02346563,1.625844,0.04530567,-0.3501559,1.618058,-0.1362969,0.1677181,1.613186,-0.04190601,-0.3416816,1.580008,-0.1736989,-0.08907379,1.605457,0.2742055,-0.08705708,1.62044,NA,NA,NotTracked,NotTracked,
0.9599609,-0.2124023,0.1044922,0.953125,0.1845703,0.04101563,-1,-2,-2,-1,1,-1,0,-1,-1,-1,-2,1,-1,0,-1,0,1.125,1.125,1.125,-0.875,-0.875,-0.875,3.257162,2.898173,5.825765,7.117906,2.804123,3.003013,-0.1336887,-0.407572,1.53581,0.2383841,-0.3903798,1.546522,0.04967215,0.4527453,1.589709,-0.1718653,-0.4143264,1.524024,0.2726588,-0.4050047,1.545843,0.04720409,-0.02346514,1.625903,0.04541112,-0.350116,1.618143,-0.1362678,0.1677042,1.613361,-0.0417957,-0.3416697,1.580102,-0.1737594,-0.08621855,1.605578,0.2742124,-0.08707236,1.620556,NA,NA,NotTracked,NotTracked,
0.9658203,-0.2148438,0.112793,0.9589844,0.1855469,0.04199219,-1,-1,0,0,0,-2,1,0,2,-2,-3,-15,-3,0,1,0,1,1,1,0.5625,0.5625,0.5625,3.255004,2.89817,5.828962,7.117656,2.804129,3.004097,-0.1335816,-0.4075631,1.535071,0.2377044,-0.3906831,1.54539,0.04970166,0.4526843,1.589702,-0.1720779,-0.4210091,1.522415,0.2723696,-0.3930564,1.536542,0.04722757,-0.02348725,1.625909,0.04543874,-0.3501489,1.618142,-0.1363083,0.1676662,1.612882,-0.04176813,-0.3416927,1.580081,-0.1735995,-0.08666471,1.605487,0.2742284,-0.08707168,1.620576,NA,NA,NotTracked,NotTracked,
0.9643555,-0.2246094,0.1157227,0.9580078,0.171875,0.03955078,0,0,0,-2,0,-1,-1,-4,0,0,-2,-10,-2,-1,0,-1,0.0625,0.0625,0.0625,-0.4375,-0.4375,-0.4375,3.2548,2.898426,5.829967,7.117022,2.803398,3.003351,-0.1336554,-0.4078216,1.535367,0.2382267,-0.390837,1.546107,0.04972387,0.4526974,1.589724,-0.1720058,-0.4316223,1.525417,0.274975,-0.4114892,1.5505,0.04724183,-0.0234962,1.625926,0.04543437,-0.3501687,1.618169,-0.1361499,0.1678155,1.613894,-0.04178144,-0.3417111,1.58014,-0.1735205,-0.08710322,1.605529,0.2742263,-0.08707494,1.620634,NA,NA,NotTracked,NotTracked,
0.9648438,-0.21875,0.1069336,0.956543,0.1933594,0.03955078,-3,-3,-1,-1,-2,-1,2,2,-1,-1,0,1,-2,-17,-3,5,0.5,0.5,0.5,4.3125,4.3125,4.3125,3.253188,2.898095,5.833272,7.124132,2.803286,3.003004,-0.1335102,-0.4074169,1.534528,0.2377589,-0.3904458,1.544965,0.04982855,0.4526483,1.589639,-0.1747536,-0.4199927,1.53441,0.269344,-0.4115739,1.535882,0.04721959,-0.02352845,1.625939,0.04542916,-0.3502406,1.618178,-0.1361271,0.1678304,1.613361,-0.04177806,-0.3417607,1.580124,-0.1734798,-0.08737259,1.60556,0.2742934,-0.08693113,1.620652,NA,NA,NotTracked,NotTracked,
0.9619141,-0.2202148,0.1108398,1.223145,0.2797852,0.2519531,-1,0,-3,0,-2,-2,-2,-3,-12,-13,-11,-11,-5,17,-6,-35,1.25,1.25,1.25,46.1875,46.1875,46.1875,3.252353,2.898243,5.834693,7.042757,2.831162,3.122509,-0.1336473,-0.4075769,1.536725,0.2384002,-0.3903236,1.547068,0.04988839,0.4526048,1.589689,-0.1731514,-0.4203542,1.526865,0.2805692,-0.42627,1.566334,0.04730254,-0.02356427,1.625976,0.04548548,-0.3502629,1.618229,-0.1359958,0.1678839,1.613766,-0.04171155,-0.3417684,1.580154,-0.1734334,-0.08757519,1.605679,0.2743804,-0.08682369,1.620739,NA,NA,NotTracked,NotTracked,
0.9785156,-0.21875,0.1000977,1.066406,0.6738281,0.1333008,-1,0,-1,-3,-3,-2,-4,-4,-4,7,18,-14,-4,20,-14,-38,0.4375,0.4375,0.4375,136.625,136.625,136.625,3.25074,2.89832,5.840795,6.918445,3.011108,3.483997,-0.1335273,-0.4075801,1.535985,0.2377282,-0.390163,1.539884,0.04995063,0.4526163,1.58969,-0.1729943,-0.4232418,1.527164,0.2830712,-0.424192,1.5506,0.04733782,-0.02359077,1.625975,0.04551196,-0.3503111,1.618212,-0.1359476,0.1677379,1.613394,-0.04168299,-0.3418113,1.580129,-0.1733814,-0.08781594,1.605692,0.2752222,-0.08586037,1.620555,NA,NA,NotTracked,NotTracked,
0.9614258,-0.2124023,0.08837891,1.123047,0.6855469,0.3305664,-1,-2,-1,-2,0,-1,-1,1,-3,-3,-49,-21,-5,-7,-10,-24,5.6875,5.6875,5.6875,132.875,132.875,132.875,3.245857,2.898581,5.850076,6.893819,3.332212,3.751806,-0.1340363,-0.4074796,1.535865,0.2286043,-0.3809028,1.501746,0.04995093,0.4526142,1.58969,-0.1762569,-0.4109782,1.53135,0.2747664,-0.4050014,1.483353,0.04734936,-0.02358364,1.62594,0.04553597,-0.3502665,1.618018,-0.1359268,0.1676707,1.613683,-0.04168943,-0.3417958,1.579927,-0.173436,-0.08824902,1.605751,0.2804346,-0.07865563,1.615677,NA,NA,NotTracked,NotTracked,
0.9619141,-0.2163086,0.109375,0.7890625,0.9868164,0.3227539,-1,-3,-4,0,1,-3,-5,-7,-4,7,27,7,-1,-1,2,-7,-0.1875,-0.1875,-0.1875,60.625,60.625,60.625,3.244756,2.897969,5.854755,6.934859,3.895221,4.04961,-0.1347108,-0.4075611,1.538068,0.1730323,-0.3127232,1.452567,0.04995454,0.4526136,1.589737,-0.1742355,-0.4167305,1.5273,0.2168132,-0.3642486,1.421417,0.04603164,-0.02338075,1.625761,0.0408283,-0.349456,1.61668,-0.1361015,0.1675953,1.613688,-0.04680339,-0.3401946,1.57878,-0.1746552,-0.08490731,1.60673,0.2878382,-0.06450386,1.604674,NA,NA,NotTracked,Unknown,
0.9785156,-0.2231445,0.1132813,0.4248047,0.746582,0.5878906,0,0,-1,-2,0,1,-2,-3,9,-6,10,6,1,1,5,3,-1.3125,-1.3125,-1.3125,-27.5625,-27.5625,-27.5625,3.242849,2.894437,5.857679,6.780733,4.301354,4.271959,-0.1354472,-0.4073852,1.538385,0.10216,-0.2117432,1.441411,0.04982235,0.4526057,1.589923,-0.1757868,-0.4115697,1.528091,0.1625467,-0.2683983,1.49365,0.04482774,-0.02335668,1.626172,0.0390491,-0.349413,1.617216,-0.1362832,0.167475,1.613692,-0.04813057,-0.3397433,1.579554,-0.1747528,-0.08516883,1.607137,0.2940949,-0.04567236,1.586624,NA,NA,NotTracked,Unknown,
0.9501953,-0.2299805,0.1201172,0.2695313,0.6450195,0.5341797,0,-2,-1,-1,-3,-1,-1,0,79,13,2,1,-3,7,2,12,1.5625,1.5625,1.5625,26.1875,26.1875,26.1875,3.245544,2.89877,5.854411,6.717487,4.690665,4.48055,-0.1358891,-0.407668,1.539323,0.05457315,-0.1137626,1.429672,0.04952838,0.4525606,1.590326,-0.1759059,-0.4147986,1.52765,0.05689516,-0.1401597,1.380626,0.04454372,-0.02285197,1.627345,0.03930711,-0.3480808,1.619843,-0.1366143,0.1673494,1.613787,-0.04755826,-0.3387925,1.58344,-0.1752623,-0.08219803,1.609082,0.2601163,-0.05046788,1.516678,NA,NA,NotTracked,Unknown,
0.9633789,-0.2167969,0.121582,0.03515625,0.8081055,0.5864258,0,-2,-2,-2,-1,-1,-1,-1,-3,-17,3,5,7,19,3,-13,0.6875,0.6875,0.6875,-36.4375,-36.4375,-36.4375,3.249562,2.905201,5.852781,6.696984,5.097643,4.818213,-0.136391,-0.4080213,1.540576,0.02855651,-0.01958645,1.438312,0.048864,0.4525031,1.591728,-0.1795217,-0.4148211,1.535833,0.0447653,0.005030006,1.390359,0.04442326,-0.02196085,1.629523,0.03926759,-0.346184,1.622707,-0.1368998,0.1676638,1.614823,-0.04722004,-0.3371885,1.586778,-0.1760857,-0.08033932,1.61055,0.2883361,-0.02927751,1.531204,NA,NA,NotTracked,Unknown,
0.9707031,-0.2114258,0.1220703,-0.105957,0.5131836,0.5087891,0,0,0,-3,-3,-2,-3,-1,65,-10,6,51,13,5,-16,-3,-1.75,-1.75,-1.75,25.875,25.875,25.875,3.251718,2.907736,5.851253,6.717392,5.337235,5.085596,-0.1357492,-0.4079725,1.539085,-0.07975185,0.0817885,1.474862,0.04855195,0.4523805,1.592835,-0.1736591,-0.437374,1.526437,-0.05290677,0.1316793,1.498471,0.04433296,-0.02150413,1.630273,0.03910888,-0.3454759,1.623246,-0.1372229,0.1678272,1.615953,-0.04728588,-0.3363611,1.588554,-0.1759243,-0.08205204,1.611317,0.2212643,-0.06040619,1.510951,NA,NA,NotTracked,Unknown,
0.9643555,-0.246582,0.1147461,-0.02880859,0.6533203,0.387207,-5,-3,-1,-3,-1,-1,2,-2,-5,3,9,33,2,14,1,-52,-0.75,-0.75,-0.75,30.75,30.75,30.75,3.248009,2.909196,5.850784,6.825239,5.518755,5.271033,-0.1359037,-0.4082017,1.539791,-0.00270394,0.09411131,1.467387,0.04843734,0.4525701,1.594766,-0.1791257,-0.407231,1.537538,0.03775481,0.09804524,1.405918,0.04425047,-0.02115489,1.630881,0.03907348,-0.3451416,1.623377,-0.1364047,0.1671381,1.614506,-0.04740674,-0.3360984,1.589103,-0.1757381,-0.08130554,1.611853,0.2177651,-0.04254566,1.500908,NA,NA,NotTracked,Unknown,
0.9731445,-0.2358398,0.105957,0.01123047,0.7329102,0.3579102,-1,0,-1,0,-2,-2,-1,-3,30,19,18,19,0,-33,14,26,-0.125,-0.125,-0.125,7.5625,7.5625,7.5625,3.242306,2.912804,5.857047,6.881014,5.60981,5.379069,-0.1350351,-0.4073033,1.538301,-0.1008413,0.1679069,1.513875,0.04887094,0.4526959,1.596036,-0.1773371,-0.40799,1.534451,-0.06838411,0.208831,1.543067,0.04428641,-0.02094281,1.631233,0.03928455,-0.3450626,1.62336,-0.1230805,0.1611573,1.586906,-0.04732215,-0.3361531,1.58916,-0.175681,-0.07885095,1.612514,0.1984556,-0.05491979,1.490467,NA,NA,NotTracked,Unknown,
0.9580078,-0.2353516,0.09960938,-0.2333984,0.9213867,0.3041992,-1,-2,1,2,-1,-1,-2,0,76,22,3,-8,-14,-11,6,113,-0.1875,-0.1875,-0.1875,-5.5,-5.5,-5.5,3.237349,2.916157,5.860359,6.931833,5.658464,5.431194,-0.1355209,-0.4073283,1.538589,-0.09882145,0.1721419,1.516657,0.04943974,0.4527807,1.597591,-0.179312,-0.4053733,1.538842,-0.1004212,0.2410463,1.470544,0.04432449,-0.02071385,1.631524,0.03943947,-0.3449548,1.623229,-0.120824,0.1632838,1.587667,-0.04730539,-0.3361252,1.58904,-0.1756468,-0.07727517,1.612807,0.1883831,-0.06133288,1.488488,NA,NA,NotTracked,NotTracked,
0.9599609,-0.2172852,0.09814453,-0.3369141,0.921875,0.3022461,-2,-1,-1,-1,2,0,0,-3,30,-6,-13,2,13,15,7,-7,-0.375,-0.375,-0.375,10.5,10.5,10.5,3.233306,2.91709,5.864002,6.939026,5.658202,5.429103,-0.135717,-0.407651,1.538531,-0.1116878,0.1829116,1.529832,0.04983767,0.4529167,1.599087,-0.1773773,-0.4114234,1.533282,-0.1063346,0.248666,1.476632,0.04450138,-0.02053561,1.63175,0.04018647,-0.3447025,1.623017,-0.1186627,0.1638467,1.584485,-0.04681027,-0.3360024,1.588814,-0.1758346,-0.07614387,1.612872,0.1869567,-0.0619726,1.489172,NA,NA,NotTracked,NotTracked,
0.9599609,-0.2211914,0.1113281,-0.3671875,0.9111328,0.4208984,0,-1,0,-2,-2,-2,-2,1,-48,-10,-1,7,8,38,13,-31,-2.3125,-2.3125,-2.3125,0.875,0.875,0.875,3.220083,2.913372,5.870946,6.933371,5.641589,5.405602,-0.1360197,-0.4080634,1.538631,-0.09999329,0.1723247,1.51888,0.04991814,0.4529601,1.59981,-0.1774199,-0.4280516,1.530417,-0.06487281,0.214279,1.541907,0.04457508,-0.02038241,1.63186,0.04054087,-0.3445044,1.622802,-0.1174888,0.1642457,1.582528,-0.0465879,-0.3359319,1.588562,-0.1760951,-0.0751666,1.612941,0.1868901,-0.06246487,1.490037,NA,NA,NotTracked,NotTracked,
0.9697266,-0.2304688,0.1254883,-0.4140625,0.8657227,0.4057617,5,-1,-1,-2,-3,-2,-2,-1,23,-20,7,3,-2,-7,9,108,-3.1875,-3.1875,-3.1875,4.9375,4.9375,4.9375,3.217981,2.910565,5.867761,6.920565,5.642807,5.385612,-0.1358291,-0.4076034,1.538259,-0.09950225,0.1702127,1.515239,0.0498849,0.4529806,1.600196,-0.1754267,-0.433289,1.5258,-0.1031994,0.2405384,1.476438,0.04460879,-0.0202612,1.631987,0.04081776,-0.3443174,1.622805,-0.1173481,0.1642244,1.581611,-0.04639611,-0.3358709,1.588467,-0.1763885,-0.07469279,1.612903,0.1952274,0.002803756,1.461099,NA,NA,NotTracked,NotTracked,
0.965332,-0.2324219,0.1132813,-0.4746094,0.8413086,0.3510742,-1,1,0,0,-2,-3,-1,-1,83,-17,-9,-32,10,69,13,19,-0.5625,-0.5625,-0.5625,0.6875,0.6875,0.6875,3.220937,2.910831,5.862735,6.910704,5.648127,5.371964,-0.1357872,-0.4081956,1.538021,-0.09954254,0.1725163,1.514476,0.04984328,0.4529003,1.600423,-0.1762065,-0.4205038,1.527613,-0.07531485,0.2127277,1.5445,0.04460219,-0.02019246,1.632057,0.04102165,-0.3441964,1.622873,-0.117688,0.1644143,1.582363,-0.04627953,-0.3358281,1.588421,-0.1765227,-0.07428335,1.612837,0.1951891,0.004078886,1.461388,NA,NA,NotTracked,NotTracked,
0.9638672,-0.2280273,0.1020508,-0.4047852,0.8027344,0.3623047,-5,1,-2,0,0,-1,0,-2,-80,-21,-2,-4,6,18,15,35,-1.875,-1.875,-1.875,-4.4375,-4.4375,-4.4375,3.219096,2.911222,5.861414,6.897168,5.64937,5.363326,-0.1357669,-0.4071503,1.537584,-0.0981652,0.1708723,1.514542,0.04977942,0.4528333,1.600521,-0.1773729,-0.4059871,1.53015,-0.1050048,0.2428036,1.477597,0.04454545,-0.02015457,1.632153,0.04110267,-0.3442072,1.622878,-0.1176618,0.1644148,1.582142,-0.04624241,-0.3358953,1.588405,-0.176595,-0.0750742,1.612616,0.1992367,0.005226897,1.460344,NA,NA,NotTracked,NotTracked,
0.9648438,-0.2163086,0.1074219,-0.4389648,0.8413086,0.3735352,0,-2,-3,-3,-1,-2,-1,0,108,14,-5,4,0,3,10,58,-2.0625,-2.0625,-2.0625,-0.5625,-0.5625,-0.5625,3.214934,2.909911,5.861559,6.885731,5.64841,5.358045,-0.1362265,-0.4079453,1.536987,-0.1006382,0.1722759,1.517823,0.04976827,0.4528123,1.60053,-0.1788842,-0.4134879,1.531034,-0.0803524,0.2125046,1.546596,0.04452838,-0.02014255,1.632194,0.04113294,-0.3442199,1.622872,-0.11815,0.1647177,1.5837,-0.04622824,-0.3359576,1.588344,-0.1768858,-0.0746584,1.612165,0.2004562,0.006223721,1.460254,NA,NA,NotTracked,NotTracked,
0.9609375,-0.2167969,0.1132813,-0.2827148,0.9135742,0.4301758,4,0,-2,-2,-2,-1,-1,2,-63,-8,5,7,-17,-6,7,-22,-0.125,-0.125,-0.125,-8.75,-8.75,-8.75,3.216014,2.909302,5.859168,6.880979,5.634379,5.354275,-0.1362779,-0.4080943,1.537437,-0.09978222,0.1708794,1.518783,0.0497594,0.4527939,1.600524,-0.1790159,-0.4082195,1.535482,-0.1205588,0.1254431,1.53875,0.04451978,-0.02012291,1.632254,0.04116007,-0.3442308,1.622873,-0.1185624,0.1648867,1.584904,-0.04621133,-0.3360126,1.588273,-0.1770867,-0.07439417,1.611853,0.2020566,0.005733856,1.461668,NA,NA,NotTracked,NotTracked,
0.9658203,-0.2290039,0.109375,-0.1269531,0.9702148,0.371582,-2,-2,-1,-2,-1,0,0,0,-13,34,10,18,7,2,2,-3,-1.25,-1.25,-1.25,7.25,7.25,7.25,3.214376,2.907644,5.859287,6.877926,5.613194,5.334254,-0.1360945,-0.4071635,1.536944,-0.08307774,0.1663147,1.508242,0.0497222,0.4526819,1.600435,-0.1770201,-0.4125488,1.528699,-0.1288889,0.1336867,1.497143,0.044502,-0.02012003,1.632288,0.04121539,-0.3442611,1.622893,-0.1187401,0.1650492,1.585667,-0.04616156,-0.336094,1.588203,-0.1772664,-0.07409425,1.61165,0.2054318,0.005448963,1.462429,NA,NA,NotTracked,NotTracked,
0.956543,-0.2368164,0.09814453,0.06640625,1.004883,0.421875,-3,-2,-2,-2,-1,-2,0,-1,-29,-44,-9,-14,-11,-5,-5,-17,3.1875,3.1875,3.1875,42.375,42.375,42.375,3.221104,2.910323,5.858213,6.888113,5.554733,5.240916,-0.1363039,-0.4085537,1.537035,-0.07884439,0.1705572,1.514324,0.04970035,0.4526787,1.600409,-0.1779338,-0.4244966,1.528833,-0.1245126,0.1491996,1.5026,0.04445367,-0.02012591,1.632304,0.04130168,-0.3443045,1.622867,-0.1188281,0.1652908,1.587113,-0.04608823,-0.3362156,1.58804,-0.1773261,-0.07526025,1.611036,0.2154091,0.005890398,1.462229,NA,NA,NotTracked,NotTracked,
0.9682617,-0.2036133,0.08203125,-0.1645508,0.9365234,0.484375,-1,-1,-1,-4,0,1,3,1,-34,-44,-22,-7,-6,-7,3,-12,12.1875,12.1875,12.1875,40.5,40.5,40.5,3.234221,2.912131,5.861577,6.909835,5.544552,5.078052,-0.1360666,-0.4075013,1.536648,-0.05958115,0.1764887,1.517949,0.04945104,0.452585,1.600406,-0.1777603,-0.4156358,1.530988,-0.09594924,0.1373077,1.515909,0.04422254,-0.0202544,1.632345,0.04137854,-0.3446424,1.622732,-0.1166099,0.166009,1.588356,-0.04614753,-0.3366462,1.587656,-0.1775868,-0.07482977,1.610764,0.2428552,0.006744228,1.465741,NA,NA,NotTracked,NotTracked,
0.9575195,-0.2260742,0.1132813,-0.4130859,0.8681641,0.534668,-1,-2,0,0,-1,1,-2,-3,-10,-9,-15,-17,9,5,-4,15,7.4375,7.4375,7.4375,76.8125,76.8125,76.8125,3.251586,2.915147,5.855579,6.941342,5.543128,4.742952,-0.1369304,-0.4079138,1.536437,0.07577503,0.1398886,1.463736,0.04792937,0.4528095,1.60041,-0.1774345,-0.4200823,1.527786,0.03199813,0.08703747,1.488823,0.04376018,-0.02049794,1.632247,0.04110818,-0.3451987,1.622334,-0.1194836,0.1676429,1.594516,-0.04666933,-0.337316,1.587176,-0.1779574,-0.07472115,1.61064,0.2776729,0.006025283,1.480067,NA,NA,NotTracked,Unknown,
0.9677734,-0.2407227,0.1191406,-0.5019531,0.7119141,0.6113281,0,-2,-3,-1,0,-3,-3,0,3,-35,-27,-78,-28,-8,0,7,14.25,14.25,14.25,77.1875,77.1875,77.1875,3.257962,2.916741,5.869687,6.968944,5.512169,4.455186,-0.1380709,-0.4079765,1.537329,0.1372312,0.1406062,1.458693,0.04425284,0.4533671,1.600236,-0.1783087,-0.4221687,1.524777,0.1154622,0.09153875,1.496193,0.04302247,-0.0209178,1.631874,0.03970664,-0.3461606,1.621155,-0.1296934,0.1681695,1.604205,-0.04828184,-0.3384006,1.586899,-0.1785334,-0.07479675,1.610589,0.2958277,-0.008429472,1.514431,NA,NA,NotTracked,Unknown,
0.9628906,-0.2143555,0.1220703,-0.6098633,0.7299805,0.637207,-6,-4,0,-2,1,-1,-8,-1,2,-10,-15,-33,-30,-33,-8,-9,20.1875,20.1875,20.1875,71.625,71.625,71.625,3.261133,2.917422,5.899914,7.0126,5.476211,4.170755,-0.1410077,-0.4092982,1.538101,0.1454041,0.1610382,1.458764,0.04104437,0.4541593,1.600014,-0.1855839,-0.4084672,1.531118,0.1214162,0.1272854,1.500662,0.04143133,-0.02097804,1.630781,0.03807578,-0.3464524,1.62031,-0.1445701,0.1676262,1.615679,-0.04974801,-0.33876,1.586434,-0.1792407,-0.07521016,1.610782,0.3137089,-0.009526789,1.540139,NA,NA,NotTracked,Unknown,
0.9658203,-0.2177734,0.1298828,-0.4926758,0.7407227,0.418457,0,-2,-2,-2,-1,0,8,0,3,-25,1,40,6,-37,-23,-8,14.25,14.25,14.25,61.1875,61.1875,61.1875,3.24624,2.917831,5.955709,7.045276,5.441246,3.914599,-0.1428024,-0.4110968,1.537968,0.2039695,0.1485135,1.473702,0.03928885,0.4545355,1.599003,-0.1837062,-0.4178204,1.524154,0.1254737,0.1842606,1.435,0.04013978,-0.02114809,1.629649,0.03651088,-0.3470661,1.61945,-0.1453528,0.1674335,1.616454,-0.05135019,-0.3392496,1.585282,-0.1801874,-0.07517131,1.61123,0.327157,-0.01028772,1.564087,NA,NA,NotTracked,Unknown,
0.9628906,-0.2250977,0.1318359,-0.6098633,0.8173828,0.2753906,-2,0,0,-2,-1,1,20,2,-14,-14,-18,-13,16,0,-14,-2,4.5625,4.5625,4.5625,29.5,29.5,29.5,3.227652,2.913162,5.991233,7.050919,5.412731,3.669666,-0.1441455,-0.4117066,1.54057,0.1874602,0.1547015,1.486284,0.03859992,0.454659,1.597918,-0.1901036,-0.4140377,1.534833,0.1375302,0.1150742,1.502944,0.0394786,-0.02138767,1.628933,0.03533237,-0.3475643,1.619191,-0.1414935,0.1670686,1.613846,-0.0524835,-0.3395767,1.584858,-0.1806384,-0.07546303,1.6117,0.3361425,-0.009398177,1.589431,NA,NA,NotTracked,Closed,
0.9638672,-0.2119141,0.1240234,-0.4667969,0.8647461,0.2929688,3,-1,-2,0,0,0,-5,0,47,92,27,-24,8,14,7,6,-2.75,-2.75,-2.75,12.25,12.25,12.25,3.210458,2.900538,6.008502,7.038745,5.416033,3.560857,-0.1443813,-0.4124964,1.541416,0.2181892,0.1428321,1.497122,0.03862267,0.4547499,1.596089,-0.1845721,-0.413675,1.529131,0.1674667,0.09226499,1.518924,0.03907743,-0.021441,1.628049,0.0347768,-0.3476917,1.618931,-0.1417992,0.166972,1.613954,-0.05307728,-0.3396161,1.584167,-0.1807227,-0.07583003,1.611816,0.3741204,0.02552984,1.626152,NA,NA,NotTracked,Closed,
0.9545898,-0.2514648,0.1181641,-0.4287109,0.8867188,0.3193359,1,-1,-2,2,-1,-2,-4,0,13,-28,-21,-42,35,-14,-5,2,-14.8125,-14.8125,-14.8125,-2.8125,-2.8125,-2.8125,3.195192,2.890129,6.002686,7.024838,5.414096,3.517469,-0.1442199,-0.4119982,1.54201,0.2284651,0.1415238,1.498889,0.03974351,0.45466,1.59393,-0.189095,-0.4228606,1.538091,0.1835101,0.106729,1.533372,0.03922982,-0.02150951,1.62726,0.0347954,-0.3477395,1.618747,-0.1399005,0.166987,1.612449,-0.05297623,-0.3396074,1.583231,-0.1808171,-0.07576524,1.611809,0.3689574,0.01904989,1.627051,NA,NA,NotTracked,Closed,
0.9594727,-0.246582,0.1176758,-0.3427734,0.9145508,0.3422852,-2,-2,-1,0,-1,-2,9,0,-7,-70,-45,-47,-50,-45,-20,8,-9.5,-9.5,-9.5,-3.4375,-3.4375,-3.4375,3.190188,2.891557,5.991571,7.008332,5.420573,3.466735,-0.14372,-0.4133163,1.54007,0.2373266,0.1403721,1.500488,0.04099435,0.4545041,1.592661,-0.1870628,-0.4186333,1.533644,0.193313,0.1065513,1.543993,0.03988343,-0.02146343,1.626499,0.03532059,-0.3476694,1.618414,-0.1398804,0.1670199,1.612263,-0.05220452,-0.3394567,1.582143,-0.180763,-0.07563474,1.611583,0.3679332,0.01722061,1.630215,NA,NA,NotTracked,Closed,
0.9663086,-0.2094727,0.09228516,-0.3061523,0.8959961,0.3515625,-2,0,-1,-1,-2,-3,-1,0,-16,68,7,-62,-8,14,6,-22,-7.25,-7.25,-7.25,-1.0625,-1.0625,-1.0625,3.173416,2.898594,5.986534,6.995215,5.441283,3.453552,-0.1432882,-0.4133585,1.537643,0.2357353,0.1392706,1.502643,0.0424942,0.454461,1.591843,-0.1869791,-0.4192286,1.532495,0.1936966,0.1035279,1.544608,0.0404447,-0.02155013,1.626033,0.03590189,-0.3476639,1.618157,-0.1395144,0.16711,1.611717,-0.05141312,-0.339383,1.581079,-0.1801183,-0.07746594,1.610033,0.3688588,0.01831475,1.634313,NA,NA,NotTracked,Closed,
0.9619141,-0.2041016,0.09423828,-0.3076172,0.9023438,0.3642578,0,0,-3,-1,0,0,-1,-2,-19,-36,-9,36,11,10,12,3,-10.375,-10.375,-10.375,0.8125,0.8125,0.8125,3.171389,2.902103,5.972399,6.982133,5.458468,3.44717,-0.1423643,-0.4140004,1.534399,0.232337,0.1393619,1.503936,0.04430628,0.4544359,1.59099,-0.1825259,-0.4362802,1.5219,0.1899794,0.1026493,1.540626,0.04106917,-0.02163457,1.625531,0.03650025,-0.3476737,1.617856,-0.1391217,0.167322,1.610904,-0.05070412,-0.3392809,1.580271,-0.1789398,-0.08107228,1.607938,0.3685347,0.01748441,1.635497,NA,NA,NotTracked,Closed,
0.9814453,-0.1992188,0.08886719,-0.3017578,0.8823242,0.3671875,2,0,-3,0,0,-3,-13,-4,9,-31,3,43,13,2,-16,-24,-1.75,-1.75,-1.75,-5,-5,-5,3.172372,2.90726,5.964727,6.966781,5.468952,3.444435,-0.1416581,-0.4140379,1.532227,0.2298498,0.1381936,1.50551,0.04554537,0.4543635,1.590774,-0.1815667,-0.4121889,1.521923,0.1883919,0.1018878,1.538474,0.04148542,-0.02163539,1.625324,0.03692375,-0.3476315,1.61764,-0.1389446,0.1674927,1.610556,-0.05027479,-0.3391907,1.579786,-0.1783773,-0.08196875,1.60706,0.3681827,0.01650167,1.636564,NA,NA,NotTracked,Unknown,
0.9746094,-0.1894531,0.08691406,-0.2958984,0.8798828,0.3603516,-1,1,-1,-1,1,1,16,2,-23,-3,7,17,15,-19,-12,-6,1.375,1.375,1.375,-5.6875,-5.6875,-5.6875,3.187466,2.909826,5.950987,6.950173,5.470746,3.444138,-0.1407998,-0.413491,1.532657,0.2398916,0.1368739,1.504268,0.04658252,0.4543132,1.590722,-0.1809491,-0.4178426,1.522026,0.1970319,0.09775706,1.545266,0.04179081,-0.02166321,1.625265,0.03724894,-0.3477013,1.61758,-0.1371767,0.1674263,1.609405,-0.05001246,-0.3391932,1.579571,-0.1779583,-0.08122903,1.606435,0.367746,0.01572529,1.636826,NA,NA,NotTracked,Closed,
0.9643555,-0.2255859,0.09130859,-0.3081055,0.7978516,0.3486328,-1,-5,-2,0,0,0,-4,-1,-4,-71,-33,-59,-2,-3,1,-6,3.25,3.25,3.25,-6.3125,-6.3125,-6.3125,3.190877,2.910493,5.948797,6.9359,5.466186,3.439088,-0.139259,-0.4118975,1.532396,0.2322585,0.1315548,1.504575,0.04748383,0.4541988,1.590807,-0.1807103,-0.4086143,1.525424,0.1905869,0.1901353,1.543182,0.04210819,-0.02170802,1.625268,0.03743294,-0.347726,1.617535,-0.1360796,0.1674481,1.608944,-0.04991912,-0.3391766,1.579501,-0.1776837,-0.07991879,1.605884,0.3669928,0.01464004,1.636937,NA,NA,NotTracked,Closed,
