ALX,ALY,ALZ,ARX,ARY,ARZ,EMG0L,EMG1L,EMG2L,EMG3L,EMG4L,EMG5L,EMG6L,EMG7L,EMG0R,EMG1R,EMG2R,EMG3R,EMG4R,EMG5R,EMG6R,EMG7R,GLX,GLY,GLZ,GRX,GRY,GRZ,ORL,OPL,OYL,ORR,OPR,OYR,LHNX,LHNY,LHNZ,RHNX,RHNY,RHNZ,HX,HY,HZ,LTX,LTY,LTZ,RTX,RTY,RTZ,SpineMidX,SpineMidY,SpineMidZ,SpineBaseX,SpineBaseY,SpineBaseZ,ShoulderLeftX,ShoulderLeftY,ShoulderLeftZ,ShoulderRightX,ShoulderRightY,ShoulderRightZ,ElbowLeftX,ElbowLeftY,ElbowLeftZ,ElbowRightX,ElbowRightY,ElbowRightZ,Myo_Pose_left,Myo_Pose_Right,Kinect_pose_left,Kinect_pose_right
0.9614258,-0.2226563,0.08935547,0.9414063,0.1435547,0.2431641,0,-2,-1,-1,-2,0,-3,-2,0,0,-2,-5,0,0,12,0,1.125,1.125,1.125,-3.625,-3.625,-3.625,3.065948,2.902961,6.364483,5.846741,2.967891,6.036389,-0.1242462,-0.3730405,1.578413,0.1957256,-0.3725094,1.575948,0.04677093,0.4736061,1.614919,-0.07781383,-0.336258,1.557714,0.1513136,-0.3597132,1.551446,0.04567776,-0.002929061,1.672024,0.04327777,-0.3338014,1.674754,-0.1344249,0.1948017,1.646558,-0.03944318,-0.3264737,1.631667,-0.16336,-0.06221002,1.650155,0.2408449,-0.05803521,1.672423,NA,NA,NotTracked,NotTracked,
0.9614258,-0.2226563,0.08935547,0.9370117,0.1430664,0.2597656,0,-2,-1,-1,-2,0,-3,-2,-2,-2,-2,0,-1,-2,8,1,1.125,1.125,1.125,-3.375,-3.375,-3.375,3.065948,2.902961,6.364483,5.84322,2.970299,6.030053,-0.1246456,-0.3729662,1.578655,0.1955985,-0.3700865,1.577719,0.04656616,0.4737363,1.615705,-0.08023065,-0.3546939,1.55498,0.1492525,-0.3683874,1.553738,0.04554212,-0.002908624,1.672596,0.04320822,-0.3338285,1.675352,-0.1345644,0.1946941,1.646813,-0.03943214,-0.3264827,1.632029,-0.1633944,-0.06208876,1.650275,0.240572,-0.05807167,1.673308,NA,NA,NotTracked,NotTracked,
0.9614258,-0.2226563,0.08935547,0.9370117,0.1542969,0.2509766,0,-2,-1,-1,-2,0,-3,-2,-1,-2,-3,-1,3,-5,-24,-3,1.125,1.125,1.125,-1.25,-1.25,-1.25,3.065948,2.902961,6.364483,5.843822,2.971559,6.02737,-0.12489,-0.3734032,1.578747,0.1948554,-0.3702606,1.577757,0.0463322,0.47378,1.616411,-0.08314952,-0.3711327,1.554333,0.1483689,-0.3917341,1.55456,0.04536932,-0.002863618,1.673183,0.04323478,-0.3338118,1.675616,-0.1348396,0.1944975,1.647152,-0.0394155,-0.3265099,1.632138,-0.1634882,-0.06202277,1.650369,0.2400522,-0.05798832,1.674629,NA,NA,NotTracked,NotTracked,
0.9614258,-0.2226563,0.08935547,0.9467773,0.1508789,0.2529297,0,-2,-1,-1,-2,0,-3,-2,0,-1,-1,3,3,0,19,-2,1.125,1.125,1.125,-0.25,-0.25,-0.25,3.065948,2.902961,6.364483,5.844206,2.972817,6.025416,-0.1254256,-0.3737624,1.579793,0.1943452,-0.3707064,1.578625,0.04597398,0.4737617,1.617484,-0.07781401,-0.3453816,1.558516,0.148785,-0.363098,1.554732,0.04504003,-0.002839588,1.673705,0.0430311,-0.3338317,1.676022,-0.1350442,0.194412,1.647404,-0.03952781,-0.3265123,1.632364,-0.1636762,-0.0621103,1.650689,0.2395843,-0.0582292,1.675639,NA,NA,NotTracked,NotTracked,
0.9614258,-0.2226563,0.08935547,0.9316406,0.1435547,0.2416992,0,-2,-1,-1,-2,0,-3,-2,-1,2,-2,-3,-4,-5,-10,-2,1.125,1.125,1.125,-0.625,-0.625,-0.625,3.065948,2.902961,6.364483,5.845129,2.97281,6.024484,-0.1259831,-0.3706246,1.579797,0.193561,-0.370589,1.577535,0.04571122,0.4737947,1.617939,-0.07890882,-0.3328953,1.556131,0.148391,-0.3770297,1.553911,0.04465899,-0.002803721,1.674184,0.0428754,-0.3338124,1.676308,-0.1352317,0.194479,1.647611,-0.03963863,-0.3264545,1.632533,-0.1642765,-0.06088062,1.651068,0.2391807,-0.05795929,1.676237,NA,NA,NotTracked,NotTracked,
0.9614258,-0.2226563,0.08935547,0.9467773,0.1469727,0.2436523,0,-2,-1,-1,-2,0,-3,-2,-1,-1,0,0,-2,-5,-4,-2,1.125,1.125,1.125,2.125,2.125,2.125,3.065948,2.902961,6.364483,5.84736,2.973338,6.024654,-0.126598,-0.3708836,1.57946,0.1930915,-0.3699518,1.577082,0.0454569,0.4737891,1.618389,-0.08153334,-0.375893,1.557806,0.1476487,-0.376048,1.553255,0.04401615,-0.002766156,1.674664,0.04261376,-0.3338331,1.676484,-0.1355887,0.1943771,1.647907,-0.03983085,-0.3264832,1.632663,-0.164477,-0.06083908,1.651388,0.23874,-0.05797995,1.676781,NA,NA,NotTracked,NotTracked,
0.9614258,-0.2226563,0.08935547,0.9384766,0.1420898,0.2509766,0,-2,-1,-1,-2,0,-3,-2,0,0,0,0,1,-5,0,-2,1.125,1.125,1.125,-0.9375,-0.9375,-0.9375,3.065948,2.902961,6.364483,5.84452,2.974963,6.026742,-0.1268278,-0.3709176,1.57904,0.1927037,-0.3705835,1.577452,0.04509176,0.4737464,1.618943,-0.07918249,-0.3496204,1.559768,0.1483844,-0.3575915,1.553878,0.0435303,-0.002742524,1.675086,0.04223181,-0.3337777,1.676654,-0.136184,0.1943613,1.648498,-0.04009743,-0.3264789,1.632779,-0.1648492,-0.06087669,1.65166,0.2381664,-0.05776267,1.677321,NA,NA,NotTracked,NotTracked,
0.9614258,-0.2226563,0.08935547,0.9443359,0.1499023,0.2509766,0,-2,-1,-1,-2,0,-3,-2,-1,-1,-1,-1,-3,15,4,-1,1.125,1.125,1.125,-0.3125,-0.3125,-0.3125,3.065948,2.902961,6.364483,5.844267,2.977157,6.026608,-0.1272399,-0.3710795,1.578134,0.1911968,-0.3713519,1.576835,0.04469195,0.4737899,1.619492,-0.0796141,-0.3509894,1.557689,0.1477238,-0.3603864,1.553407,0.04300401,-0.00273736,1.675398,0.04171719,-0.3338165,1.676815,-0.1367914,0.1943212,1.649087,-0.04049677,-0.3265067,1.632843,-0.1650738,-0.06077642,1.651855,0.2376794,-0.05757479,1.677772,NA,NA,NotTracked,NotTracked,
0.9614258,-0.2226563,0.08935547,0.9458008,0.1503906,0.2456055,0,-2,-1,-1,-2,0,-3,-2,0,-1,-1,-1,1,0,-2,1,1.125,1.125,1.125,-0.6875,-0.6875,-0.6875,3.065948,2.902961,6.364483,5.845626,2.978348,6.024709,-0.1283627,-0.3713939,1.579545,0.1907992,-0.3706284,1.577287,0.04406697,0.4737906,1.620585,-0.08009658,-0.3340669,1.55528,0.1453314,-0.3718443,1.553466,0.04235609,-0.002660563,1.675886,0.04126862,-0.3338023,1.67698,-0.1372518,0.194257,1.649636,-0.04084056,-0.3264652,1.63295,-0.1656785,-0.06064926,1.652103,0.2371307,-0.05738114,1.678364,NA,NA,NotTracked,Unknown,
0.9614258,-0.2226563,0.08935547,1.026367,0.1694336,0.2504883,0,-2,-1,-1,-2,0,-3,-2,3,-1,29,3,-2,-2,-4,1,1.125,1.125,1.125,2.0625,2.0625,2.0625,3.065948,2.902961,6.364483,5.850598,2.980889,6.020576,-0.1282845,-0.3707808,1.577671,0.1898469,-0.3713118,1.575401,0.04330282,0.4737853,1.621321,-0.08349359,-0.3143308,1.550281,0.1435533,-0.3918414,1.551636,0.04166462,-0.002559648,1.676216,0.04074796,-0.3337783,1.677016,-0.1377015,0.1940783,1.65015,-0.04127088,-0.3264687,1.632887,-0.1666128,-0.05928592,1.652354,0.236572,-0.05751051,1.678853,NA,NA,NotTracked,Unknown,
0.9614258,-0.2226563,0.08935547,1.128906,0.3144531,0.2299805,0,-2,-1,-1,-2,0,-3,-2,0,3,-10,2,1,0,-1,-3,1.125,1.125,1.125,53.1875,53.1875,53.1875,3.065948,2.902961,6.364483,5.921196,3.060591,6.027148,-0.1289453,-0.3709916,1.578683,0.1899803,-0.3702969,1.569614,0.04150163,0.4741395,1.622989,-0.07997424,-0.3446728,1.556514,0.144525,-0.3591063,1.551689,0.04073807,-0.002487162,1.676722,0.03993237,-0.3337953,1.67706,-0.1388544,0.1942147,1.65123,-0.04212999,-0.3264289,1.63286,-0.1671479,-0.05947154,1.652583,0.2363044,-0.05687197,1.68122,NA,NA,NotTracked,Unknown,
0.9614258,-0.2226563,0.08935547,1.181152,0.3588867,0.5214844,0,-2,-1,-1,-2,0,-3,-2,-13,-26,2,-19,-2,0,-1,0,1.125,1.125,1.125,2.6875,2.6875,2.6875,3.065948,2.902961,6.364483,5.953302,3.260284,6.030548,-0.1296402,-0.3711382,1.576627,0.1952833,-0.329978,1.542002,0.03933297,0.4742865,1.624487,-0.08339839,-0.3739814,1.556081,0.1487277,-0.3400242,1.523931,0.03953248,-0.002475282,1.677019,0.03894011,-0.33391,1.676638,-0.1404083,0.1940196,1.652714,-0.04325933,-0.3265157,1.632335,-0.168068,-0.06049196,1.652906,0.2375113,-0.05333102,1.68791,NA,NA,NotTracked,Unknown,
0.9614258,-0.2226563,0.08935547,0.9980469,0.4785156,0.7875977,0,-2,-1,-1,-2,0,-3,-2,-1,-1,-26,11,-3,-4,-1,-2,1.125,1.125,1.125,100.4375,100.4375,100.4375,3.065948,2.902961,6.364483,6.059646,3.615028,6.01961,-0.1312858,-0.3712126,1.578208,0.1729009,-0.2707015,1.503571,0.03684832,0.4743832,1.626085,-0.08570495,-0.3164629,1.55089,0.1512217,-0.3238904,1.544925,0.03761224,-0.002402035,1.677345,0.03652402,-0.3339514,1.675927,-0.1421705,0.1939334,1.654628,-0.0455906,-0.3261551,1.631451,-0.1691635,-0.06081508,1.653809,0.2421868,-0.04396361,1.698774,NA,NA,NotTracked,Unknown,
0.9614258,-0.2226563,0.08935547,0.6347656,0.8989258,0.7783203,0,-2,-1,-1,-2,0,-3,-2,-1,4,55,82,6,1,2,4,1.125,1.125,1.125,36.375,36.375,36.375,3.065948,2.902961,6.364483,6.204322,4.109731,5.995165,-0.1320478,-0.3717228,1.57868,0.1661616,-0.13608,1.425203,0.03460571,0.4746734,1.627133,-0.08129334,-0.3606077,1.558357,0.113069,-0.150088,1.456263,0.03654735,-0.002446955,1.677416,0.03564167,-0.3341099,1.675561,-0.1428588,0.1937472,1.655278,-0.04614462,-0.3262703,1.631206,-0.1698488,-0.0608021,1.654246,0.2494823,-0.01898939,1.704483,NA,NA,NotTracked,Unknown,
0.9614258,-0.2226563,0.08935547,-0.05126953,0.7148438,0.612793,0,-2,-1,-1,-2,0,-3,-2,3,0,-10,-9,0,-1,0,-1,1.125,1.125,1.125,57.25,57.25,57.25,3.065948,2.902961,6.364483,6.255732,4.861045,6.045526,-0.1321974,-0.3715017,1.579254,0.1597879,0.0138604,1.402147,0.0330954,0.4745572,1.628162,-0.08522511,-0.3262048,1.554431,0.09072829,0.01607508,1.472556,0.03612509,-0.002434925,1.678137,0.03564049,-0.3338677,1.675884,-0.1432248,0.1935399,1.655921,-0.04594275,-0.3261716,1.632872,-0.1706941,-0.06074443,1.654847,0.2761257,-0.004746201,1.635682,NA,NA,NotTracked,Unknown,
0.9614258,-0.2226563,0.08935547,-0.2480469,0.5634766,0.6816406,0,-2,-1,-1,-2,0,-3,-2,4,13,6,-1,-2,-1,1,-7,1.125,1.125,1.125,29.9375,29.9375,29.9375,3.065948,2.902961,6.364483,6.340442,5.379304,6.155814,-0.1318237,-0.3715603,1.577536,0.1251456,0.1595916,1.405734,0.03234543,0.4743382,1.628851,-0.08232351,-0.3623965,1.559786,0.08272011,0.1644373,1.436222,0.03560033,-0.002775436,1.679287,0.03557376,-0.3342739,1.676482,-0.1440338,0.1932049,1.657367,-0.04607628,-0.3269336,1.634526,-0.1712087,-0.06071087,1.655335,0.2715369,-0.002909986,1.62628,NA,NA,NotTracked,Unknown,
0.9614258,-0.2226563,0.08935547,-0.4594727,0.4711914,0.5429688,0,-2,-1,-1,-2,0,-3,-2,-27,10,-1,-3,-4,14,6,4,1.125,1.125,1.125,46.3125,46.3125,46.3125,3.065948,2.902961,6.364483,6.454131,5.833984,6.328645,-0.1314226,-0.3711506,1.576361,0.1212819,0.2722801,1.43257,0.03005137,0.4741309,1.629823,-0.08430009,-0.3429342,1.556698,0.07442119,0.2667353,1.496429,0.03468157,-0.003291431,1.679314,0.03512097,-0.3361928,1.676954,-0.1442295,0.1931388,1.658389,-0.04762174,-0.3298038,1.638076,-0.1713659,-0.06025818,1.655619,0.2815975,0.0122016,1.580845,NA,NA,NotTracked,Closed,
0.9614258,-0.2226563,0.08935547,-0.5356445,0.5136719,0.3876953,0,-2,-1,-1,-2,0,-3,-2,8,-22,-17,-2,-2,15,-1,6,1.125,1.125,1.125,21.9375,21.9375,21.9375,3.065948,2.902961,6.364483,6.723881,6.27202,6.598118,-0.1311428,-0.3674932,1.576825,0.1388384,0.2957991,1.474596,0.02972562,0.4738677,1.629858,-0.08411926,-0.3291071,1.555449,0.110518,0.3110256,1.517938,0.03561576,-0.002367775,1.678475,0.03457312,-0.3355105,1.67679,-0.1423981,0.1930347,1.658818,-0.04880668,-0.3286689,1.638384,-0.1707451,-0.05613966,1.657382,0.2859591,0.03191203,1.549358,NA,NA,NotTracked,Unknown,
0.9614258,-0.2226563,0.08935547,-0.5449219,0.4379883,0.2568359,0,-2,-1,-1,-2,0,-3,-2,-13,-14,-10,-7,-3,-33,-11,-17,1.125,1.125,1.125,23.8125,23.8125,23.8125,3.065948,2.902961,6.364483,6.858206,6.404735,6.748885,-0.1311194,-0.3676954,1.578679,0.1479888,0.3091189,1.489277,0.03000768,0.4733989,1.629685,-0.08331201,-0.3304953,1.558194,0.1240245,0.2875838,1.526333,0.03876826,-0.002281894,1.680661,0.03373434,-0.3340649,1.676614,-0.1402632,0.1934735,1.65881,-0.05026641,-0.3264937,1.638301,-0.1710277,-0.04981511,1.659138,0.2850316,0.0506952,1.527294,NA,NA,NotTracked,Unknown,
0.9614258,-0.2226563,0.08935547,-0.5385742,0.4794922,0.2612305,0,-2,-1,-1,-2,0,-3,-2,21,16,32,13,4,3,2,-4,1.125,1.125,1.125,32.625,32.625,32.625,3.065948,2.902961,6.364483,6.930213,6.449396,6.818376,-0.1311848,-0.3674373,1.57964,0.1346335,0.3329895,1.498663,0.03095078,0.4727863,1.629966,-0.08200521,-0.3501273,1.560629,0.1181096,0.3024924,1.545625,0.03919359,-0.00197645,1.681121,0.03285273,-0.3326972,1.676617,-0.1386163,0.1936944,1.660064,-0.05158027,-0.324913,1.638417,-0.1710587,-0.04740437,1.660527,0.2842247,0.06506721,1.514483,NA,NA,NotTracked,Unknown,
0.9614258,-0.2226563,0.08935547,-0.6000977,0.5073242,0.1811523,0,-2,-1,-1,-2,0,-3,-2,-34,-53,-11,-5,-4,1,-4,1,1.125,1.125,1.125,1.3125,1.3125,1.3125,3.065948,2.902961,6.364483,7.137197,6.519728,7.064247,-0.1280305,-0.3873589,1.576801,0.1323344,0.3363431,1.500975,0.03161827,0.4722874,1.629941,-0.08710876,-0.4040874,1.55173,0.1176546,0.3016757,1.551222,0.03975357,-0.001572933,1.681464,0.0323538,-0.3317821,1.67647,-0.1373918,0.1938612,1.661434,-0.05218278,-0.3241083,1.638488,-0.1708762,-0.04581494,1.66247,0.2820722,0.06960002,1.510063,NA,NA,NotTracked,Unknown,
0.9614258,-0.2226563,0.08935547,-0.6748047,0.5258789,0.1298828,0,-2,-1,-1,-2,0,-3,-2,4,9,0,-2,-3,-11,-2,-1,1.125,1.125,1.125,-18.4375,-18.4375,-18.4375,3.065948,2.902961,6.364483,7.189603,6.525602,7.153296,-0.1301201,-0.3715808,1.580209,0.1270882,0.338794,1.503773,0.03225284,0.4716929,1.629946,-0.08371712,-0.3344115,1.560927,0.05739067,0.3277571,1.548909,0.04003038,-0.001507397,1.68155,0.0322176,-0.3315898,1.676367,-0.1367112,0.1937992,1.662219,-0.05239557,-0.3239037,1.638542,-0.170326,-0.04637375,1.663807,0.2809601,0.07276159,1.507315,NA,NA,NotTracked,Unknown,
0.9614258,-0.2226563,0.08935547,-0.8115234,0.6118164,0.1152344,0,-2,-1,-1,-2,0,-3,-2,-14,-19,-19,-8,-5,-15,20,-7,1.125,1.125,1.125,-10.4375,-10.4375,-10.4375,3.065948,2.902961,6.364483,7.178177,6.516638,7.169236,-0.1306848,-0.3710819,1.579921,0.1055768,0.3608775,1.513264,0.03297004,0.4710553,1.629808,-0.08309588,-0.3508599,1.561655,0.05133436,0.3334921,1.533732,0.04019037,-0.001463067,1.68143,0.03205592,-0.3315535,1.676142,-0.1360878,0.1938041,1.662684,-0.05263249,-0.3238931,1.638483,-0.169717,-0.04825927,1.664552,0.2832124,0.0681245,1.502894,NA,NA,NotTracked,Unknown,
0.9614258,-0.2226563,0.08935547,-0.8271484,0.5913086,0.1303711,0,-2,-1,-1,-2,0,-3,-2,14,-2,-7,-3,-2,-11,-4,6,1.125,1.125,1.125,-3,-3,-3,3.065948,2.902961,6.364483,7.163871,6.511358,7.166324,-0.1305458,-0.3707349,1.579432,0.1053807,0.3616348,1.511875,0.03359459,0.4707428,1.629594,-0.08288059,-0.3464029,1.560617,0.0525964,0.3316648,1.537333,0.04027015,-0.001543506,1.681287,0.03166013,-0.3318175,1.675705,-0.1354662,0.1939104,1.662892,-0.05306887,-0.3240947,1.638302,-0.169053,-0.04894198,1.664669,0.2845732,0.066661,1.499664,NA,NA,NotTracked,Unknown,
0.9614258,-0.2226563,0.08935547,-0.8286133,0.6152344,0.1206055,0,-2,-1,-1,-2,0,-3,-2,-7,-1,-12,0,3,54,3,3,1.125,1.125,1.125,-4.5,-4.5,-4.5,3.065948,2.902961,6.364483,7.160166,6.507672,7.164495,-0.1304755,-0.3708713,1.579708,0.1064923,0.3589426,1.511514,0.03421637,0.4705353,1.629562,-0.08343573,-0.3460355,1.559775,0.04679532,0.3330219,1.528682,0.04034187,-0.001658914,1.681262,0.03135006,-0.3320445,1.675429,-0.1349528,0.194121,1.663056,-0.0534113,-0.3242587,1.638171,-0.1683262,-0.0494719,1.66494,0.2881158,0.06308118,1.49646,NA,NA,NotTracked,Unknown,
0.9614258,-0.2226563,0.08935547,-0.8081055,0.5766602,0.1567383,0,-2,-1,-1,-2,0,-3,-2,-14,-26,-21,-7,-5,0,-7,5,1.125,1.125,1.125,3.5625,3.5625,3.5625,3.065948,2.902961,6.364483,7.148304,6.492308,7.139485,-0.1307276,-0.3680711,1.581149,0.1061635,0.3584438,1.512641,0.03483415,0.4704789,1.629784,-0.08316085,-0.3447047,1.5607,0.04972225,0.3330225,1.53365,0.04049453,-0.001709163,1.681331,0.03131392,-0.3320569,1.675386,-0.1346617,0.1941788,1.663285,-0.0534858,-0.3242493,1.63817,-0.1683515,-0.04871849,1.665133,0.288016,0.0628918,1.496531,NA,NA,NotTracked,Unknown,
0.9614258,-0.2226563,0.08935547,-0.7998047,0.590332,0.137207,0,-2,-1,-1,-2,0,-3,-2,-13,-21,-11,0,2,31,-14,-7,1.125,1.125,1.125,7.0625,7.0625,7.0625,3.065948,2.902961,6.364483,7.14504,6.486524,7.126959,-0.1309584,-0.3678003,1.581114,0.1084449,0.3541704,1.512593,0.03534351,0.4703864,1.629798,-0.08420245,-0.3240976,1.560375,0.04967096,0.3319594,1.533459,0.04066779,-0.001823052,1.681388,0.03125462,-0.3321454,1.675331,-0.1342521,0.1941566,1.663441,-0.05356311,-0.3243057,1.638144,-0.1681803,-0.04914084,1.665139,0.2884267,0.06325237,1.49651,NA,NA,NotTracked,Unknown,
0.9614258,-0.2226563,0.08935547,-0.7666016,0.7060547,0.1030273,0,-2,-1,-1,-2,0,-3,-2,8,13,13,4,4,6,0,7,1.125,1.125,1.125,29.25,29.25,29.25,3.065948,2.902961,6.364483,7.15679,6.486542,7.096614,-0.1307803,-0.3678646,1.581518,0.1271042,0.3500964,1.514681,0.03646265,0.469857,1.630074,-0.08332593,-0.3335112,1.561861,0.06070748,0.3334224,1.542394,0.04122751,-0.001591937,1.681582,0.03116295,-0.3319382,1.67522,-0.1337814,0.194351,1.663757,-0.05377472,-0.323901,1.637959,-0.1687095,-0.0468852,1.665029,0.2896204,0.06316774,1.497611,NA,NA,NotTracked,Unknown,
0.9614258,-0.2226563,0.08935547,-0.7573242,0.7089844,0.06982422,0,-2,-1,-1,-2,0,-3,-2,4,10,6,-2,-3,-10,-1,-2,1.125,1.125,1.125,65.125,65.125,65.125,3.065948,2.902961,6.364483,7.187798,6.552953,6.987654,-0.1312269,-0.3680658,1.580843,0.1515717,0.3600344,1.520516,0.03774663,0.4692836,1.631766,-0.0823523,-0.353945,1.562445,0.08834483,0.3623604,1.554667,0.04191693,-0.0003700393,1.681829,0.03084615,-0.3303494,1.674699,-0.1333954,0.1946549,1.663076,-0.05440315,-0.32115,1.636817,-0.1699615,-0.04454186,1.664359,0.3015957,0.0641652,1.506433,NA,NA,NotTracked,Unknown,
0.9614258,-0.2226563,0.08935547,-0.84375,0.6074219,0.08496094,0,-2,-1,-1,-2,0,-3,-2,14,26,9,3,6,13,1,0,1.125,1.125,1.125,99.125,99.125,99.125,3.065948,2.902961,6.364483,7.189164,6.684504,6.801096,-0.1331742,-0.3643534,1.582953,0.2005081,0.3671424,1.530115,0.03603734,0.471137,1.635051,-0.08423025,-0.3362508,1.563378,0.1641617,0.3746174,1.561,0.04049907,0.0006312542,1.682425,0.03133584,-0.3289003,1.67441,-0.1337128,0.1949681,1.662475,-0.05370236,-0.3189029,1.635458,-0.1707368,-0.04312671,1.6644,0.3227577,0.07637589,1.515973,NA,NA,NotTracked,Unknown,
0.9614258,-0.2226563,0.08935547,-0.8691406,0.347168,0.1713867,0,-2,-1,-1,-2,0,-3,-2,29,-5,3,4,-2,9,-5,5,1.125,1.125,1.125,122.75,122.75,122.75,3.065948,2.902961,6.364483,7.09385,6.845617,6.481942,-0.1351057,-0.361045,1.584563,0.2403996,0.3724114,1.544923,0.03314032,0.472356,1.637178,-0.08421394,-0.3437326,1.563318,0.1991786,0.3872869,1.570125,0.03924645,0.0003025679,1.683027,0.03149433,-0.3292634,1.674396,-0.1372015,0.1949383,1.66524,-0.05328519,-0.3194054,1.635099,-0.1716787,-0.04943365,1.664651,0.3380901,0.07481018,1.534891,NA,NA,NotTracked,Unknown,
0.9614258,-0.2226563,0.08935547,-0.9770508,0.2197266,0.1835938,0,-2,-1,-1,-2,0,-3,-2,-15,6,2,4,2,3,-4,-9,1.125,1.125,1.125,93.0625,93.0625,93.0625,3.065948,2.902961,6.364483,6.971548,6.930805,6.233182,-0.1365952,-0.3646318,1.585198,0.2676096,0.3747813,1.553931,0.03039273,0.4728084,1.638482,-0.09378937,-0.3734289,1.559281,0.2188238,0.3694339,1.570778,0.03769755,-0.0005480045,1.68353,0.03103872,-0.3306031,1.674533,-0.1387181,0.1947787,1.665205,-0.05352484,-0.3210635,1.634875,-0.1722298,-0.05294103,1.665155,0.3471853,0.07433603,1.54614,NA,NA,NotTracked,Unknown,
0.9614258,-0.2226563,0.08935547,-0.9829102,0.08007813,0.2519531,0,-2,-1,-1,-2,0,-3,-2,-31,-8,-6,-2,1,-9,-1,-8,1.125,1.125,1.125,61.4375,61.4375,61.4375,3.065948,2.902961,6.364483,6.666283,7.014104,5.732938,-0.1371232,-0.3648819,1.585831,0.2787431,0.3751304,1.560918,0.02801357,0.473208,1.639385,-0.08863507,-0.3448396,1.566017,0.2356292,0.3769334,1.594286,0.03575816,-0.00117253,1.683998,0.03041562,-0.3317621,1.674636,-0.1407971,0.1945635,1.666394,-0.05383295,-0.322183,1.634608,-0.172943,-0.05571221,1.665156,0.3549886,0.07004548,1.551061,NA,NA,NotTracked,Unknown,
0.9614258,-0.2226563,0.08935547,-0.984375,0.08642578,0.2250977,0,-2,-1,-1,-2,0,-3,-2,22,-6,-12,-4,-1,-10,2,-5,1.125,1.125,1.125,33,33,33,3.065948,2.902961,6.364483,6.548926,7.034184,5.540001,-0.1360472,-0.3681204,1.583759,0.2809103,0.3744271,1.561983,0.02689856,0.4735571,1.63958,-0.08687434,-0.3648339,1.563715,0.2306761,0.3632652,1.577111,0.03477177,-0.001719962,1.684168,0.03010039,-0.3328429,1.674725,-0.1410962,0.1945736,1.665504,-0.0539359,-0.3233183,1.634294,-0.1733969,-0.05719557,1.664964,0.3579856,0.06878473,1.556311,NA,NA,NotTracked,Unknown,
0.9614258,-0.2226563,0.08935547,-0.9804688,0.1279297,0.1899414,0,-2,-1,-1,-2,0,-3,-2,1,-10,-2,-5,-2,-23,0,3,1.125,1.125,1.125,-4.0625,-4.0625,-4.0625,3.065948,2.902961,6.364483,6.477646,7.045188,5.4444,-0.1356759,-0.367698,1.582231,0.2788295,0.3721946,1.56068,0.02654157,0.473546,1.639759,-0.08812593,-0.3388501,1.563825,0.2277074,0.3655388,1.579932,0.03439862,-0.002138624,1.684325,0.03025604,-0.3336318,1.674928,-0.1415457,0.1945673,1.665641,-0.05355635,-0.3241198,1.634169,-0.1735512,-0.0577978,1.664588,0.3584069,0.06355057,1.561581,NA,NA,NotTracked,Unknown,
0.9614258,-0.2226563,0.08935547,-0.9658203,0.1835938,0.175293,0,-2,-1,-1,-2,0,-3,-2,5,8,23,3,-16,19,3,1,1.125,1.125,1.125,-6.875,-6.875,-6.875,3.065948,2.902961,6.364483,6.481632,7.040229,5.456336,-0.1363383,-0.3675908,1.581663,0.274686,0.3695949,1.556235,0.0264751,0.4735059,1.639891,-0.08857798,-0.3421649,1.56161,0.2276225,0.3602541,1.572972,0.03418145,-0.00259804,1.684473,0.030458,-0.3344831,1.675043,-0.140772,0.1944733,1.663341,-0.05315445,-0.3249704,1.634005,-0.1736852,-0.05788684,1.664002,0.3584853,0.06391613,1.56202,NA,NA,NotTracked,Unknown,
0.9614258,-0.2226563,0.08935547,-0.9790039,0.2475586,0.1679688,0,-2,-1,-1,-2,0,-3,-2,-14,5,-15,-2,-2,3,2,-9,1.125,1.125,1.125,-5.1875,-5.1875,-5.1875,3.065948,2.902961,6.364483,6.507227,7.007563,5.512292,-0.1357412,-0.3673593,1.58217,0.2746384,0.3657106,1.55282,0.02652003,0.4734948,1.639941,-0.09370755,-0.3711207,1.556982,0.2260733,0.3581379,1.570382,0.03406541,-0.002905689,1.684588,0.03067915,-0.3349176,1.675146,-0.1411895,0.1942427,1.663511,-0.05282939,-0.3254631,1.63379,-0.1740901,-0.05755106,1.663366,0.3583785,0.06378453,1.561471,NA,NA,NotTracked,Unknown,
0.9614258,-0.2226563,0.08935547,-0.9750977,0.2709961,0.175293,0,-2,-1,-1,-2,0,-3,-2,-2,19,7,2,1,0,1,2,1.125,1.125,1.125,-4.5625,-4.5625,-4.5625,3.065948,2.902961,6.364483,6.477472,6.978513,5.503687,-0.1363873,-0.367503,1.58265,0.2749273,0.3632353,1.548738,0.02656909,0.4735112,1.64004,-0.09210625,-0.3558796,1.558651,0.2307165,0.3506243,1.566175,0.03384849,-0.003094148,1.684643,0.03082404,-0.3352874,1.675296,-0.1416123,0.1940672,1.663634,-0.05259575,-0.3258256,1.633738,-0.1740547,-0.05781881,1.663237,0.3561919,0.0587364,1.563983,NA,NA,NotTracked,Unknown,
0.9614258,-0.2226563,0.08935547,-0.9516602,0.2636719,0.1923828,0,-2,-1,-1,-2,0,-3,-2,-2,2,-8,-4,-1,-7,-2,4,1.125,1.125,1.125,-8.125,-8.125,-8.125,3.065948,2.902961,6.364483,6.473176,6.967898,5.507263,-0.1364266,-0.3673256,1.583749,0.2733609,0.358861,1.544695,0.02667635,0.4735642,1.640097,-0.08914652,-0.3531756,1.564251,0.2285823,0.3510765,1.568581,0.03377544,-0.003275561,1.684739,0.03086779,-0.3356364,1.675449,-0.1418639,0.1940741,1.663845,-0.05251624,-0.3260153,1.633732,-0.1739733,-0.05814372,1.66327,0.3563991,0.0589231,1.56341,NA,NA,NotTracked,Unknown,
0.9614258,-0.2226563,0.08935547,-0.9150391,0.246582,0.215332,0,-2,-1,-1,-2,0,-3,-2,2,-11,-6,-8,-6,-13,4,-1,1.125,1.125,1.125,-10.875,-10.875,-10.875,3.065948,2.902961,6.364483,6.475795,6.948371,5.523217,-0.137084,-0.3684107,1.584407,0.2655896,0.3465948,1.528043,0.02672099,0.4735424,1.640056,-0.08981159,-0.3222606,1.562541,0.2206794,0.3377555,1.560348,0.0337227,-0.003491508,1.684806,0.03084115,-0.335929,1.675723,-0.1422073,0.1938642,1.664065,-0.05245053,-0.3261845,1.633809,-0.1738579,-0.05889571,1.663421,0.3549959,0.0557976,1.565199,NA,NA,NotTracked,Unknown,
0.9614258,-0.2226563,0.08935547,-0.5825195,0.230957,0.2963867,0,-2,-1,-1,-2,0,-3,-2,1,-9,1,5,12,0,6,-2,1.125,1.125,1.125,-40.5625,-40.5625,-40.5625,3.065948,2.902961,6.364483,6.571458,6.677032,5.730803,-0.1361913,-0.3682619,1.583748,0.2503304,0.3061074,1.494595,0.02688556,0.4735582,1.640004,-0.0883273,-0.3603933,1.565073,0.2029583,0.3091911,1.540429,0.0337205,-0.003520807,1.684803,0.03095858,-0.3358245,1.675782,-0.1423,0.1938239,1.664231,-0.05227906,-0.3260169,1.633784,-0.1736284,-0.05889858,1.663444,0.3462358,0.03763728,1.580927,NA,NA,NotTracked,Unknown,
0.9614258,-0.2226563,0.08935547,-0.6079102,0.277832,0.2783203,0,-2,-1,-1,-2,0,-3,-2,2,-5,12,-8,-1,9,-20,0,1.125,1.125,1.125,-66.0625,-66.0625,-66.0625,3.065948,2.902961,6.364483,6.527423,6.318125,5.795897,-0.1336019,-0.3848402,1.581888,0.2339556,0.2161936,1.428863,0.02700456,0.4735742,1.639972,-0.08851496,-0.3480519,1.564213,0.189585,0.2280868,1.45525,0.0336391,-0.003564499,1.684813,0.03109391,-0.3356361,1.675984,-0.1426694,0.1939272,1.664823,-0.05204909,-0.3258266,1.6339,-0.1735367,-0.05885678,1.663453,0.320291,0.009774358,1.61519,NA,NA,NotTracked,Unknown,
0.9614258,-0.2226563,0.08935547,-0.5,0.5112305,0.6147461,0,-2,-1,-1,-2,0,-3,-2,3,6,30,40,6,-8,-4,-1,1.125,1.125,1.125,-18.125,-18.125,-18.125,3.065948,2.902961,6.364483,6.391788,5.519196,5.781971,-0.134461,-0.3749708,1.583445,0.2117249,0.07273109,1.36316,0.02711155,0.4736257,1.639981,-0.08779967,-0.3484967,1.564135,0.1791554,0.08818515,1.346286,0.03352884,-0.003776414,1.684776,0.03123677,-0.3357609,1.676393,-0.142992,0.1939572,1.66518,-0.05166034,-0.3263353,1.63462,-0.1735217,-0.05911791,1.663434,0.3011744,-0.02147898,1.586602,NA,NA,NotTracked,Unknown,
0.9614258,-0.2226563,0.08935547,-0.0004882813,0.3081055,0.4179688,0,-2,-1,-1,-2,0,-3,-2,-4,-4,-55,-24,-4,2,5,-7,1.125,1.125,1.125,-96.375,-96.375,-96.375,3.065948,2.902961,6.364483,6.26957,4.796883,5.819502,-0.133192,-0.3744297,1.582464,0.2103446,-0.1146061,1.373529,0.02716464,0.4737553,1.64012,-0.08747659,-0.3510927,1.562629,0.1745391,-0.08071529,1.350572,0.03355958,-0.003727101,1.684849,0.03172524,-0.3354723,1.676922,-0.1432846,0.1940249,1.665418,-0.05082013,-0.3263678,1.635315,-0.1734303,-0.05929888,1.663453,0.271513,-0.006816316,1.701676,NA,NA,NotTracked,Unknown,
0.9614258,-0.2226563,0.08935547,0.8769531,0.3398438,0.2563477,0,-2,-1,-1,-2,0,-3,-2,-10,-4,-4,-2,-2,-1,-3,0,1.125,1.125,1.125,34.75,34.75,34.75,3.065948,2.902961,6.364483,6.403664,4.166531,5.844087,-0.1309778,-0.3875918,1.57964,0.2091036,-0.2772555,1.43634,0.02716422,0.4740726,1.640688,-0.08929569,-0.3878754,1.555684,0.2201773,-0.2697282,1.396204,0.03353564,-0.00367612,1.684853,0.03173109,-0.3354621,1.676926,-0.1437192,0.1937875,1.66562,-0.05074824,-0.3264014,1.635229,-0.1733847,-0.05950064,1.663386,0.2481776,-0.03982327,1.67083,NA,NA,NotTracked,Unknown,
0.9614258,-0.2226563,0.08935547,1.320313,0.5844727,0.2607422,0,-2,-1,-1,-2,0,-3,-2,10,-5,-21,-9,3,0,22,2,1.125,1.125,1.125,-267.125,-267.125,-267.125,3.065948,2.902961,6.364483,6.240006,3.417426,5.772858,-0.1305183,-0.384626,1.578017,0.2106596,-0.371839,1.503691,0.02744592,0.4742381,1.641416,-0.08677916,-0.3759855,1.557082,0.2315072,-0.369213,1.474673,0.0336255,-0.003700437,1.684696,0.03211142,-0.3355401,1.676833,-0.1441304,0.1938093,1.66574,-0.05025343,-0.3267023,1.634803,-0.1732563,-0.05989361,1.662887,0.2368334,-0.06189526,1.654817,NA,NA,NotTracked,Unknown,
