ALX,ALY,ALZ,ARX,ARY,ARZ,EMG0L,EMG1L,EMG2L,EMG3L,EMG4L,EMG5L,EMG6L,EMG7L,EMG0R,EMG1R,EMG2R,EMG3R,EMG4R,EMG5R,EMG6R,EMG7R,GLX,GLY,GLZ,GRX,GRY,GRZ,ORL,OPL,OYL,ORR,OPR,OYR,LHNX,LHNY,LHNZ,RHNX,RHNY,RHNZ,HX,HY,HZ,LTX,LTY,LTZ,RTX,RTY,RTZ,SpineMidX,SpineMidY,SpineMidZ,SpineBaseX,SpineBaseY,SpineBaseZ,ShoulderLeftX,ShoulderLeftY,ShoulderLeftZ,ShoulderRightX,ShoulderRightY,ShoulderRightZ,ElbowLeftX,ElbowLeftY,ElbowLeftZ,ElbowRightX,ElbowRightY,ElbowRightZ,Myo_Pose_left,Myo_Pose_Right,Kinect_pose_left,Kinect_pose_right
0.9536133,-0.2573242,0.1044922,0.9443359,0.1386719,0.2353516,0,-1,-3,-3,-1,-1,0,-1,0,0,0,-2,-2,0,-1,-1,-1.125,-1.125,-1.125,0.9375,0.9375,0.9375,3.138321,2.950853,4.244377,5.840634,2.949149,7.063231,-0.1342484,-0.3802077,1.607534,0.1740587,-0.3599783,1.601573,0.02531409,0.4785412,1.674576,-0.09302329,-0.3786628,1.585463,0.1320567,-0.3337889,1.586864,0.0261932,-0.001971567,1.714455,0.02343871,-0.3354487,1.707116,-0.1517564,0.1925448,1.692771,-0.05922996,-0.3276263,1.665748,-0.1785188,-0.06259895,1.685778,0.2185051,-0.06871881,1.706844,NA,NA,NotTracked,NotTracked,
0.9609375,-0.2626953,0.1069336,0.9414063,0.1464844,0.2402344,-2,0,0,3,0,-2,-2,-1,-1,0,-1,-1,0,-1,3,1,-0.1875,-0.1875,-0.1875,3.3125,3.3125,3.3125,3.138321,2.950853,4.244377,5.845836,2.94952,7.063634,-0.1339692,-0.3772227,1.608997,0.1738182,-0.3624081,1.602529,0.02538645,0.4785349,1.674664,-0.09099299,-0.3597951,1.587235,0.1320124,-0.3337312,1.5873,0.02619025,-0.001954227,1.714707,0.02338869,-0.3354541,1.707483,-0.1517459,0.1925636,1.692777,-0.05924651,-0.3276357,1.666004,-0.178506,-0.0625397,1.685937,0.2185667,-0.06876106,1.707247,NA,NA,NotTracked,NotTracked,
0.9619141,-0.2514648,0.1044922,0.9472656,0.1381836,0.2329102,-1,-2,-2,-2,-2,-1,-1,-2,-1,-1,-1,-1,-1,-1,1,1,-0.3125,-0.3125,-0.3125,1.6875,1.6875,1.6875,3.137106,2.950123,4.244708,5.847078,2.949645,7.065443,-0.1333876,-0.378245,1.60688,0.175133,-0.355294,1.601958,0.02541581,0.4784848,1.67468,-0.0875356,-0.3668664,1.59147,0.1323017,-0.3308991,1.586711,0.02618884,-0.001954232,1.714746,0.02338774,-0.3354703,1.707522,-0.151681,0.1925879,1.692676,-0.05924664,-0.3276565,1.666027,-0.1785461,-0.06248804,1.685827,0.2185607,-0.06876642,1.707278,NA,NA,NotTracked,NotTracked,
0.9663086,-0.2587891,0.1064453,0.940918,0.1430664,0.2265625,-1,-2,-1,-3,1,0,-1,0,1,-3,0,-1,-1,0,0,-2,-0.75,-0.75,-0.75,2.125,2.125,2.125,3.136517,2.950402,4.244926,5.849958,2.949119,7.068224,-0.1373007,-0.3683954,1.608796,0.1734812,-0.3604355,1.602265,0.02539583,0.4784764,1.674797,-0.09466267,-0.3623257,1.585539,0.1318612,-0.3326004,1.587187,0.02620886,-0.001955872,1.714849,0.02333021,-0.335422,1.707612,-0.1516898,0.1925833,1.692661,-0.05930522,-0.3276153,1.666121,-0.1786112,-0.0626024,1.685815,0.2185462,-0.06874156,1.707484,NA,NA,NotTracked,NotTracked,
0.9589844,-0.2514648,0.1054688,0.9511719,0.1342773,0.2304688,0,0,0,0,-2,-2,-1,-3,0,0,-1,0,-3,0,-2,-1,0.0625,0.0625,0.0625,1.875,1.875,1.875,3.136305,2.950271,4.245318,5.849453,2.946263,7.073333,-0.1354706,-0.3792425,1.60781,0.1746158,-0.3580402,1.603269,0.02543178,0.4785134,1.674887,-0.09614193,-0.3692448,1.582116,0.1295632,-0.3750206,1.58812,0.0261866,-0.001950661,1.714888,0.02334017,-0.3354284,1.707642,-0.1517179,0.1925918,1.692618,-0.05929984,-0.3276106,1.66615,-0.1786179,-0.0626474,1.685809,0.2184874,-0.06887487,1.70769,NA,NA,NotTracked,NotTracked,
0.9584961,-0.2446289,0.1049805,0.9448242,0.1416016,0.2333984,-2,0,-1,-1,0,-3,0,-1,1,-1,0,-1,-1,0,0,0,-0.25,-0.25,-0.25,1.875,1.875,1.875,3.137412,2.95049,4.24472,5.850466,2.945359,7.075687,-0.1348485,-0.3795665,1.608375,0.1741205,-0.3604426,1.603317,0.02546529,0.4785403,1.675019,-0.09180228,-0.3741303,1.586268,0.1329272,-0.3277124,1.59002,0.02620417,-0.001919174,1.71512,0.02331778,-0.3353823,1.707834,-0.1517247,0.1926554,1.692625,-0.05933742,-0.3275478,1.666384,-0.1787233,-0.06252001,1.685814,0.2184372,-0.06886338,1.707772,NA,NA,NotTracked,NotTracked,
0.9575195,-0.2680664,0.09570313,0.9458008,0.1386719,0.2299805,0,-2,-1,1,-1,-1,-1,1,-1,0,-2,-1,-3,-2,-1,1,-2.25,-2.25,-2.25,1.25,1.25,1.25,3.133429,2.948577,4.244898,5.851024,2.945179,7.076949,-0.135061,-0.379184,1.607989,0.1747867,-0.3578775,1.603574,0.02551311,0.4785604,1.675238,-0.09416575,-0.3862057,1.583941,0.1334142,-0.3248098,1.5906,0.02617657,-0.001891357,1.715238,0.02328603,-0.335397,1.707985,-0.1517047,0.1926639,1.692581,-0.05936909,-0.327567,1.666535,-0.1787939,-0.06248192,1.685765,0.2184626,-0.06886358,1.707812,NA,NA,NotTracked,NotTracked,
0.9379883,-0.3486328,0.08447266,0.940918,0.1367188,0.2353516,0,-1,0,1,-1,0,-4,1,2,-3,-1,-2,0,0,-2,0,15.1875,15.1875,15.1875,-0.1875,-0.1875,-0.1875,3.094098,2.95377,4.303372,5.848868,2.945776,7.079517,-0.1375889,-0.3799124,1.60614,0.1748186,-0.3579376,1.603658,0.02559615,0.4785527,1.675505,-0.09475658,-0.3641501,1.585718,0.1323791,-0.3305429,1.590061,0.02617129,-0.001877015,1.715333,0.02324503,-0.3354152,1.708113,-0.1516771,0.1926454,1.692514,-0.05940282,-0.3276034,1.666715,-0.1789676,-0.06272008,1.685145,0.2184838,-0.06892026,1.707884,NA,NA,NotTracked,NotTracked,
1.001953,-0.3134766,0.0004882813,0.9501953,0.1523438,0.2275391,-3,2,-1,-3,-4,-3,-2,1,-1,1,-2,-1,1,1,-2,1,-5.5,-5.5,-5.5,3.9375,3.9375,3.9375,2.971618,2.971909,4.429891,5.850824,2.949613,7.08467,-0.1436571,-0.3709736,1.597239,0.1747047,-0.3554846,1.603486,0.02581278,0.4788542,1.676738,-0.09521788,-0.3261659,1.59787,0.1313371,-0.355146,1.588042,0.02615367,-0.001826722,1.715613,0.02321354,-0.3354957,1.708323,-0.1515953,0.1925767,1.692402,-0.05945511,-0.3277578,1.666939,-0.1806226,-0.06241794,1.682675,0.2184837,-0.06892893,1.708072,NA,NA,NotTracked,NotTracked,
1.01416,-0.3964844,0.04785156,0.9311523,0.1347656,0.2192383,-1,-1,0,16,18,0,1,-2,0,-3,1,-1,-2,0,2,0,-15.75,-15.75,-15.75,1,1,1,2.905674,3.052244,4.471087,5.850711,2.952581,7.087183,-0.1484104,-0.3675172,1.566899,0.1747888,-0.3547701,1.603319,0.0262624,0.479294,1.678271,-0.1108032,-0.3651436,1.532521,0.1310933,-0.3237386,1.588536,0.02620998,-0.001787564,1.715977,0.0231557,-0.3355848,1.70846,-0.1513547,0.1926323,1.69223,-0.05956621,-0.3279586,1.667123,-0.1846619,-0.05944354,1.677627,0.2185434,-0.06905242,1.708109,NA,NA,Unknown,NotTracked,
1,-0.5410156,0.1743164,0.9370117,0.1474609,0.2387695,-1,0,0,-11,-18,2,-2,-2,0,-1,0,1,-2,-1,-4,-1,-33.25,-33.25,-33.25,3.3125,3.3125,3.3125,2.923681,3.288651,4.39305,5.855624,2.95527,7.089015,-0.1402889,-0.3419029,1.514747,0.1745178,-0.3550838,1.603099,0.02674586,0.4797305,1.680196,-0.108935,-0.3301056,1.544875,0.1314505,-0.3322472,1.588576,0.02647635,-0.001684203,1.716664,0.02333904,-0.3356534,1.708779,-0.1509019,0.1934372,1.69235,-0.05939801,-0.3281659,1.667469,-0.1970584,-0.04602088,1.67123,0.2185633,-0.06920283,1.708179,NA,NA,Unknown,Unknown,
0.9272461,-0.6782227,0.3642578,0.9404297,0.1391602,0.25,7,22,-14,-34,0,-2,-7,-3,-3,-3,1,-7,3,2,0,1,-39.0625,-39.0625,-39.0625,6.9375,6.9375,6.9375,2.950546,3.567571,4.287525,5.848897,2.958579,7.104468,-0.09894872,-0.2798975,1.495499,0.1747854,-0.3556617,1.603439,0.02720743,0.4798848,1.681849,-0.08798309,-0.3272713,1.519059,0.1312722,-0.3441413,1.588893,0.02704873,-0.001563371,1.717054,0.02476424,-0.3357636,1.708733,-0.1501127,0.1947143,1.692792,-0.05821177,-0.3287215,1.667498,-0.2105107,-0.0280856,1.66533,0.2186722,-0.0692342,1.708492,NA,NA,Unknown,Unknown,
0.6450195,-0.7890625,0.4458008,0.9477539,0.1767578,0.2661133,-3,17,-2,-26,-12,-2,-2,-2,-3,-1,-2,-4,-4,-1,3,-1,7.75,7.75,7.75,15.75,15.75,15.75,3.034865,4.02612,4.110323,5.874,2.962839,7.098572,-0.06757922,-0.1965893,1.451251,0.1776943,-0.3557166,1.603035,0.02759928,0.4799289,1.68319,-0.02296609,-0.1741928,1.537796,0.136209,-0.3425078,1.589422,0.02705612,-0.0014988,1.718237,0.02471075,-0.3355543,1.710198,-0.1493302,0.1958407,1.693211,-0.05795733,-0.3285218,1.668989,-0.217393,-0.01661607,1.66007,0.2186852,-0.06923146,1.708552,NA,NA,Unknown,NotTracked,
0.4204102,-0.671875,0.4672852,0.9384766,0.1748047,0.2548828,-7,1,4,10,-12,1,-8,-6,3,0,1,-3,-3,-2,3,1,5.375,5.375,5.375,0.9375,0.9375,0.9375,3.091974,4.257987,4.024071,5.877073,2.967329,7.100629,-0.03284842,-0.1120014,1.429466,0.1775735,-0.3552605,1.602736,0.02770176,0.4800127,1.68392,-0.003873923,-0.1691976,1.491357,0.1389245,-0.3281228,1.593765,0.02620331,-0.001347003,1.719543,0.02140277,-0.3348998,1.712854,-0.1491069,0.1961884,1.693903,-0.06070906,-0.3268665,1.671853,-0.2247134,-0.01301157,1.653976,0.2187078,-0.06919091,1.708608,NA,NA,Unknown,NotTracked,
0.2348633,-0.7905273,0.3276367,0.9545898,0.1489258,0.2207031,2,4,6,50,1,-4,5,5,0,-1,0,2,0,2,-3,0,3.3125,3.3125,3.3125,-0.9375,-0.9375,-0.9375,3.128378,4.562285,3.936008,5.878721,2.973575,7.096994,-0.01112435,-0.04397643,1.410687,0.176542,-0.3545029,1.601955,0.02772662,0.4800182,1.684212,0.07254713,-0.06837957,1.47175,0.1376776,-0.3156826,1.593765,0.02364885,-0.001148269,1.720093,0.01874866,-0.3330589,1.714466,-0.1481298,0.1968918,1.693725,-0.06301907,-0.324305,1.673493,-0.2252491,-0.009934779,1.640884,0.2186715,-0.06925363,1.708737,NA,NA,Unknown,NotTracked,
0.1606445,-0.7631836,0.3310547,0.9555664,0.140625,0.2270508,5,9,5,24,-5,-5,-5,-2,-1,-3,-3,3,0,-1,-5,-3,-2.625,-2.625,-2.625,-4.5,-4.5,-4.5,3.174829,4.868638,3.850001,5.860448,2.979187,7.101158,-0.003414608,-0.004775815,1.401696,0.175996,-0.3543509,1.602208,0.02773188,0.4799767,1.684847,0.06160484,-0.02798651,1.462273,0.1386023,-0.3582616,1.581414,0.02255616,-0.0009087486,1.720529,0.01770551,-0.3318026,1.715428,-0.1463293,0.1984673,1.692997,-0.06358355,-0.3230218,1.674012,-0.2189408,-0.005282331,1.619263,0.2186025,-0.06928748,1.709038,NA,NA,Unknown,Unknown,
0.159668,-0.8129883,0.3662109,0.9350586,0.1611328,0.2392578,1,-3,-7,-15,0,-1,1,7,2,6,-2,2,5,8,0,4,-9.75,-9.75,-9.75,-2.125,-2.125,-2.125,3.158697,4.937916,3.827929,5.864164,2.986788,7.08977,0.0002089852,0.01134655,1.394833,0.1809222,-0.3355019,1.609242,0.02781913,0.4799285,1.685625,0.06236149,0.001352127,1.468857,0.1444855,-0.2675691,1.596818,0.0224482,-0.0005375877,1.721109,0.0171639,-0.3311455,1.71582,-0.1464159,0.1983464,1.693316,-0.06388636,-0.3223886,1.673888,-0.2171953,-0.00134988,1.605122,0.2185598,-0.06917219,1.709496,NA,NA,Unknown,Unknown,
0.1376953,-0.8354492,0.3823242,1.020508,0.1777344,0.2421875,-5,-11,1,23,10,3,-4,-22,-12,-7,3,17,6,3,8,-1,-17.625,-17.625,-17.625,-1.1875,-1.1875,-1.1875,3.136529,4.945694,3.815566,5.907156,3.011588,7.045044,0.004745788,0.01080642,1.392356,0.1749352,-0.3519931,1.604074,0.02783511,0.4800965,1.6864,0.06139128,-0.01152738,1.459731,0.1440089,-0.3672484,1.569643,0.02227738,-0.0001182342,1.721951,0.01668848,-0.3305121,1.716335,-0.1464938,0.198295,1.693483,-0.06409877,-0.3218253,1.673939,-0.2161173,0.0004785413,1.599333,0.2182589,-0.06855027,1.711566,NA,NA,Unknown,Unknown,
0.1279297,-0.8754883,0.3979492,1.04541,0.1845703,0.3793945,-3,-1,-5,-36,-8,-10,-2,2,-5,-4,16,-4,-2,0,3,2,-12.5,-12.5,-12.5,25.3125,25.3125,25.3125,3.114811,4.917334,3.809693,5.916862,3.103137,7.062794,0.004420896,0.00280582,1.390103,0.1797678,-0.3287566,1.606428,0.02789873,0.4802692,1.687059,0.05388233,-0.03009473,1.439,0.1447579,-0.2621834,1.593889,0.02213372,0.0002811103,1.722668,0.01627645,-0.3299848,1.716818,-0.1439671,0.1996098,1.691471,-0.06424478,-0.321348,1.673954,-0.2148183,0.002497036,1.596623,0.2185961,-0.0674094,1.715432,NA,NA,Unknown,Unknown,
0.06787109,-0.9169922,0.4140625,0.9570313,0.3256836,0.5561523,-3,3,-5,-9,-1,-2,-2,-2,-12,-12,4,-17,-5,0,4,-2,12,12,12,62.6875,62.6875,62.6875,3.127315,4.870602,3.806798,5.960475,3.34888,7.139588,0.004470287,-0.00469729,1.391325,0.1564455,-0.3319436,1.580986,0.0279389,0.4803827,1.687591,0.05918566,-0.03399071,1.438375,0.1294118,-0.3351462,1.540272,0.02198222,0.0005447602,1.723033,0.01596642,-0.3296929,1.717016,-0.142785,0.2005276,1.690141,-0.06448729,-0.3208917,1.673849,-0.214811,0.003341118,1.596511,0.2214456,-0.06294027,1.721637,NA,NA,Unknown,Unknown,
0.01416016,-0.9853516,0.4135742,0.7905273,0.5654297,0.6376953,-1,-2,0,-27,-4,13,9,11,1,-3,-11,-8,-1,3,-26,4,15.75,15.75,15.75,70,70,70,3.148998,4.850372,3.81408,6.029977,3.590538,7.199721,0.001755457,-0.0106984,1.388625,0.1360451,-0.3036721,1.55089,0.02778679,0.4805056,1.688267,0.06541681,-0.0350825,1.4528,0.1187,-0.2885943,1.511114,0.02091303,0.0002255407,1.72268,0.01571452,-0.3295578,1.717123,-0.1423673,0.2007789,1.689227,-0.06469191,-0.320527,1.673774,-0.2142492,0.002809202,1.597418,0.2236541,-0.05769005,1.726218,NA,NA,Unknown,Unknown,
0.06445313,-0.953125,0.4448242,0.6420898,0.6591797,0.6328125,-1,-1,3,15,2,-1,-9,4,9,-4,-4,-6,2,-8,-1,-1,10,10,10,67.375,67.375,67.375,3.189425,4.837992,3.840024,6.101561,3.927184,7.29975,0.0003900485,-0.0129549,1.380687,0.105402,-0.252576,1.553526,0.02712509,0.4804612,1.688962,0.0642554,-0.0442545,1.4535,0.04791393,-0.1843573,1.549286,0.02099808,0.000356362,1.722958,0.01572661,-0.3295743,1.717142,-0.1421418,0.2007554,1.688954,-0.06453046,-0.3203825,1.67364,-0.2118635,0.00204296,1.597014,0.2275973,-0.04668395,1.727514,NA,NA,Unknown,Unknown,
0.1035156,-0.9433594,0.4760742,0.5751953,0.7788086,0.7753906,0,-1,-1,-8,-2,-1,-2,1,-6,-7,-11,0,-7,-8,-2,8,8.75,8.75,8.75,51.3125,51.3125,51.3125,3.20133,4.847806,3.871815,6.143399,4.180418,7.400069,-0.004075537,-0.01257466,1.373662,0.07645293,-0.1982433,1.540592,0.02565881,0.4803051,1.690352,0.05300052,-0.0220157,1.415667,0.09707165,-0.1615469,1.480835,0.02086616,0.0005357055,1.723792,0.01585207,-0.3294709,1.717703,-0.1433421,0.1997352,1.690239,-0.06417197,-0.3202707,1.67407,-0.2099841,0.0005893394,1.59669,0.2336493,-0.03519774,1.720897,NA,NA,Unknown,Unknown,
0.1245117,-0.902832,0.472168,0.5786133,0.7714844,0.8168945,-7,-1,14,55,5,0,-18,-14,-8,30,22,-12,0,-6,-17,8,8.4375,8.4375,8.4375,49.8125,49.8125,49.8125,3.206637,4.849092,3.881203,6.156168,4.27835,7.432587,-0.004453622,-0.01395884,1.367251,0.04844692,-0.1135375,1.504179,0.02399584,0.4800978,1.692004,0.006253358,-0.05053309,1.355923,0.06693064,-0.0343078,1.356231,0.02029297,0.0002788762,1.724141,0.01637969,-0.3294321,1.718305,-0.1433012,0.1997098,1.690147,-0.06355685,-0.3202324,1.674451,-0.2079777,-6.499114E-06,1.596359,0.2439514,-0.02428771,1.689175,NA,NA,NotTracked,Closed,
0.15625,-0.8847656,0.4599609,-0.1191406,0.8374023,0.7939453,0,-4,-1,6,-1,-2,-4,-1,-5,1,-8,6,0,0,-3,0,5.4375,5.4375,5.4375,55.8125,55.8125,55.8125,3.225531,4.827086,3.898627,6.304067,5.105074,7.492521,-0.005897813,-0.01654964,1.368774,0.0170242,-0.01388307,1.370634,0.02274791,0.4800566,1.694832,0.005007791,-0.04373334,1.34628,0.06734284,-0.006067384,1.33787,0.02017528,0.0006173703,1.726493,0.01704012,-0.3292778,1.719276,-0.1442341,0.1989172,1.691884,-0.06276035,-0.319997,1.675508,-0.2063375,-0.001161062,1.596944,0.2597189,-0.01493498,1.657983,NA,NA,NotTracked,NotTracked,
0.1220703,-0.8901367,0.4882813,-0.2651367,0.5717773,0.7231445,0,-4,-3,3,1,-3,0,1,-6,-3,-4,-1,-1,-3,-15,-2,-1,-1,-1,81.0625,81.0625,81.0625,3.23139,4.814259,3.883492,6.420062,5.576234,7.496779,-0.008627467,-0.02130445,1.375149,0.01232775,-0.02102551,1.374281,0.02257475,0.4799101,1.696985,0.01902692,-0.05659479,1.368125,0.01361843,0.03068241,1.347857,0.01963117,0.0007844332,1.727299,0.01767777,-0.3283102,1.720495,-0.1455287,0.1980594,1.693785,-0.06176179,-0.3192151,1.677032,-0.2054764,-0.002144208,1.597535,0.2402733,0.00248614,1.603505,NA,NA,NotTracked,NotTracked,
0.09619141,-0.9433594,0.4892578,-0.2099609,0.4550781,0.496582,0,-4,-2,34,4,7,6,6,-1,-6,-3,1,0,9,4,-5,-0.75,-0.75,-0.75,58.125,58.125,58.125,3.234888,4.802412,3.845943,6.541073,5.989863,7.516859,0.004609593,-0.02297962,1.382419,0.0506785,0.2364839,1.428984,0.02152499,0.4811793,1.700485,0.04455147,-0.05686131,1.392583,0.07626165,0.2523453,1.422154,0.01669425,-0.001543908,1.725367,0.01724101,-0.3312297,1.721817,-0.1466592,0.1974785,1.695311,-0.06294499,-0.3234969,1.682173,-0.2057656,-0.00415732,1.602029,0.2269908,0.02984659,1.573318,NA,NA,Unknown,NotTracked,
0.0859375,-0.9379883,0.4472656,-0.2255859,0.2753906,0.3154297,2,-9,-9,-34,-3,2,-3,-2,-1,-1,5,-2,-1,-11,-13,3,-14.4375,-14.4375,-14.4375,38.0625,38.0625,38.0625,3.221317,4.813299,3.814413,6.670582,6.353581,7.581648,0.01131617,-0.02024877,1.388291,0.06409521,0.310989,1.446877,0.01977551,0.4856311,1.701594,0.02964315,-0.05701629,1.381177,0.09246746,0.3189327,1.442444,0.01642139,-0.001587667,1.724516,0.01746988,-0.3315201,1.722215,-0.1468538,0.1971863,1.696074,-0.06305604,-0.3239602,1.683554,-0.2042596,-0.004844457,1.602522,0.2265389,0.06548072,1.534278,NA,NA,Unknown,Unknown,
0.07666016,-0.9458008,0.4023438,-0.2509766,0.2978516,0.2836914,-3,-3,2,-17,-4,-5,-14,-1,3,13,2,0,0,14,-7,-10,-3.375,-3.375,-3.375,-29.4375,-29.4375,-29.4375,3.196345,4.844184,3.781328,6.669704,6.44005,7.595117,0.01537912,-0.0169753,1.390664,0.08908347,0.3146701,1.46937,0.01979593,0.4880667,1.701943,0.02780321,-0.05087894,1.3746,0.1153319,0.3204098,1.463,0.01647539,-0.001611075,1.724574,0.01806991,-0.3308763,1.722829,-0.1440513,0.1968005,1.695832,-0.06280531,-0.3233044,1.68415,-0.2032687,-0.005072794,1.603242,0.2254428,0.07424667,1.52763,NA,NA,Unknown,Unknown,
0.06494141,-0.9570313,0.3979492,-0.1401367,0.2939453,0.4511719,-3,1,1,49,0,2,3,-3,-12,-23,-6,-2,0,5,4,-12,2.3125,2.3125,2.3125,-34.375,-34.375,-34.375,3.195579,4.854926,3.771947,6.556138,6.358578,7.548167,0.01694299,-0.01466859,1.388759,0.08345719,0.303724,1.47035,0.01951847,0.4894505,1.702451,0.03439427,-0.04681668,1.378286,0.09945148,0.3265132,1.456705,0.01655033,-0.00142413,1.72448,0.0184004,-0.3299202,1.723139,-0.144411,0.1966124,1.696407,-0.0626398,-0.3222279,1.68487,-0.2021741,-0.005484145,1.603287,0.2227772,0.07295889,1.527221,NA,NA,Unknown,Closed,
0.09326172,-0.9648438,0.4116211,-0.4741211,0.5527344,0.2490234,-3,4,-2,-14,2,4,0,3,3,-8,-33,-18,2,5,-10,2,3,3,3,-71.1875,-71.1875,-71.1875,3.195536,4.880794,3.795135,6.397855,6.000705,7.517855,0.01315538,-0.008591586,1.381891,0.0549153,0.2687918,1.455826,0.01931695,0.4899693,1.703291,0.07498657,-0.01355029,1.4236,0.0803081,0.2706508,1.427027,0.01588815,-0.001843807,1.723061,0.01841442,-0.330508,1.722947,-0.1452591,0.1964453,1.697159,-0.06258418,-0.3227719,1.685799,-0.2011787,-0.005553617,1.602452,0.2137219,0.04207394,1.551997,NA,NA,Unknown,Closed,
0.1015625,-0.894043,0.409668,-0.4355469,0.7319336,0.6206055,-5,-6,0,9,0,-2,-9,-6,-5,13,12,-2,-7,-6,5,-10,4.625,4.625,4.625,-109,-109,-109,3.197427,4.89086,3.825937,6.242116,5.533107,7.501547,0.00952052,-0.004396892,1.374178,0.05644011,0.1483344,1.460437,0.02029914,0.4866565,1.705671,0.07151178,-0.006534949,1.427,0.0401173,0.05939202,1.359778,0.01572746,-0.001845136,1.722962,0.0184554,-0.3301358,1.72261,-0.1449735,0.197385,1.697625,-0.06208564,-0.3220793,1.684713,-0.2004289,-0.004497014,1.602279,0.2220634,-0.0007888436,1.601556,NA,NA,NotTracked,Unknown,
0.1196289,-0.9130859,0.4414063,-0.2314453,0.7744141,0.9013672,-3,-1,-2,0,-2,-1,3,-2,5,60,13,-5,-3,-2,5,16,5.5625,5.5625,5.5625,-55.5,-55.5,-55.5,3.200202,4.898556,3.859451,6.089234,5.028649,7.480004,-0.006825264,4.287057E-06,1.367323,0.04664836,0.009642205,1.374128,0.02074067,0.4852345,1.706937,0.003318954,0.04356565,1.34875,0.1036571,0.00594314,1.340083,0.01784562,-0.0002471294,1.725017,0.01973845,-0.326874,1.72158,-0.1452814,0.1972658,1.697875,-0.0592836,-0.3180251,1.681049,-0.199007,-0.003767708,1.599299,0.2316324,-0.01110483,1.630452,NA,NA,NotTracked,NotTracked,
0.04736328,-0.8710938,0.4536133,0.05419922,0.953125,1.128906,1,2,0,10,-1,-12,-1,-1,-3,-19,-9,-2,0,-5,-18,-16,3.4375,3.4375,3.4375,-49.625,-49.625,-49.625,3.217066,4.91134,3.883071,5.993553,4.593245,7.471026,-0.003614252,0.001524258,1.366403,0.04539132,-0.02683748,1.395352,0.02084889,0.4846345,1.707442,-0.004787304,0.04716784,1.346187,0.08920834,-0.001473143,1.340794,0.01890342,0.0006188374,1.726381,0.01998472,-0.3263539,1.721066,-0.1434372,0.198337,1.696742,-0.05872172,-0.317193,1.679573,-0.1977906,-0.00196921,1.596822,0.2441244,-0.02037719,1.680278,NA,NA,NotTracked,NotTracked,
0.04980469,-0.9033203,0.4824219,0.2226563,0.8291016,0.9082031,1,8,-6,-25,-3,1,1,-10,-5,-11,-6,-2,-2,5,-1,8,1.125,1.125,1.125,-15.1875,-15.1875,-15.1875,3.22195,4.914242,3.88669,5.976515,4.488847,7.460991,-0.005887075,0.003303644,1.36632,0.03379047,0.009674984,1.364267,0.0211939,0.4842741,1.707807,-0.001213939,0.04651889,1.344515,0.02459474,0.06733544,1.3455,0.02014803,0.001475646,1.72751,0.02041132,-0.3259226,1.720894,-0.14304,0.1990496,1.696226,-0.058116,-0.3166303,1.678383,-0.1974125,-0.0006503958,1.594903,0.240594,-0.02265822,1.687926,NA,NA,NotTracked,NotTracked,
0.02099609,-0.9082031,0.4765625,0.2915039,0.6733398,0.824707,-2,3,-3,-19,-7,7,-3,3,-28,-18,-6,2,3,-16,1,-2,-5.25,-5.25,-5.25,6.3125,6.3125,6.3125,3.225929,4.916861,3.874588,5.991292,4.448267,7.45046,-0.004001248,0.004983026,1.3662,0.008967838,0.00523543,1.36705,0.02218758,0.4838018,1.708031,0.001577083,0.0489555,1.347678,0.05069385,0.01885016,1.337151,0.02113392,0.001925984,1.728186,0.02077644,-0.3256845,1.720801,-0.1421464,0.1996234,1.695428,-0.05740949,-0.3163507,1.677083,-0.1969739,6.783248E-05,1.594045,0.2390903,-0.02139636,1.698774,NA,NA,NotTracked,NotTracked,
0.03515625,-0.8979492,0.4682617,0.3930664,0.5976563,0.8012695,0,1,-4,3,-3,-11,-9,2,4,1,9,1,-2,60,1,-3,2.3125,2.3125,2.3125,10.75,10.75,10.75,3.233046,4.91695,3.856845,6.017086,4.427382,7.433658,-0.002948411,0.00422372,1.367252,0.01132877,0.004926252,1.367785,0.02353746,0.4833624,1.708017,0.01133712,0.05157059,1.346769,0.05370084,0.01018713,1.338241,0.02148904,0.00210096,1.728474,0.0209871,-0.3255712,1.720769,-0.1412604,0.1995915,1.694467,-0.05706769,-0.316291,1.676395,-0.1960992,-4.230813E-05,1.593256,0.2388252,-0.01820993,1.704943,NA,NA,NotTracked,NotTracked,
0.07910156,-0.9345703,0.4384766,0.3442383,0.5410156,0.7817383,-4,-2,-6,-32,-6,-2,2,-11,-12,-2,9,-2,-4,-3,9,3,2.9375,2.9375,2.9375,2.25,2.25,2.25,3.235339,4.917074,3.838785,6.020449,4.432254,7.429157,0.001893959,0.005054297,1.368253,0.0260007,0.009176049,1.368092,0.02477243,0.4830652,1.707954,0.009056854,0.05010232,1.348708,0.0739642,0.01865278,1.341812,0.02201125,0.002304712,1.728785,0.02115742,-0.3254983,1.720816,-0.1417337,0.1991541,1.694593,-0.05684593,-0.3163136,1.676048,-0.1957861,-0.0004087735,1.592729,0.2388162,-0.01911131,1.705067,NA,NA,NotTracked,NotTracked,
0.07714844,-0.9204102,0.4267578,0.3295898,0.5566406,0.7670898,-1,1,0,-11,1,-4,-5,2,14,2,-7,-3,-6,-2,6,3,0.9375,0.9375,0.9375,-2,-2,-2,3.235593,4.920724,3.832418,6.020136,4.4413,7.426382,0.003167175,0.005969977,1.370272,0.01921443,0.009250776,1.371223,0.0259846,0.4827763,1.707959,0.00932304,0.0507273,1.350172,0.06218253,0.01807477,1.342306,0.02234671,0.002467995,1.729074,0.02122038,-0.32542,1.72095,-0.1421447,0.1987392,1.694691,-0.05681866,-0.3163448,1.67602,-0.1953473,-0.0006972816,1.592022,0.238751,-0.01971325,1.704713,NA,NA,NotTracked,NotTracked,
0.06835938,-0.9248047,0.4277344,0.3256836,0.5551758,0.7578125,-4,-1,-4,-1,-2,-4,-8,-9,-14,-11,-10,0,1,-8,-10,-5,0.4375,0.4375,0.4375,0.5,0.5,0.5,3.233905,4.922097,3.831468,6.015013,4.445086,7.431144,0.003924666,0.006412989,1.368448,0.02781295,0.0121975,1.370852,0.02671864,0.4826605,1.707701,0.006468217,0.04939927,1.349119,0.07681823,0.01509491,1.348167,0.02271642,0.002771014,1.729246,0.021367,-0.3249356,1.720985,-0.1399696,0.1996216,1.69228,-0.05676983,-0.3160464,1.675877,-0.1953408,-0.0004163898,1.592319,0.2389629,-0.0198811,1.704747,NA,NA,NotTracked,NotTracked,
0.05029297,-0.9135742,0.4438477,0.3525391,0.5473633,0.7495117,2,2,5,20,4,4,2,-5,-11,-15,1,5,6,-5,28,1,-0.1875,-0.1875,-0.1875,-1,-1,-1,3.230356,4.922425,3.836169,6.010708,4.437204,7.438643,0.003806257,0.006738372,1.370533,0.0166525,0.01027514,1.37064,0.02708613,0.4825386,1.70752,0.01575216,0.05437063,1.355546,0.05813967,0.02267765,1.342703,0.02290874,0.002822636,1.729324,0.02139792,-0.3249172,1.721004,-0.139045,0.2000651,1.691318,-0.05671354,-0.3160248,1.675751,-0.1951894,-0.0002671258,1.592542,0.2388791,-0.02066934,1.704272,NA,NA,NotTracked,NotTracked,
0.04101563,-0.9189453,0.4594727,0.375,0.5668945,0.753418,0,-2,-1,-22,-2,-1,0,2,7,-14,0,-1,0,1,-6,1,-1.3125,-1.3125,-1.3125,-2.25,-2.25,-2.25,3.226659,4.920649,3.844608,6.005993,4.419381,7.446108,0.0006673454,0.005430482,1.369658,0.01713237,0.008065715,1.369611,0.02729205,0.4823343,1.707412,0.006603625,0.05069946,1.350795,0.07020882,0.008398306,1.342453,0.02304848,0.002772259,1.729398,0.02144966,-0.324941,1.720995,-0.1408784,0.1991256,1.69265,-0.05666687,-0.3161241,1.675615,-0.1951926,-0.0009469236,1.592096,0.2346541,-0.02629446,1.697561,NA,NA,NotTracked,NotTracked,
0.04589844,-0.9038086,0.4584961,0.3339844,0.5698242,0.7504883,-3,-4,-3,-1,-3,-3,0,-6,-6,-1,-6,-6,-5,-8,-6,3,-1.4375,-1.4375,-1.4375,-5,-5,-5,3.226736,4.919385,3.849827,6.00374,4.407528,7.447637,0.000598887,0.00506559,1.368816,0.01204004,0.007531268,1.369946,0.02736804,0.4822819,1.707216,0.006604296,0.05069669,1.350692,0.04047739,0.04559107,1.346947,0.02319855,0.002814907,1.729367,0.02150039,-0.3249354,1.720913,-0.1393813,0.199805,1.691418,-0.05660899,-0.3161386,1.675279,-0.1952565,-0.0004361486,1.592253,0.2327599,-0.02904941,1.694708,NA,NA,NotTracked,NotTracked,
0.05957031,-0.8837891,0.4492188,0.1943359,0.4638672,0.605957,1,0,0,8,0,2,2,0,2,0,2,-1,-1,-6,0,-5,0.1875,0.1875,0.1875,0.125,0.125,0.125,3.230136,4.916099,3.853303,6.001719,4.355057,7.43731,-0.001056913,0.004021975,1.368162,0.01669148,0.008049913,1.368543,0.02732829,0.4822286,1.706979,0.007316436,0.05062389,1.350503,0.07241122,0.006336132,1.346476,0.02324404,0.002841319,1.729232,0.02158836,-0.324966,1.720719,-0.1410161,0.1991055,1.692425,-0.05656957,-0.3162708,1.674809,-0.1951373,-0.0009360205,1.591674,0.2323925,-0.02834559,1.695389,NA,NA,NotTracked,NotTracked,
0.1079102,-0.8217773,0.4082031,0.2822266,0.4350586,0.5043945,-1,-1,-2,-4,0,-1,-3,-1,-10,-5,1,2,-2,4,4,-3,2.1875,2.1875,2.1875,21.875,21.875,21.875,3.232483,4.901013,3.85494,6.042305,4.207467,7.409558,0.0002735454,-0.004690296,1.367396,0.01217567,0.00286356,1.365014,0.02719389,0.4820717,1.706446,0.007510304,0.04223881,1.346252,0.05938756,-0.0120958,1.340353,0.02264952,0.002498303,1.727696,0.02196587,-0.3248015,1.720387,-0.1412224,0.1989815,1.691944,-0.05618346,-0.316207,1.674343,-0.1951311,-0.001261589,1.591521,0.2255656,-0.0356882,1.687628,NA,NA,NotTracked,NotTracked,
