ALX,ALY,ALZ,ARX,ARY,ARZ,EMG0L,EMG1L,EMG2L,EMG3L,EMG4L,EMG5L,EMG6L,EMG7L,EMG0R,EMG1R,EMG2R,EMG3R,EMG4R,EMG5R,EMG6R,EMG7R,GLX,GLY,GLZ,GRX,GRY,GRZ,ORL,OPL,OYL,ORR,OPR,OYR,LHNX,LHNY,LHNZ,RHNX,RHNY,RHNZ,HX,HY,HZ,LTX,LTY,LTZ,RTX,RTY,RTZ,SpineMidX,SpineMidY,SpineMidZ,SpineBaseX,SpineBaseY,SpineBaseZ,ShoulderLeftX,ShoulderLeftY,ShoulderLeftZ,ShoulderRightX,ShoulderRightY,ShoulderRightZ,ElbowLeftX,ElbowLeftY,ElbowLeftZ,ElbowRightX,ElbowRightY,ElbowRightZ,Myo_Pose_left,Myo_Pose_Right,Kinect_pose_left,Kinect_pose_right
0.9506836,-0.2495117,0.1665039,0.9414063,0.2290039,0.159668,-4,0,-1,0,0,-1,-3,0,0,-1,0,3,-1,0,-1,0,0.125,0.125,0.125,-1.5625,-1.5625,-1.5625,3.425718,2.99337,6.63185,6.46675,2.958047,4.986621,-0.09924818,-0.4076374,1.603114,0.2154692,-0.4001877,1.598556,0.06674608,0.4464962,1.673295,-0.05854392,-0.4077931,1.585682,0.1734104,-0.4086044,1.574676,0.06254075,-0.02565141,1.713157,0.06184648,-0.3498628,1.704029,-0.1177748,0.1665646,1.701362,-0.02554405,-0.3423737,1.663486,-0.1585655,-0.07352979,1.68932,0.2666055,-0.08304634,1.710779,NA,NA,NotTracked,NotTracked,
0.9541016,-0.2504883,0.1630859,0.9375,0.2241211,0.159668,-3,-2,-1,-1,-1,-2,-1,0,-3,-1,-2,-6,-2,-1,0,-1,-0.6875,-0.6875,-0.6875,-1.4375,-1.4375,-1.4375,3.425942,2.99332,6.631485,6.467428,2.957953,4.984835,-0.09885377,-0.4080151,1.602873,0.2154458,-0.402984,1.598059,0.06671964,0.4465103,1.673239,-0.05657996,-0.4093431,1.585757,0.1723167,-0.4058841,1.576353,0.06254681,-0.02569191,1.713089,0.06183494,-0.3499185,1.70399,-0.1159551,0.1665761,1.70094,-0.02557261,-0.3424218,1.663418,-0.1585073,-0.07351045,1.689286,0.2665657,-0.08314666,1.710736,NA,NA,NotTracked,NotTracked,
0.9506836,-0.2504883,0.1679688,0.9428711,0.2246094,0.1650391,1,-1,-1,-1,-1,-1,0,0,1,-2,1,-2,-1,-1,-1,-1,0.1875,0.1875,0.1875,0.1875,0.1875,0.1875,3.425942,2.99332,6.631485,6.467462,2.957812,4.984096,-0.09925091,-0.4075998,1.60369,0.2153387,-0.4030169,1.598876,0.06674033,0.4465048,1.67322,-0.05801084,-0.4089434,1.584925,0.1722332,-0.4025275,1.579237,0.06255307,-0.02570513,1.713089,0.06184695,-0.3499463,1.703975,-0.1146512,0.1664166,1.700835,-0.02555085,-0.3424498,1.663386,-0.158402,-0.07379924,1.689284,0.2665347,-0.08314855,1.710808,NA,NA,NotTracked,NotTracked,
0.9487305,-0.2524414,0.1655273,0.940918,0.2250977,0.1601563,-1,-1,-1,-2,-2,-1,-2,0,0,-1,0,4,0,-2,-1,-2,-0.0625,-0.0625,-0.0625,-1.5,-1.5,-1.5,3.425942,2.99332,6.631485,6.468624,2.957976,4.982011,-0.09926162,-0.4079469,1.60288,0.2154178,-0.4027199,1.598118,0.06672566,0.4464818,1.673213,-0.06012811,-0.4065272,1.583439,0.1720861,-0.3802437,1.581808,0.06257266,-0.02569099,1.713071,0.06186374,-0.3498652,1.703933,-0.1156677,0.166524,1.700804,-0.0255285,-0.3423913,1.663348,-0.1584058,-0.07377581,1.689234,0.2665294,-0.08316559,1.710795,NA,NA,NotTracked,NotTracked,
0.9536133,-0.2543945,0.168457,0.9448242,0.2236328,0.1606445,-3,-1,0,-2,0,1,-2,-1,-1,-1,-1,-5,-2,-2,-1,-2,0.375,0.375,0.375,-1.4375,-1.4375,-1.4375,3.426292,2.993253,6.631274,6.469288,2.957809,4.979733,-0.09947833,-0.4078036,1.603298,0.2153683,-0.4027715,1.598014,0.06672169,0.4464852,1.673186,-0.0583993,-0.4058406,1.585575,0.17349,-0.3818009,1.581488,0.06257138,-0.02568731,1.713012,0.06185851,-0.3498628,1.703897,-0.1165737,0.16646,1.700695,-0.02551871,-0.3423962,1.663253,-0.1583794,-0.07378559,1.689187,0.2665222,-0.08311352,1.710784,NA,NA,NotTracked,NotTracked,
0.9492188,-0.2578125,0.1699219,0.9370117,0.2216797,0.1616211,-1,-1,0,-1,-1,-1,-1,-1,-1,-2,0,-10,-2,-2,-2,-1,0.125,0.125,0.125,0.25,0.25,0.25,3.425942,2.99332,6.631485,6.468309,2.957073,4.978975,-0.09909189,-0.4072537,1.602976,0.2151221,-0.4024346,1.597827,0.06673724,0.4465146,1.673157,-0.05834384,-0.4033636,1.587626,0.1746331,-0.3681481,1.583878,0.06258611,-0.02567922,1.712985,0.06189866,-0.3498526,1.703884,-0.1157822,0.1663693,1.700648,-0.02547053,-0.3423911,1.663225,-0.1584103,-0.07375475,1.68914,0.2665019,-0.0831098,1.710775,NA,NA,NotTracked,NotTracked,
0.9521484,-0.2553711,0.1630859,0.9453125,0.2202148,0.1640625,-3,-3,0,0,0,-1,0,-1,-2,1,-2,-2,-3,-1,-1,-2,-0.1875,-0.1875,-0.1875,-0.6875,-0.6875,-0.6875,3.426292,2.993253,6.631274,6.469327,2.95677,4.978175,-0.09920277,-0.4081771,1.603453,0.2155845,-0.4026657,1.598578,0.06670262,0.4465817,1.673083,-0.05861281,-0.404007,1.587037,0.1727345,-0.4103221,1.574939,0.06260301,-0.02567395,1.712933,0.06192679,-0.349844,1.703829,-0.1149135,0.1661367,1.700546,-0.02545219,-0.3423783,1.663192,-0.1583937,-0.07375896,1.689106,0.2665229,-0.08306473,1.710774,NA,NA,NotTracked,NotTracked,
0.9501953,-0.2553711,0.1645508,1.109863,0.2895508,0.1362305,1,-1,0,-1,-1,0,1,0,-3,-7,-8,-5,-5,-2,-1,-6,0.25,0.25,0.25,-2.8125,-2.8125,-2.8125,3.426516,2.993202,6.630909,6.475296,2.960251,4.970847,-0.09953674,-0.408244,1.603364,0.215299,-0.4027882,1.59867,0.06669761,0.4465823,1.673085,-0.06024221,-0.4080699,1.582639,0.1717722,-0.4063361,1.575314,0.06259813,-0.02570303,1.712919,0.06190559,-0.3499205,1.703808,-0.1161447,0.1660597,1.700576,-0.02546862,-0.3424438,1.663198,-0.1583783,-0.0738916,1.689091,0.2665109,-0.08307547,1.710784,NA,NA,NotTracked,NotTracked,
0.9521484,-0.2661133,0.1699219,1.229004,0.2973633,0.152832,1,-1,0,-1,-1,-1,1,0,-4,-15,-93,-16,-1,0,4,5,1.125,1.125,1.125,57.125,57.125,57.125,3.426803,2.994012,6.63132,6.477741,3.050089,5.019721,-0.0992476,-0.4080076,1.603292,0.2139377,-0.4016195,1.595027,0.06663731,0.4465245,1.673107,-0.05830744,-0.4077057,1.585632,0.1727781,-0.3911818,1.577434,0.06256813,-0.02573632,1.712897,0.06176708,-0.3499384,1.703761,-0.1168352,0.1660355,1.700621,-0.0256318,-0.342439,1.663113,-0.158402,-0.07385898,1.689083,0.2666461,-0.08311244,1.711183,NA,NA,NotTracked,NotTracked,
0.9384766,-0.2587891,0.1552734,1.086914,1.004395,0.46875,1,-1,-2,-3,-2,-1,0,-1,-4,-1,75,28,-3,-1,-2,0,9.1875,9.1875,9.1875,79.5,79.5,79.5,3.429977,2.998057,6.638312,6.597378,3.498497,5.081967,-0.09928786,-0.4076064,1.602066,0.2067311,-0.3750171,1.565623,0.06614286,0.4464639,1.673333,-0.05824362,-0.407256,1.585393,0.1663637,-0.3732018,1.552542,0.06242675,-0.02574404,1.712824,0.06126948,-0.349939,1.703478,-0.1156279,0.1659571,1.700798,-0.02623828,-0.3422994,1.662757,-0.1584505,-0.07382239,1.689045,0.2700652,-0.07925455,1.718855,NA,NA,NotTracked,NotTracked,
0.9335938,-0.246582,0.1728516,0.7509766,1.128418,0.5327148,0,0,-1,0,-1,-1,-2,-1,-2,-4,-8,0,-4,-5,-4,-2,7.9375,7.9375,7.9375,31.25,31.25,31.25,3.446999,3.005673,6.641502,6.683993,4.025228,5.076997,-0.09940192,-0.4081858,1.601689,0.1951805,-0.2798331,1.528602,0.0651137,0.4465239,1.673795,-0.05801324,-0.4062613,1.585577,0.1910013,-0.3675331,1.561333,0.06161756,-0.02568207,1.712769,0.05971407,-0.3498969,1.702883,-0.1159089,0.1659033,1.701224,-0.0278509,-0.3419955,1.662037,-0.1585673,-0.07399758,1.689145,0.2781693,-0.06171836,1.738643,NA,NA,NotTracked,Unknown,
0.9545898,-0.2646484,0.1953125,0.2475586,1.037109,0.4863281,0,-2,-2,0,-2,0,-1,0,11,31,13,2,5,3,8,3,-5.4375,-5.4375,-5.4375,65.875,65.875,65.875,3.448644,3.00784,6.638339,6.762998,4.654683,5.077761,-0.09864163,-0.4087757,1.600505,0.1987777,-0.1455003,1.442868,0.06339657,0.4463283,1.674834,-0.05741027,-0.4008589,1.586978,0.1837794,-0.1858266,1.460375,0.06115362,-0.02561049,1.712892,0.05942997,-0.349629,1.702544,-0.117474,0.1656209,1.701568,-0.02789516,-0.3417745,1.661458,-0.1590191,-0.07393906,1.689105,0.2889244,-0.04455391,1.749266,NA,NA,NotTracked,Closed,
0.9536133,-0.2578125,0.1845703,-0.2089844,0.9013672,0.4208984,-1,-1,-1,1,-2,-3,-2,-1,-3,-3,-9,-2,1,3,1,2,-10.5,-10.5,-10.5,35.5,35.5,35.5,3.440172,3.023222,6.613026,6.833824,5.295157,5.101212,-0.09875426,-0.4085976,1.598868,0.1915264,0.01905663,1.4237,0.06198521,0.4462426,1.675983,-0.05707264,-0.398378,1.586761,0.1476497,0.03854038,1.424545,0.06119476,-0.02553044,1.713895,0.06098141,-0.3491218,1.70343,-0.1164865,0.1654618,1.701816,-0.02642416,-0.3417722,1.662159,-0.1592343,-0.07392735,1.689083,0.331625,-0.02969631,1.671153,NA,NA,NotTracked,Unknown,
0.9472656,-0.2495117,0.1699219,-0.4467773,0.6108398,0.3803711,0,-1,0,-1,-1,-1,0,-2,-3,-3,-3,-8,-6,1,9,3,-13.625,-13.625,-13.625,53,53,53,3.443715,3.02679,6.587347,6.946908,6.016158,5.18486,-0.09862335,-0.4077171,1.595756,0.2015609,0.1656332,1.441603,0.06042813,0.4456669,1.677515,-0.0587063,-0.4015441,1.579763,0.1846614,0.1531575,1.394389,0.06119505,-0.02591036,1.714841,0.06288505,-0.3497563,1.704186,-0.1153326,0.1653395,1.701742,-0.02480565,-0.3429007,1.662907,-0.1594645,-0.07381784,1.688813,0.320643,-0.02200168,1.64815,NA,NA,NotTracked,Unknown,
0.9619141,-0.2460938,0.1635742,-0.5507813,0.6259766,0.3100586,-3,-1,-1,-1,0,-1,-1,-3,-6,-6,-1,-1,0,4,10,5,-4.5,-4.5,-4.5,43.5,43.5,43.5,3.438969,3.022407,6.579553,7.118822,6.411923,5.314962,-0.09853984,-0.4064167,1.596053,0.2125936,0.2604304,1.491846,0.05904404,0.4457531,1.67841,-0.0563837,-0.3967594,1.58281,0.2194221,0.26899,1.443487,0.06090858,-0.02472212,1.715951,0.06381957,-0.3466057,1.704015,-0.1151592,0.1656034,1.702068,-0.02457181,-0.3386455,1.660908,-0.1610098,-0.06639843,1.688393,0.3446478,0.01901458,1.59981,NA,NA,NotTracked,Unknown,
0.9379883,-0.2524414,0.1655273,-0.6264648,0.4086914,0.08105469,-1,-1,-1,1,-1,2,-1,-1,-1,-51,-16,-10,-16,5,4,-4,1.5625,1.5625,1.5625,35,35,35,3.43096,3.020732,6.587003,7.449881,6.71949,5.630206,-0.0992884,-0.4050516,1.597517,0.2059764,0.3335023,1.519572,0.05806387,0.4458521,1.679514,-0.05505976,-0.3891608,1.587195,0.2179756,0.3270314,1.469822,0.06201519,-0.02381429,1.716045,0.06505293,-0.3448395,1.704008,-0.115781,0.1656038,1.702162,-0.02378592,-0.3365667,1.659706,-0.162246,-0.06141658,1.688755,0.3628104,0.0696256,1.569228,NA,NA,NotTracked,Lasso,
0.9467773,-0.2495117,0.1811523,-0.6435547,0.3388672,0.02148438,0,-1,-2,-1,-1,-1,0,0,-3,22,-1,-5,-2,1,-3,-10,6.3125,6.3125,6.3125,29.375,29.375,29.375,3.428149,3.021681,6.600535,7.725444,6.813336,5.882252,-0.1001224,-0.4049883,1.597838,0.2046049,0.3710115,1.538098,0.05750708,0.445312,1.681147,-0.05606314,-0.3945112,1.586005,0.2050251,0.3809949,1.485429,0.06273714,-0.02336402,1.71607,0.06575876,-0.3441729,1.703921,-0.1158169,0.1656052,1.702421,-0.02339306,-0.3361787,1.659432,-0.1625606,-0.06142855,1.689063,0.3621544,0.1429698,1.538595,NA,NA,NotTracked,Unknown,
0.9433594,-0.2641602,0.1845703,-0.6767578,0.2807617,-0.04052734,-3,0,-1,-2,0,0,-1,-2,-4,1,-2,-4,-4,-1,4,1,12.1875,12.1875,12.1875,29.75,29.75,29.75,3.431373,3.024811,6.613054,7.940178,6.850802,6.064967,-0.1006536,-0.4046676,1.598472,0.2039902,0.3935247,1.547805,0.05734473,0.4445799,1.682515,-0.05643304,-0.3926964,1.585966,0.2115609,0.3991857,1.4906,0.06295395,-0.02304744,1.716078,0.0658781,-0.3435552,1.70372,-0.1158352,0.1664222,1.703569,-0.02346862,-0.335945,1.659532,-0.1630268,-0.06206037,1.689795,0.365069,0.1610806,1.538062,NA,NA,NotTracked,Unknown,
0.9482422,-0.2832031,0.1831055,-0.7919922,0.3330078,-0.1176758,-3,-1,-1,-1,-2,-2,-3,-1,-5,-32,-21,-11,-9,-13,5,-11,8.75,8.75,8.75,11.6875,11.6875,11.6875,3.434686,3.028759,6.628697,8.118728,6.858527,6.197646,-0.1017172,-0.4039575,1.600141,0.2055939,0.4047493,1.552929,0.05757335,0.4444251,1.68383,-0.05680189,-0.3916837,1.586719,0.2131784,0.4147193,1.499353,0.06307817,-0.02248216,1.715919,0.06533774,-0.3421435,1.703142,-0.1158527,0.167792,1.705273,-0.0241287,-0.3349479,1.659916,-0.1635886,-0.06305786,1.690992,0.3696184,0.177253,1.535,NA,NA,NotTracked,Unknown,
0.9311523,-0.2895508,0.1948242,-0.8120117,0.2529297,-0.1157227,-5,-2,0,-3,-2,-1,-1,0,-8,-10,-4,-6,-9,-10,-13,-29,2.4375,2.4375,2.4375,8.9375,8.9375,8.9375,3.432001,3.037194,6.650095,8.156736,6.853314,6.230329,-0.1019731,-0.4049655,1.600127,0.2055869,0.4111214,1.552113,0.05790356,0.4443759,1.685102,-0.05751964,-0.3910195,1.587159,0.2150978,0.4095874,1.48575,0.06309457,-0.0222614,1.715861,0.0647897,-0.3416846,1.70275,-0.1138314,0.168187,1.705887,-0.02484606,-0.3345522,1.660393,-0.1638547,-0.06355991,1.691797,0.3720929,0.1853882,1.534461,NA,NA,NotTracked,Unknown,
0.9365234,-0.2763672,0.1884766,-0.8706055,0.3754883,-0.1645508,4,-2,0,0,-1,0,-1,-1,10,-2,-6,-5,5,13,2,14,0.1875,0.1875,0.1875,-12.875,-12.875,-12.875,3.430373,3.039335,6.652006,8.156,6.848729,6.229958,-0.1027439,-0.4039527,1.600167,0.2035565,0.4145601,1.55425,0.05798931,0.4444228,1.686609,-0.05735319,-0.3910639,1.587025,0.199579,0.4214212,1.499075,0.06304849,-0.02202951,1.715792,0.06413536,-0.3411227,1.702246,-0.1143672,0.169301,1.707398,-0.02550427,-0.3341426,1.660762,-0.164045,-0.06383787,1.692587,0.3745024,0.1888669,1.53521,NA,NA,NotTracked,Unknown,
0.9438477,-0.2802734,0.1772461,-0.8974609,0.3857422,-0.1586914,-1,-3,0,3,-2,-1,-2,-1,1,-22,-13,-3,-7,-12,-7,-11,-2.125,-2.125,-2.125,2.0625,2.0625,2.0625,3.428726,3.039463,6.652537,8.139811,6.857602,6.218777,-0.1026836,-0.4043522,1.600309,0.2040136,0.4142269,1.553384,0.05808349,0.4442374,1.687643,-0.05737637,-0.3905119,1.587332,0.2139087,0.4216759,1.4908,0.06301895,-0.02186747,1.715723,0.06359767,-0.3408042,1.701827,-0.1148534,0.169684,1.708294,-0.02605583,-0.3339455,1.660981,-0.164024,-0.06434353,1.693225,0.3753475,0.190794,1.536028,NA,NA,NotTracked,Lasso,
0.9404297,-0.2783203,0.1791992,-0.9418945,0.362793,-0.171875,3,-1,-2,-1,-2,-1,0,-1,-14,17,4,-1,-7,-9,-1,4,-1.625,-1.625,-1.625,1.625,1.625,1.625,3.425775,3.039867,6.65382,8.121891,6.861309,6.204072,-0.1021437,-0.4045113,1.599564,0.2044849,0.412972,1.552745,0.05814767,0.4441032,1.688196,-0.05797444,-0.3898038,1.588046,0.2110745,0.4220704,1.488246,0.06301195,-0.02177648,1.715655,0.06330162,-0.3407553,1.701486,-0.1149087,0.1699012,1.708727,-0.02634926,-0.3339037,1.660982,-0.1639415,-0.06505917,1.69374,0.3747242,0.1913689,1.53714,NA,NA,NotTracked,Unknown,
0.9389648,-0.2797852,0.1757813,-0.902832,0.4033203,-0.1435547,1,-1,-2,-1,-1,-2,-1,1,7,1,5,-1,-5,-1,1,2,-4.125,-4.125,-4.125,-0.3125,-0.3125,-0.3125,3.420524,3.038638,6.6521,8.120648,6.864933,6.198268,-0.1023636,-0.4040249,1.600895,0.2054678,0.4137632,1.553212,0.05855345,0.4442058,1.688751,-0.05759094,-0.3919262,1.587098,0.2202616,0.4133011,1.484364,0.06311457,-0.02157574,1.715665,0.06335751,-0.3405573,1.701443,-0.1149661,0.1702232,1.709035,-0.02630391,-0.3337006,1.661227,-0.163955,-0.06539458,1.693987,0.3762068,0.1911259,1.535276,NA,NA,NotTracked,Unknown,
0.9375,-0.2832031,0.1806641,-0.690918,0.2880859,-0.08886719,3,-2,-1,-2,0,0,-1,-2,-5,6,1,-2,-3,-1,1,6,-5.6875,-5.6875,-5.6875,11.5625,11.5625,11.5625,3.416916,3.034897,6.646494,8.152987,6.875604,6.224603,-0.1025296,-0.4040744,1.602113,0.2075004,0.4139449,1.55714,0.05896769,0.4442981,1.689415,-0.05907328,-0.3945655,1.587262,0.2073323,0.4161931,1.497617,0.06332181,-0.02132005,1.715742,0.06350561,-0.3403218,1.701538,-0.1129058,0.1700151,1.708242,-0.02614069,-0.3335133,1.661491,-0.1639118,-0.06564888,1.69433,0.3769092,0.1907172,1.534737,NA,NA,NotTracked,Lasso,
0.9443359,-0.2729492,0.1918945,-0.6499023,0.2368164,-0.1137695,-1,-4,-1,-2,-2,0,-2,-6,-12,5,3,2,-4,5,1,-6,-6.1875,-6.1875,-6.1875,7.9375,7.9375,7.9375,3.417646,3.029288,6.635712,8.177925,6.870548,6.230393,-0.102326,-0.4044268,1.602451,0.2081038,0.4106972,1.561798,0.05962316,0.444698,1.690023,-0.06007942,-0.4001645,1.584552,0.2094524,0.4171436,1.498861,0.06352054,-0.02109696,1.715955,0.06362229,-0.3401048,1.702071,-0.1129478,0.1703993,1.708352,-0.02607474,-0.333336,1.661959,-0.1635948,-0.06611387,1.694388,0.3773745,0.1891101,1.53577,NA,NA,NotTracked,Lasso,
0.9501953,-0.2695313,0.1762695,-0.7124023,0.3120117,-0.1210938,1,1,0,-2,-4,-8,-3,-11,8,-10,-1,-1,1,1,1,4,-5.5625,-5.5625,-5.5625,-14.125,-14.125,-14.125,3.413483,3.019318,6.627591,8.085615,6.824797,6.144248,-0.1020411,-0.4047035,1.60438,0.2058462,0.3943196,1.564521,0.05992847,0.4451954,1.690651,-0.05936898,-0.3939814,1.587439,0.2006023,0.4116345,1.492432,0.06369063,-0.0209921,1.716166,0.06386508,-0.3402167,1.702845,-0.1127535,0.1704089,1.708094,-0.02597119,-0.3333569,1.662299,-0.1635271,-0.06606985,1.694449,0.3777798,0.1788856,1.538733,NA,NA,NotTracked,Lasso,
1.022461,-0.2495117,0.137207,-0.7587891,0.362793,0.05810547,1,-2,-1,5,-3,-12,0,3,7,-10,-9,-3,-1,0,-2,-4,33.5,33.5,33.5,-32.0625,-32.0625,-32.0625,3.470967,3.020715,6.608685,7.85217,6.740497,5.931269,-0.100052,-0.4029116,1.601032,0.2043109,0.3612927,1.556896,0.05970188,0.4457412,1.691184,-0.05947421,-0.4028781,1.580266,0.2021409,0.3851837,1.477417,0.06410097,-0.02082795,1.716371,0.06506424,-0.3401373,1.703577,-0.1124378,0.1698583,1.707304,-0.02501776,-0.3331577,1.662026,-0.1635502,-0.06502377,1.694732,0.382356,0.1043071,1.56123,NA,NA,NotTracked,Unknown,
1.063477,-0.3300781,0.1821289,-0.793457,0.5317383,0.0625,-3,-3,-2,2,13,18,-1,-1,6,-6,-2,0,1,0,-1,-1,15.8125,15.8125,15.8125,-75.8125,-75.8125,-75.8125,3.571444,3.093279,6.541964,7.475642,6.485134,5.666053,-0.09220851,-0.3915055,1.586402,0.2030021,0.3214923,1.53863,0.05919255,0.4469372,1.691995,-0.05266407,-0.3947333,1.558343,0.2201381,0.3330376,1.464292,0.06490431,-0.01936325,1.717972,0.06752873,-0.337873,1.7043,-0.1127545,0.1689501,1.706669,-0.02284685,-0.3312388,1.661162,-0.1637053,-0.06170008,1.697084,0.3725337,0.065717,1.581338,NA,NA,NotTracked,Closed,
1.055664,-0.3945313,0.3447266,-0.7226563,0.7890625,0.1904297,1,-1,0,-6,-13,-12,26,2,6,-4,-8,-2,-3,1,0,4,26.75,26.75,26.75,-109.9375,-109.9375,-109.9375,3.65527,3.282128,6.499882,7.211487,6.198286,5.531952,-0.08678387,-0.3428801,1.567289,0.2050529,0.2641031,1.511821,0.05872803,0.4476329,1.69224,-0.06799757,-0.3761648,1.583375,0.2191707,0.283777,1.430077,0.06593163,-0.01735978,1.718837,0.06972063,-0.3353315,1.704512,-0.1128174,0.1689007,1.706586,-0.02093035,-0.3294004,1.660737,-0.163031,-0.05842735,1.703608,0.3441463,0.02481614,1.614956,NA,NA,NotTracked,Closed,
0.9692383,-0.5527344,0.4804688,-0.6757813,0.8798828,0.3569336,-5,-3,-4,-7,-8,0,11,-5,29,35,9,30,7,2,1,0,-12.25,-12.25,-12.25,-94.6875,-94.6875,-94.6875,3.66034,3.543158,6.487284,6.983734,5.899096,5.441189,-0.06152245,-0.3000002,1.545445,0.2004027,0.203824,1.487506,0.05824839,0.4485309,1.692731,-0.03782973,-0.3637511,1.586243,0.2225346,0.188095,1.427594,0.06595803,-0.01779682,1.719056,0.0701929,-0.3384809,1.704694,-0.1134044,0.1697346,1.707422,-0.02018657,-0.3351053,1.664253,-0.1632642,-0.05866288,1.715406,0.3311955,-0.003327373,1.6285,NA,NA,Unknown,Closed,
0.7495117,-0.6171875,0.5341797,-0.4980469,0.7529297,0.3637695,1,1,3,-5,-11,-3,-2,4,-1,-10,-4,-2,-3,-3,-4,-2,-8.9375,-8.9375,-8.9375,-77.875,-77.875,-77.875,3.638351,3.83659,6.49589,6.720391,5.503531,5.367019,-0.06244497,-0.2313426,1.527155,0.1971131,0.1342209,1.476972,0.05835096,0.4492204,1.693104,-0.03257295,-0.2873011,1.565298,0.2179351,0.1329181,1.407364,0.06596697,-0.01950936,1.71926,0.07072516,-0.3436438,1.705172,-0.1141962,0.1705728,1.708956,-0.01861542,-0.3402729,1.666675,-0.1671188,-0.05497718,1.726349,0.3061367,-0.03150293,1.647422,NA,NA,Unknown,Closed,
0.2822266,-0.5786133,0.5302734,-0.1396484,1.144043,0.456543,0,2,12,23,-4,-3,5,-2,-38,-7,-9,-30,-5,-2,4,-6,-5.25,-5.25,-5.25,-25.0625,-25.0625,-25.0625,3.617418,4.307703,6.525545,6.666353,5.187554,5.308576,-0.06426951,-0.1673864,1.500262,0.1997212,0.05648208,1.473338,0.05922727,0.4498673,1.693685,-0.03269076,-0.1452516,1.446583,0.2223611,0.04425187,1.415139,0.06617059,-0.01971189,1.719464,0.07056144,-0.3437623,1.706233,-0.1138256,0.1720503,1.710314,-0.018255,-0.3400635,1.667758,-0.1704675,-0.04277389,1.734107,0.2875385,-0.03929901,1.677886,NA,NA,Unknown,Unknown,
0.1103516,-0.4682617,0.4233398,-0.3120117,0.5864258,0.1987305,-5,-2,-8,-11,7,27,43,-3,-15,-7,-7,-54,-11,-4,-2,2,-2.5625,-2.5625,-2.5625,-86.375,-86.375,-86.375,3.604625,4.485269,6.55673,6.518501,4.868416,5.285019,-0.0929396,-0.1223888,1.433596,0.199284,-0.0091041,1.446983,0.06091067,0.4505818,1.693798,-0.03800561,-0.1015617,1.4234,0.2254646,-0.01708976,1.394,0.06619709,-0.01973554,1.719548,0.06993449,-0.343769,1.707196,-0.111338,0.1732277,1.710268,-0.018265,-0.3395959,1.668062,-0.1712092,-0.03792407,1.734011,0.2889346,-0.04552671,1.681273,NA,NA,Unknown,Unknown,
-0.1572266,-0.4326172,0.2880859,-0.1469727,0.9477539,0.1083984,3,-6,-25,-24,8,8,31,11,34,-15,-17,-88,-26,-4,2,6,-1.75,-1.75,-1.75,-13.75,-13.75,-13.75,3.588645,4.524487,6.599825,6.599766,4.327331,5.211368,-0.07834138,-0.1389506,1.46399,0.2038264,-0.1269358,1.44568,0.06307146,0.4511773,1.694465,-0.04630684,-0.1199956,1.4166,0.2353549,-0.1383895,1.409722,0.06619599,-0.01977431,1.71991,0.06929143,-0.3437098,1.708072,-0.1106636,0.174307,1.71085,-0.01850343,-0.3391782,1.668186,-0.1943246,-0.0512173,1.709649,0.3228264,-0.03264948,1.72079,NA,NA,Unknown,Open,
0.07373047,-0.7539063,0.3037109,2.217773,0.2631836,0.9882813,-14,1,24,21,6,-11,-103,-28,-28,-25,-32,-35,-24,-21,-3,-5,-20.3125,-20.3125,-20.3125,-121.5,-121.5,-121.5,3.532453,4.347702,6.671571,6.470933,3.96042,5.17482,-0.1157866,-0.2030135,1.433186,0.2179192,-0.235768,1.433153,0.06594033,0.4511928,1.696268,-0.0675985,-0.1899412,1.405889,0.2464892,-0.2485334,1.3782,0.06592672,-0.02028078,1.720283,0.06784751,-0.3446206,1.707878,-0.1106651,0.1742328,1.711091,-0.01946601,-0.3392615,1.66738,-0.1780325,-0.04255266,1.715811,0.2968394,-0.0461253,1.726626,NA,NA,Unknown,Unknown,
1.003418,-0.8935547,0.8007813,0.7993164,1.003418,0.5473633,-10,4,-14,10,16,8,30,7,-4,-44,-20,-58,-16,-12,-6,-6,-16,-16,-16,19.3125,19.3125,19.3125,3.514691,4.055275,6.683653,6.487523,3.850267,5.191766,-0.1190201,-0.2218862,1.441286,0.2195108,-0.2622207,1.45274,0.06894706,0.4507777,1.698421,-0.06501579,-0.2163416,1.399177,0.2482871,-0.2840859,1.392286,0.06583806,-0.02138512,1.720967,0.06673905,-0.3466374,1.707708,-0.1082959,0.1722572,1.709463,-0.02016742,-0.3402148,1.666427,-0.1759578,-0.04296765,1.715492,0.2858352,-0.05450146,1.725146,NA,NA,Unknown,Lasso,
0.3242188,-0.6484375,0.3398438,0.4648438,0.6005859,0.4272461,3,-4,14,8,8,0,5,-1,-10,-5,4,-14,-4,-5,-3,9,30.6875,30.6875,30.6875,-22.3125,-22.3125,-22.3125,3.519095,4.056013,6.702816,6.436422,3.911962,5.150177,-0.1227223,-0.2175452,1.441627,0.2188011,-0.2543181,1.45781,0.07127065,0.4514112,1.699051,-0.06600552,-0.2091277,1.402919,0.2478757,-0.2722535,1.406889,0.06575128,-0.02159914,1.721098,0.0660091,-0.3471432,1.707582,-0.1065895,0.1716148,1.708066,-0.02081314,-0.3402546,1.665948,-0.1736486,-0.04327679,1.715175,0.2844763,-0.05392465,1.726662,NA,NA,Unknown,Unknown,
0.5136719,-0.6972656,0.4868164,0.6450195,0.6503906,0.5048828,-5,-8,-16,-36,-15,-15,37,16,-21,-7,-6,-3,3,2,2,0,-4.875,-4.875,-4.875,-5.3125,-5.3125,-5.3125,3.506897,4.061394,6.741449,6.434888,3.928891,5.133705,-0.1273893,-0.2221779,1.441401,0.2207056,-0.2529326,1.460804,0.07272755,0.4514569,1.698596,-0.07215241,-0.2153939,1.401557,0.2504399,-0.281702,1.408591,0.06568654,-0.02170128,1.721205,0.06567576,-0.3473085,1.707649,-0.1066317,0.1717667,1.70793,-0.02106478,-0.3401534,1.665819,-0.1730608,-0.0431072,1.715336,0.2826899,-0.05359581,1.729615,NA,NA,Unknown,Unknown,
0.6118164,-0.6850586,0.53125,0.6254883,0.6313477,0.46875,1,2,-10,-26,-7,-12,-13,-4,-20,-19,-5,-34,-2,-1,-2,-3,-23,-23,-23,9.6875,9.6875,9.6875,3.491078,4.030245,6.722434,6.442764,3.922677,5.141496,-0.1268769,-0.2242191,1.444617,0.2191371,-0.253931,1.463207,0.07356247,0.4513163,1.697988,-0.06932532,-0.2193237,1.409384,0.1623908,-0.2525924,1.438572,0.0656007,-0.02181908,1.721284,0.06542479,-0.3474078,1.707616,-0.1066873,0.1717978,1.707834,-0.02132104,-0.3399916,1.665534,-0.172696,-0.04331211,1.715509,0.2823117,-0.05373124,1.730801,NA,NA,Unknown,Unknown,
0.4921875,-0.6611328,0.4760742,0.6274414,0.6225586,0.4775391,-4,3,13,8,-8,-13,28,4,13,21,-10,10,-7,-6,-5,5,4.0625,4.0625,4.0625,-5.6875,-5.6875,-5.6875,3.492456,4.035182,6.706618,6.447237,3.926275,5.140574,-0.1257767,-0.2240033,1.446752,0.2180923,-0.2534264,1.465449,0.07393703,0.45114,1.69753,-0.06978209,-0.2173187,1.406655,0.1638904,-0.2514356,1.434939,0.06548528,-0.02197923,1.721318,0.06514031,-0.3475756,1.707661,-0.1069605,0.171707,1.707557,-0.02156037,-0.3399287,1.665299,-0.172623,-0.04307195,1.715744,0.2822745,-0.05450782,1.731604,NA,NA,Unknown,Unknown,
0.5883789,-0.6879883,0.4868164,0.6186523,0.6386719,0.4521484,-4,-12,-7,-9,8,0,-12,-24,0,3,-1,-23,0,0,-2,-4,3.5625,3.5625,3.5625,1.5625,1.5625,1.5625,3.494883,4.030725,6.712433,6.446216,3.924579,5.140775,-0.1232763,-0.2266683,1.450582,0.2180693,-0.2537772,1.461952,0.07408567,0.4509085,1.697201,-0.06783707,-0.2230615,1.411181,0.1633823,-0.2512593,1.436079,0.0652613,-0.02219195,1.72146,0.06472392,-0.3477022,1.707782,-0.107148,0.1717632,1.707567,-0.02189442,-0.3398063,1.665111,-0.1725425,-0.04333315,1.71591,0.2819495,-0.05423225,1.732146,NA,NA,Unknown,Unknown,
0.6010742,-0.6738281,0.496582,0.6142578,0.6416016,0.4501953,1,-6,-13,-1,-9,8,30,2,-27,16,3,-15,-7,-6,-2,-2,-0.8125,-0.8125,-0.8125,7.6875,7.6875,7.6875,3.501265,4.022186,6.707935,6.453463,3.923623,5.142303,-0.1207745,-0.2293548,1.459413,0.2175327,-0.2535954,1.46383,0.07399392,0.4508616,1.696963,-0.06808564,-0.2225057,1.406827,0.1634796,-0.2511745,1.435804,0.06507742,-0.02238393,1.721716,0.06433916,-0.3478712,1.708127,-0.1073259,0.1718149,1.707525,-0.02213589,-0.3397805,1.665217,-0.1726557,-0.04324415,1.716224,0.2818159,-0.05450894,1.732541,NA,NA,Unknown,Unknown,
0.5722656,-0.6733398,0.4926758,0.6269531,0.6391602,0.4692383,-1,-7,11,-3,-1,-9,14,8,-8,-26,-13,-17,1,-4,-3,1,4.375,4.375,4.375,-3.5625,-3.5625,-3.5625,3.511092,4.019191,6.700175,6.456379,3.922131,5.140389,-0.1247758,-0.2301456,1.455003,0.2161034,-0.2535537,1.465178,0.07389849,0.4508591,1.696838,-0.07207372,-0.2243934,1.413183,0.16219,-0.2519355,1.438184,0.06487672,-0.02246656,1.721851,0.06400876,-0.3479806,1.708159,-0.1076458,0.1717603,1.707583,-0.02244367,-0.3397002,1.665233,-0.1722665,-0.04400639,1.716632,0.2816507,-0.05378635,1.733221,NA,NA,Unknown,Unknown,
0.5668945,-0.6787109,0.4946289,0.640625,0.6176758,0.4633789,0,-4,2,2,-4,-1,13,0,30,8,3,-19,2,0,2,10,4.0625,4.0625,4.0625,-1.625,-1.625,-1.625,3.514618,4.018709,6.700196,6.455064,3.91726,5.137427,-0.117718,-0.2334327,1.462391,0.2175776,-0.2545374,1.464529,0.07376362,0.4508277,1.696769,-0.06682671,-0.2271217,1.415398,0.1602798,-0.2538722,1.441875,0.06480221,-0.02255686,1.721946,0.06380082,-0.3480066,1.70821,-0.1080338,0.1717597,1.707836,-0.02261559,-0.3396142,1.665231,-0.172172,-0.04444958,1.717506,0.2815397,-0.0538562,1.733392,NA,NA,Unknown,Unknown,
