ALX,ALY,ALZ,ARX,ARY,ARZ,EMG0L,EMG1L,EMG2L,EMG3L,EMG4L,EMG5L,EMG6L,EMG7L,EMG0R,EMG1R,EMG2R,EMG3R,EMG4R,EMG5R,EMG6R,EMG7R,GLX,GLY,GLZ,GRX,GRY,GRZ,ORL,OPL,OYL,ORR,OPR,OYR,LHNX,LHNY,LHNZ,RHNX,RHNY,RHNZ,HX,HY,HZ,LTX,LTY,LTZ,RTX,RTY,RTZ,SpineMidX,SpineMidY,SpineMidZ,SpineBaseX,SpineBaseY,SpineBaseZ,ShoulderLeftX,ShoulderLeftY,ShoulderLeftZ,ShoulderRightX,ShoulderRightY,ShoulderRightZ,ElbowLeftX,ElbowLeftY,ElbowLeftZ,ElbowRightX,ElbowRightY,ElbowRightZ,Myo_Pose_left,Myo_Pose_Right,Kinect_pose_left,Kinect_pose_right
0.9570313,-0.2392578,0.1274414,0.9453125,0.1982422,0.1582031,2,-1,-1,-1,0,1,-1,0,-1,-1,-3,0,-2,-1,2,1,1.8125,1.8125,1.8125,-0.5625,-0.5625,-0.5625,3.29656,2.946341,7.703196,6.482787,2.914827,3.596756,-0.163913,-0.4074854,1.578361,0.1573613,-0.3920597,1.582495,0.01012281,0.4519076,1.651739,-0.1242847,-0.4016083,1.561323,0.1138567,-0.3758405,1.56094,0.001813362,-0.0227903,1.687593,0.001072432,-0.3500818,1.680741,-0.1784233,0.1678988,1.663634,-0.08395594,-0.3415261,1.636209,-0.2195468,-0.07072737,1.651415,0.2062114,-0.08268489,1.691109,NA,NA,NotTracked,NotTracked,
0.965332,-0.2402344,0.1264648,0.9511719,0.1992188,0.152832,-3,-2,2,1,-3,-2,-2,0,-2,-2,-1,6,1,0,-1,-5,-0.375,-0.375,-0.375,-0.8125,-0.8125,-0.8125,3.296835,2.947114,7.70469,6.481091,2.914875,3.596781,-0.1635106,-0.4082958,1.577626,0.1578818,-0.3916267,1.582272,0.01051624,0.4517545,1.651849,-0.1250288,-0.4016713,1.559276,0.1110247,-0.4010848,1.559945,0.002036714,-0.02286442,1.68756,0.001162841,-0.3501185,1.680611,-0.1782394,0.1679641,1.663745,-0.08386784,-0.341545,1.636115,-0.2194435,-0.07064511,1.65148,0.2064034,-0.08277388,1.691076,NA,NA,NotTracked,NotTracked,
0.9624023,-0.2456055,0.128418,0.9418945,0.2128906,0.1459961,-1,-2,-2,-2,-1,-1,0,0,-1,-2,-1,-1,-4,5,6,0,-2.5,-2.5,-2.5,-0.8125,-0.8125,-0.8125,3.29392,2.945801,7.704364,6.479087,2.915123,3.597956,-0.1639981,-0.4082297,1.578595,0.1579414,-0.3915747,1.583519,0.01083207,0.451555,1.652043,-0.1245094,-0.4029649,1.560262,0.1160867,-0.3637867,1.563433,0.002214998,-0.0229292,1.687545,0.00127375,-0.3501505,1.680485,-0.1778692,0.168004,1.664022,-0.08374847,-0.3415619,1.635967,-0.2193016,-0.07052134,1.651535,0.2065425,-0.08301795,1.691073,NA,NA,NotTracked,NotTracked,
0.9604492,-0.2358398,0.1313477,0.9423828,0.1972656,0.1518555,1,-2,1,-3,1,-2,-1,1,-2,-1,-2,-3,-1,-1,-1,0,0.5,0.5,0.5,-0.875,-0.875,-0.875,3.293585,2.94579,7.704095,6.479613,2.915493,3.595771,-0.1635932,-0.4080208,1.578547,0.158074,-0.3921063,1.58354,0.01110014,0.451623,1.65232,-0.124818,-0.4017323,1.561185,0.1156574,-0.3677469,1.563384,0.00244394,-0.02293747,1.687639,0.001355216,-0.3501427,1.680488,-0.1776434,0.1680171,1.664098,-0.08365533,-0.3415371,1.635958,-0.2191649,-0.07062184,1.651692,0.2066615,-0.08302004,1.691206,NA,NA,NotTracked,NotTracked,
0.9580078,-0.2416992,0.1303711,0.9433594,0.2084961,0.1577148,-1,0,2,9,-1,-1,0,0,-5,-4,-3,-7,-3,-1,2,-1,-0.375,-0.375,-0.375,0.5625,0.5625,0.5625,3.293886,2.945654,7.703779,6.479613,2.915493,3.595771,-0.1632929,-0.4077173,1.577414,0.158322,-0.3916188,1.582277,0.0113435,0.4515775,1.652397,-0.1249841,-0.4025544,1.557042,0.1122626,-0.4005518,1.5595,0.002511647,-0.02295485,1.687616,0.001516668,-0.3501282,1.680323,-0.1774593,0.1681387,1.664211,-0.08348943,-0.3415331,1.635772,-0.2190519,-0.07049553,1.651661,0.2067397,-0.08301677,1.691217,NA,NA,NotTracked,NotTracked,
0.9594727,-0.2412109,0.1342773,0.9428711,0.2099609,0.1567383,-2,-2,-5,0,-2,-2,-1,0,-6,-3,-3,0,0,-7,3,-8,-0.125,-0.125,-0.125,0.0625,0.0625,0.0625,3.293886,2.945654,7.703779,6.4793,2.91562,3.596227,-0.1634679,-0.4073783,1.577743,0.157994,-0.39162,1.582757,0.01154937,0.4516085,1.6526,-0.1249964,-0.401372,1.559311,0.1145566,-0.378499,1.562259,0.002597899,-0.02296577,1.687596,0.001585912,-0.3501325,1.680247,-0.1773205,0.1681503,1.664257,-0.08342631,-0.3415242,1.635696,-0.2189914,-0.07042752,1.65162,0.2069254,-0.08286823,1.691322,NA,NA,NotTracked,NotTracked,
0.9545898,-0.2353516,0.1254883,0.9487305,0.2036133,0.1450195,0,-2,1,0,-2,0,-1,-1,3,1,-1,0,-1,-3,-3,4,-0.25,-0.25,-0.25,0.0625,0.0625,0.0625,3.294311,2.944841,7.703492,6.480827,2.915527,3.595393,-0.1633861,-0.4077325,1.57802,0.158207,-0.3919367,1.583347,0.0117819,0.4515668,1.652812,-0.124573,-0.4013181,1.560665,0.1151467,-0.3745141,1.562407,0.002670933,-0.02296396,1.68762,0.001617927,-0.3501227,1.680232,-0.1770648,0.1682238,1.664429,-0.08338316,-0.3415016,1.635657,-0.2189359,-0.07043488,1.651679,0.2070657,-0.08290574,1.691356,NA,NA,NotTracked,NotTracked,
0.956543,-0.2353516,0.1274414,0.9418945,0.2177734,0.1572266,1,-1,-1,3,0,-2,-1,-1,0,-1,1,-2,1,1,1,2,1.9375,1.9375,1.9375,2.9375,2.9375,2.9375,3.295491,2.94541,7.703953,6.488215,2.916387,3.592571,-0.163534,-0.4055353,1.57863,0.1582635,-0.3916248,1.583288,0.01190358,0.4516864,1.653478,-0.1258044,-0.4002364,1.558514,0.114622,-0.3768841,1.563727,0.002755899,-0.02294257,1.687743,0.001641652,-0.3501307,1.680279,-0.1768164,0.1682989,1.664647,-0.08335269,-0.341496,1.635685,-0.218809,-0.07034523,1.651869,0.2071927,-0.08279449,1.691509,NA,NA,NotTracked,NotTracked,
0.9584961,-0.2412109,0.1381836,1.073242,0.4316406,0.1240234,-1,-1,-3,-3,-1,-1,-1,-3,0,-8,4,5,-2,0,-2,-9,3.9375,3.9375,3.9375,-42.25,-42.25,-42.25,3.300783,2.948361,7.704749,6.51757,2.930801,3.53914,-0.1630415,-0.4080858,1.578131,0.1586403,-0.3921664,1.58167,0.011886,0.4517709,1.65408,-0.1241244,-0.4015322,1.560389,0.1151932,-0.373931,1.562412,0.002800582,-0.0229277,1.68781,0.001681137,-0.350113,1.680271,-0.1767635,0.1683776,1.665064,-0.08331083,-0.3414815,1.635673,-0.2186811,-0.07027723,1.652014,0.2072109,-0.0828042,1.691495,NA,NA,NotTracked,NotTracked,
0.9506836,-0.2485352,0.125,1.140625,0.6166992,0.3393555,0,0,-2,-3,-1,-1,0,1,-7,-10,28,9,0,0,-2,5,7.75,7.75,7.75,68.375,68.375,68.375,3.303756,2.9563,7.713999,6.527929,3.101067,3.476407,-0.1628003,-0.4075506,1.577385,0.1614542,-0.3933364,1.56506,0.01152769,0.4519972,1.655181,-0.1243694,-0.4014956,1.55927,0.1174597,-0.3957112,1.563204,0.002870161,-0.02290219,1.687966,0.001743503,-0.3501306,1.680238,-0.1769004,0.1683512,1.665539,-0.08323736,-0.341486,1.635632,-0.2188028,-0.06966472,1.652416,0.2072735,-0.08286949,1.691471,NA,NA,NotTracked,NotTracked,
0.9438477,-0.2353516,0.1254883,1.05957,1.123047,0.527832,-3,-2,1,-2,0,-2,-1,-1,-5,2,3,-10,-1,4,-3,2,-0.4375,-0.4375,-0.4375,17.0625,17.0625,17.0625,3.318253,2.962763,7.707114,6.644599,3.466463,3.437042,-0.1624494,-0.4076658,1.576753,0.1893394,-0.3550592,1.488386,0.01083252,0.4519737,1.656678,-0.1231671,-0.4009232,1.560546,0.2092254,-0.398062,1.468786,0.002785164,-0.02291418,1.688579,0.001906829,-0.350137,1.680335,-0.177193,0.1681581,1.666201,-0.08303062,-0.3414663,1.635602,-0.218702,-0.06986994,1.652651,0.2081235,-0.08212788,1.691574,NA,NA,NotTracked,Unknown,
0.9604492,-0.2822266,0.1586914,0.8564453,1.020508,0.6103516,-1,-2,-2,-2,-1,-1,-4,-2,26,-8,-5,16,1,-16,-2,0,-14.125,-14.125,-14.125,55.375,55.375,55.375,3.323834,2.970235,7.68187,6.71113,3.965348,3.412034,-0.1617782,-0.4081657,1.574437,0.2111181,-0.2554045,1.383106,0.01018992,0.4514306,1.658404,-0.1222814,-0.4006537,1.557911,0.2318905,-0.3154445,1.341,0.002375321,-0.02289119,1.690042,0.002228982,-0.3498924,1.680603,-0.177569,0.1680441,1.667187,-0.08263283,-0.3412626,1.635582,-0.2189285,-0.06970218,1.652793,0.21043,-0.07719648,1.692724,NA,NA,NotTracked,Unknown,
0.9672852,-0.3051758,0.1826172,0.4916992,1.048828,0.5444336,2,0,-1,1,-1,0,-1,0,-20,-6,0,-1,2,22,-3,-1,-16.0625,-16.0625,-16.0625,55.75,55.75,55.75,3.324615,2.985561,7.652652,6.861707,4.692466,3.38678,-0.1616597,-0.4076109,1.57263,0.2223585,-0.1143166,1.340292,0.00986822,0.4505841,1.661456,-0.1224115,-0.3975771,1.555201,0.2323543,-0.1431693,1.3685,0.001669829,-0.02303926,1.692286,0.002390258,-0.3497494,1.68081,-0.1778318,0.1678172,1.66768,-0.08245516,-0.3410954,1.635532,-0.2193233,-0.06949271,1.652844,0.2419835,-0.04288407,1.647611,NA,NA,NotTracked,Unknown,
0.9492188,-0.2548828,0.144043,0.2285156,0.9912109,0.4868164,-1,-2,0,-1,0,-2,-3,-1,6,1,-1,4,-1,9,2,14,-17.3125,-17.3125,-17.3125,62.8125,62.8125,62.8125,3.312823,3.005858,7.625368,6.955686,5.19924,3.402693,-0.1600211,-0.4065825,1.568806,0.2261053,0.04390574,1.314587,0.0100615,0.4494115,1.665288,-0.1190297,-0.4025171,1.546258,0.2540312,0.01624075,1.255542,0.0007928193,-0.02353136,1.694539,0.002488564,-0.3498532,1.680896,-0.1782862,0.1674758,1.668554,-0.08235563,-0.3412,1.635358,-0.2204167,-0.06756742,1.652511,0.2196091,-0.03841578,1.625113,NA,NA,NotTracked,Unknown,
0.9526367,-0.2353516,0.125,-0.02539063,0.8754883,0.3657227,-2,0,-4,-1,-3,-1,-1,-1,13,8,2,6,1,8,-13,-6,-10.9375,-10.9375,-10.9375,45.125,45.125,45.125,3.303528,3.014061,7.613103,7.051207,5.64873,3.447468,-0.159057,-0.4050851,1.565247,0.2110351,0.1991203,1.301652,0.0102311,0.4489605,1.669074,-0.1193235,-0.3958521,1.550056,0.1562411,0.2439197,1.321875,0.000480095,-0.0240411,1.697175,0.002834076,-0.349951,1.6813,-0.1783862,0.1673938,1.668571,-0.08228926,-0.3412349,1.635364,-0.2204967,-0.06741143,1.652329,0.26387,-0.006301559,1.57689,NA,NA,NotTracked,Open,
0.9560547,-0.2529297,0.1376953,-0.2866211,0.5976563,0.2089844,-1,-1,-4,-2,-1,-1,0,2,6,1,-4,-10,-1,37,15,6,-0.8125,-0.8125,-0.8125,30.5625,30.5625,30.5625,3.291209,3.019128,7.609865,7.209157,6.149159,3.594751,-0.159842,-0.401865,1.564955,0.1932712,0.3193212,1.328648,0.01019609,0.4489274,1.672043,-0.1188504,-0.3931712,1.550722,0.1377559,0.3507496,1.376556,0.0003080744,-0.0237224,1.698183,0.003344376,-0.3494628,1.681847,-0.17883,0.167534,1.66995,-0.08225209,-0.3409018,1.635799,-0.221055,-0.06571775,1.652598,0.2798986,0.05513978,1.540227,NA,NA,NotTracked,Open,
0.9477539,-0.2553711,0.144043,-0.4135742,0.4326172,0.1333008,-1,0,-1,-2,-2,-1,0,-2,9,3,0,-1,-1,-8,1,8,13,13,13,35.1875,35.1875,35.1875,3.294478,3.020976,7.623968,7.4038,6.441291,3.786638,-0.1603351,-0.4014415,1.564956,0.1697861,0.4056264,1.372443,0.01008265,0.4475739,1.675223,-0.1188898,-0.3915261,1.551991,0.1291836,0.4169032,1.4459,0.0003403751,-0.02266691,1.69768,0.004771617,-0.3474058,1.682092,-0.1788691,0.1675874,1.670013,-0.08193256,-0.3402006,1.63592,-0.2213743,-0.0657699,1.652759,0.2862817,0.1085674,1.512958,NA,NA,NotTracked,Open,
0.9355469,-0.2285156,0.128418,-0.5263672,0.331543,0.01855469,-2,-4,-3,-17,-3,-2,-2,-3,1,-3,-2,15,2,30,25,11,27.3125,27.3125,27.3125,27.5,27.5,27.5,3.3141,3.016215,7.660171,7.679216,6.654276,4.058507,-0.1620248,-0.4010392,1.567941,0.1475582,0.4630899,1.413837,0.01046215,0.4456486,1.677135,-0.1170674,-0.3816139,1.559156,0.09892555,0.4445724,1.469286,0.000446054,-0.02175141,1.698004,0.005801459,-0.3444669,1.682038,-0.1787117,0.1680142,1.670426,-0.08181366,-0.3380888,1.635848,-0.2216512,-0.06566331,1.65324,0.2768256,0.1563889,1.502385,NA,NA,NotTracked,Open,
0.9526367,-0.2773438,0.1621094,-0.6655273,0.2192383,-0.1264648,-1,0,1,2,-2,0,0,0,-23,-8,-5,-7,-1,-9,-2,-5,10.5,10.5,10.5,22.9375,22.9375,22.9375,3.306017,3.011274,7.686413,8.116576,6.810536,4.493326,-0.1637103,-0.399584,1.5707,0.1277617,0.4909107,1.448088,0.01066417,0.4455407,1.67724,-0.1180112,-0.3865266,1.557285,0.07960131,0.4633074,1.50455,0.0008812128,-0.0198221,1.696965,0.006515057,-0.3404531,1.681247,-0.1781895,0.1693918,1.671351,-0.08176334,-0.333873,1.63574,-0.2220622,-0.06578679,1.654717,0.2762085,0.1813733,1.497786,NA,NA,NotTracked,Open,
0.9379883,-0.3105469,0.1855469,-0.7265625,0.2055664,-0.1992188,0,-1,-2,0,-1,-2,-1,-2,-13,-4,-2,5,4,7,2,-13,10.9375,10.9375,10.9375,-10.9375,-10.9375,-10.9375,3.31638,3.023734,7.702933,8.372183,6.860512,4.764327,-0.1646375,-0.3994526,1.570512,0.1164736,0.4995026,1.47183,0.0112699,0.4456982,1.677232,-0.1182529,-0.3857798,1.557341,0.0734502,0.4681163,1.523517,0.001083184,-0.01836456,1.696361,0.006562154,-0.3374644,1.680619,-0.1773845,0.1712424,1.6724,-0.08201981,-0.3304621,1.636463,-0.2229016,-0.06384154,1.657216,0.2458836,0.2544018,1.502731,NA,NA,NotTracked,Open,
0.9443359,-0.2939453,0.1801758,-0.8251953,0.2036133,-0.2768555,0,0,-1,-8,-1,1,-2,-2,38,7,0,-13,-5,-31,-16,21,7.1875,7.1875,7.1875,-0.0625,-0.0625,-0.0625,3.332686,3.035625,7.699033,8.525621,6.898209,4.937882,-0.1649362,-0.4018881,1.568999,0.1132611,0.4966075,1.483168,0.01168018,0.4460368,1.677154,-0.1196132,-0.3822281,1.557517,0.06803463,0.4699726,1.53287,0.000909693,-0.01743209,1.695662,0.006174675,-0.3355326,1.679358,-0.17705,0.1719743,1.673066,-0.08255968,-0.3287393,1.636662,-0.2231239,-0.06263897,1.658677,0.2457177,0.2573174,1.501843,NA,NA,NotTracked,Open,
0.9487305,-0.2871094,0.1557617,-0.9648438,0.2119141,-0.3139648,0,0,-2,-3,-1,-1,-1,1,38,5,-2,1,-1,20,-5,-22,7.25,7.25,7.25,-8.1875,-8.1875,-8.1875,3.343349,3.043671,7.700467,8.537065,6.908621,4.952437,-0.1648722,-0.4016743,1.568434,0.1057634,0.5086876,1.485862,0.01195707,0.4463504,1.677333,-0.1201949,-0.3864806,1.554922,0.06176157,0.4835845,1.542625,0.0008468989,-0.01652524,1.694959,0.005965686,-0.3341914,1.678175,-0.1768276,0.1725428,1.673638,-0.08283924,-0.327629,1.636532,-0.2237032,-0.06222636,1.660411,0.2455424,0.2585943,1.500841,NA,NA,NotTracked,Open,
0.9428711,-0.2817383,0.1567383,-0.9365234,0.4301758,-0.07470703,-1,-2,-1,-5,-2,-1,1,0,-39,3,-3,-4,-1,-8,2,4,5.125,5.125,5.125,-23.625,-23.625,-23.625,3.348398,3.046287,7.702468,8.285412,6.856461,4.737446,-0.1654057,-0.401464,1.568073,0.1042856,0.5257068,1.471615,0.01164286,0.4464075,1.678313,-0.1211287,-0.3998188,1.548209,0.04794206,0.4965316,1.532125,0.0007154722,-0.01610143,1.694546,0.00552258,-0.3335068,1.677157,-0.1769001,0.1730184,1.674214,-0.08332865,-0.3270594,1.636096,-0.2236746,-0.06353964,1.66119,0.2439759,0.2592303,1.499808,NA,NA,NotTracked,Open,
0.9482422,-0.2783203,0.1762695,-0.875,0.5791016,-0.02001953,-1,-1,-3,-6,0,-1,-1,-2,-35,-7,-4,-2,-5,14,4,-14,3.8125,3.8125,3.8125,10.3125,10.3125,10.3125,3.354476,3.048129,7.705073,8.236767,6.850584,4.686403,-0.1658328,-0.402288,1.569332,0.1070555,0.5266142,1.46861,0.01080442,0.4465382,1.679836,-0.1201175,-0.392685,1.552747,0.05834263,0.4911648,1.53222,0.0006163082,-0.01571994,1.694309,0.005222761,-0.3331201,1.67671,-0.1769088,0.1735376,1.674835,-0.08363647,-0.3266693,1.635937,-0.224051,-0.06426724,1.661891,0.2423111,0.2593779,1.498952,NA,NA,NotTracked,Open,
0.9482422,-0.2880859,0.1796875,-0.918457,0.3046875,-0.2241211,-1,-1,-2,-3,-1,-1,-2,0,-21,1,-3,-3,-1,15,-3,-2,-2.5625,-2.5625,-2.5625,-3.125,-3.125,-3.125,3.352441,3.046534,7.706563,8.376075,6.87528,4.855023,-0.1662542,-0.3997152,1.569442,0.1113585,0.5008562,1.481452,0.01091066,0.4467573,1.680165,-0.1202786,-0.3904186,1.553588,0.06985218,0.4726506,1.532064,0.0004829724,-0.01541164,1.6941,0.004981888,-0.3326275,1.676327,-0.1769008,0.1736261,1.674984,-0.08393988,-0.3260518,1.635729,-0.2242342,-0.06495896,1.662296,0.2408936,0.2603218,1.498546,NA,NA,NotTracked,Open,
0.9291992,-0.2851563,0.1674805,-0.8974609,0.03417969,-0.421875,0,-1,-2,-7,-1,-1,0,-2,-1,-9,-7,-1,2,4,-1,-7,-7.75,-7.75,-7.75,23.1875,23.1875,23.1875,3.34772,3.041106,7.701687,8.609058,6.899926,5.054248,-0.1665945,-0.3995876,1.569225,0.09837622,0.5097516,1.495672,0.01128033,0.4477375,1.679702,-0.1210033,-0.3856132,1.555695,0.05518399,0.4815065,1.540427,0.000196485,-0.01499273,1.693731,0.00463046,-0.3322429,1.676026,-0.1767532,0.1737512,1.675022,-0.08431786,-0.3255408,1.635638,-0.2242813,-0.06463095,1.662458,0.239148,0.2613383,1.499033,NA,NA,NotTracked,Open,
0.9384766,-0.2944336,0.1708984,-1.016602,0.175293,-0.3261719,0,0,-1,-3,-1,-2,-3,-2,43,-2,-1,4,-1,8,0,3,-8.6875,-8.6875,-8.6875,-24.125,-24.125,-24.125,3.345235,3.038496,7.693869,8.441953,6.902299,4.877077,-0.1670685,-0.3995,1.568208,0.1162799,0.4981136,1.480227,0.0112905,0.4477043,1.679689,-0.1216179,-0.3865092,1.555353,0.0637368,0.47182,1.538048,6.272207E-05,-0.01493708,1.69365,0.004437028,-0.3321871,1.675976,-0.1767672,0.1738302,1.675045,-0.08453974,-0.3254496,1.635626,-0.2244568,-0.06477435,1.66242,0.2390892,0.2615799,1.498751,NA,NA,NotTracked,Open,
0.9501953,-0.2807617,0.1689453,-0.8227539,0.4897461,0.02832031,0,-2,-3,-5,-2,-1,-1,-1,37,3,-1,-3,-2,-4,-4,-14,4.375,4.375,4.375,6.4375,6.4375,6.4375,3.353182,3.038934,7.685372,8.179409,6.888506,4.618704,-0.167061,-0.3997948,1.569085,0.1191329,0.5161818,1.47031,0.01055955,0.447631,1.68007,-0.1221867,-0.3896672,1.553092,0.06469087,0.4822237,1.529982,-2.234196E-05,-0.01488652,1.693669,0.004323495,-0.3322501,1.676196,-0.176945,0.1738754,1.675141,-0.08467117,-0.3255067,1.635828,-0.2246137,-0.06550202,1.66234,0.2391503,0.2615262,1.49878,NA,NA,NotTracked,Open,
0.9467773,-0.2739258,0.1748047,-0.9379883,0.3295898,-0.09033203,0,0,2,0,-2,0,-1,-2,-7,1,2,34,2,-13,-3,1,2.3125,2.3125,2.3125,2.25,2.25,2.25,3.361179,3.041364,7.685162,8.250075,6.902455,4.707991,-0.1665034,-0.4000479,1.567621,0.1137483,0.5159986,1.479517,0.01025046,0.4476231,1.679985,-0.1217707,-0.3830165,1.555799,0.05967157,0.4858844,1.533798,-9.507236E-05,-0.0148133,1.69363,0.004169145,-0.3322923,1.676328,-0.1770413,0.1739376,1.675139,-0.08488988,-0.3255108,1.635979,-0.2247931,-0.06589533,1.662216,0.2392435,0.2613311,1.498509,NA,NA,NotTracked,Open,
0.9360352,-0.2880859,0.1796875,-0.9599609,0.2128906,-0.315918,1,1,-1,2,-1,-1,0,1,34,13,1,-4,1,12,11,13,-5.4375,-5.4375,-5.4375,4.6875,4.6875,4.6875,3.354758,3.039921,7.685749,8.449039,6.91815,4.911097,-0.1671699,-0.4000832,1.568049,0.1124817,0.5047523,1.487798,0.01033344,0.4477319,1.679663,-0.1214591,-0.3880486,1.554019,0.06936614,0.4735158,1.533023,-0.0002347163,-0.01476855,1.693544,0.004007569,-0.3322227,1.676347,-0.1770966,0.174066,1.675081,-0.08504926,-0.3253865,1.636001,-0.2249382,-0.06570052,1.662132,0.2400087,0.2608992,1.498221,NA,NA,NotTracked,Open,
0.9389648,-0.277832,0.1606445,-0.8632813,0.2119141,-0.199707,1,-1,1,-2,-1,-2,-3,-3,21,2,1,-8,-14,-6,3,3,-11.875,-11.875,-11.875,15.9375,15.9375,15.9375,3.34635,3.033731,7.678073,8.498856,6.91841,4.939954,-0.1673539,-0.3997142,1.566717,0.1142966,0.501945,1.485121,0.01051217,0.4478934,1.67922,-0.122062,-0.3883376,1.553233,0.06944846,0.4681152,1.532519,-0.0004107415,-0.01470024,1.693379,0.003763538,-0.3320867,1.676292,-0.1770524,0.1742207,1.674926,-0.08534999,-0.3251826,1.635891,-0.225093,-0.06559713,1.661701,0.2400165,0.2612265,1.497897,NA,NA,NotTracked,Open,
0.9550781,-0.2631836,0.1533203,-0.8979492,0.2158203,-0.2211914,-1,-1,-2,0,-2,-1,0,-1,17,-9,-3,-5,-3,15,1,-7,-1,-1,-1,-13.8125,-13.8125,-13.8125,3.344776,3.031372,7.664835,8.354599,6.903993,4.78793,-0.167104,-0.4019282,1.564993,0.1154547,0.5123128,1.475503,0.01071279,0.4478049,1.678689,-0.1221123,-0.3857082,1.55406,0.06220289,0.4805477,1.533031,-0.0005275175,-0.01482826,1.693498,0.003756094,-0.332093,1.676204,-0.1772062,0.1741875,1.67473,-0.08538756,-0.3251769,1.635571,-0.2252684,-0.06628638,1.660726,0.2403781,0.2605269,1.497551,NA,NA,NotTracked,Open,
0.9521484,-0.2773438,0.1606445,-0.9082031,0.2993164,-0.1665039,-3,-3,0,2,0,-1,-1,0,6,-2,0,8,3,-13,-3,1,8.875,8.875,8.875,1.5625,1.5625,1.5625,3.35411,3.03249,7.665972,8.153258,6.890142,4.574516,-0.1667693,-0.4018903,1.565581,0.1284901,0.5079893,1.457015,0.009927011,0.4474033,1.678748,-0.1223193,-0.3812944,1.554351,0.07097767,0.4777939,1.519211,-0.0005983209,-0.01487016,1.69341,0.003732458,-0.3324278,1.676218,-0.1773808,0.1740677,1.674616,-0.08540828,-0.3256198,1.635439,-0.2253783,-0.06632227,1.660269,0.2413804,0.2581618,1.496899,NA,NA,NotTracked,Open,
0.9414063,-0.2807617,0.1782227,-0.9077148,0.4311523,-0.05126953,1,-2,-2,-4,-1,0,-2,1,37,7,3,0,2,10,10,-3,-0.3125,-0.3125,-0.3125,-6.1875,-6.1875,-6.1875,3.3589,3.034259,7.670384,7.889071,6.833688,4.305675,-0.1666114,-0.4019598,1.56462,0.1377776,0.5034838,1.439563,0.008931505,0.4470487,1.678801,-0.1225301,-0.3799177,1.555126,0.08047657,0.4712749,1.5005,-0.0009973401,-0.01520844,1.693116,0.003176399,-0.3340335,1.676079,-0.177924,0.1735562,1.674234,-0.08611546,-0.3277129,1.634931,-0.2255397,-0.06682451,1.659708,0.2429769,0.2541347,1.496462,NA,NA,NotTracked,Open,
0.940918,-0.2675781,0.1655273,-0.9355469,0.4604492,-0.02685547,-1,0,-2,5,0,-1,-2,-1,23,7,-1,-3,1,-8,4,7,-7.9375,-7.9375,-7.9375,-0.125,-0.125,-0.125,3.356601,3.032891,7.666009,7.741505,6.785653,4.150437,-0.1660932,-0.4016096,1.564898,0.1435689,0.4993053,1.428406,0.008069443,0.4468891,1.679039,-0.1216736,-0.3857753,1.554313,0.08474442,0.4678991,1.484,-0.001252527,-0.01553507,1.69292,0.002959004,-0.3354747,1.676015,-0.1788667,0.1725343,1.673836,-0.08641253,-0.3295048,1.634514,-0.2259211,-0.06709759,1.658805,0.2439297,0.2515348,1.496051,NA,NA,NotTracked,Open,
0.9516602,-0.2768555,0.1547852,-0.8969727,0.484375,-0.03613281,1,0,0,2,-1,-1,-1,0,-14,-3,-4,3,-2,2,1,-5,-6.9375,-6.9375,-6.9375,-1.6875,-1.6875,-1.6875,3.34093,3.026782,7.660655,7.674885,6.76139,4.078094,-0.1659509,-0.4020229,1.565135,0.146646,0.5005668,1.419291,0.007565218,0.4467234,1.678989,-0.1214013,-0.3836175,1.554437,0.08767449,0.4653932,1.473381,-0.001462509,-0.01579374,1.692814,0.002645337,-0.336518,1.676214,-0.1795594,0.1715724,1.673278,-0.0866698,-0.3306632,1.634545,-0.2259443,-0.06734696,1.658292,0.2448184,0.250282,1.493835,NA,NA,NotTracked,Open,
0.9467773,-0.2729492,0.1508789,-0.7670898,0.378418,-0.046875,-3,-2,0,6,-2,-2,-2,0,-6,-1,0,-4,-1,-9,-4,0,-3.0625,-3.0625,-3.0625,-0.8125,-0.8125,-0.8125,3.334158,3.023782,7.663172,7.626498,6.741346,4.027419,-0.1657934,-0.4022471,1.565372,0.1494094,0.4973261,1.410894,0.007026033,0.4465274,1.678604,-0.1211994,-0.386345,1.552521,0.09620637,0.4600352,1.46835,-0.001622798,-0.01608706,1.692579,0.002570303,-0.3373128,1.676184,-0.1799842,0.1708732,1.672762,-0.08676194,-0.3316313,1.634323,-0.2259734,-0.06747586,1.657457,0.2456988,0.2489172,1.49113,NA,NA,NotTracked,Open,
0.921875,-0.2705078,0.1601563,-0.3603516,0.3232422,-0.04638672,-1,0,0,4,0,-1,-1,-1,3,0,1,-3,-1,-1,2,2,-0.6875,-0.6875,-0.6875,0.375,0.375,0.375,3.334826,3.018931,7.658142,7.584197,6.679047,3.973332,-0.1657238,-0.4024313,1.565781,0.1490758,0.4828378,1.396508,0.006712305,0.4462286,1.678306,-0.1213139,-0.3843053,1.554775,0.09320039,0.4504052,1.460177,-0.001776011,-0.01637929,1.692425,0.002472672,-0.3380789,1.676279,-0.1803237,0.1704745,1.672452,-0.08678023,-0.3323908,1.634212,-0.2262089,-0.06732343,1.656931,0.2596935,0.2143233,1.491824,NA,NA,NotTracked,Open,
0.9389648,-0.2529297,0.1533203,-0.1943359,0.269043,0.06542969,-2,-2,-2,-4,-2,-1,0,-1,2,1,-4,9,0,1,-2,1,3.4375,3.4375,3.4375,-19.9375,-19.9375,-19.9375,3.350992,3.015238,7.6447,7.519116,6.448202,3.942382,-0.1656983,-0.4024564,1.56621,0.1495921,0.4087609,1.37629,0.005989975,0.4455078,1.677818,-0.1214679,-0.385276,1.554405,0.1009143,0.4053489,1.438937,-0.001920411,-0.01659557,1.692239,0.002407541,-0.3385136,1.676259,-0.1803754,0.1702672,1.67219,-0.08675516,-0.3329364,1.633523,-0.2262932,-0.06733664,1.656764,0.267374,0.1887124,1.491746,NA,NA,NotTracked,Open,
0.9633789,-0.2744141,0.1625977,-0.2255859,0.5605469,0.1904297,-1,-1,1,3,-1,-1,0,-1,0,-3,-6,-7,-1,0,-1,3,14.25,14.25,14.25,-39.875,-39.875,-39.875,3.360427,3.013353,7.655358,7.458557,6.112837,3.922952,-0.1669069,-0.4030744,1.569346,0.1482437,0.2984967,1.338554,0.003353301,0.446504,1.677369,-0.1205069,-0.3900771,1.554672,0.1040743,0.3147058,1.384313,-0.002693435,-0.01692228,1.692544,0.002097308,-0.3387091,1.67617,-0.1806346,0.1691556,1.672623,-0.08686245,-0.332868,1.632856,-0.2270365,-0.06551738,1.657083,0.276811,0.1060417,1.509418,NA,NA,NotTracked,Open,
0.9545898,-0.2680664,0.1699219,-0.3325195,1.094238,0.409668,-3,2,-4,-4,-1,-1,-2,0,-2,-4,-15,-7,-1,-2,-2,-2,18.6875,18.6875,18.6875,-42,-42,-42,3.375311,3.013901,7.671522,7.297312,5.449451,3.822964,-0.1670988,-0.4039797,1.570076,0.1385137,0.1543284,1.288757,0.0003089296,0.448294,1.676633,-0.1216997,-0.3833736,1.55732,0.09883096,0.1672291,1.279,-0.006011185,-0.02053026,1.693744,-0.001285115,-0.3479716,1.676216,-0.1830965,0.1666404,1.674171,-0.08898699,-0.3401344,1.633607,-0.2278744,-0.06303863,1.658074,0.2749526,0.008340709,1.56824,NA,NA,NotTracked,Unknown,
0.9716797,-0.2470703,0.1811523,0.005371094,1.074707,0.3613281,-1,-2,-2,0,-2,-1,0,-1,-28,-6,1,0,0,-1,-2,-12,23.875,23.875,23.875,-92.625,-92.625,-92.625,3.388495,3.01531,7.68493,7.136037,4.876863,3.726532,-0.1667146,-0.403546,1.570429,0.156967,-0.03563217,1.306935,-0.00289613,0.4497961,1.675963,-0.1219422,-0.3861756,1.555815,0.1196662,-0.02180302,1.30225,-0.006803949,-0.02081777,1.694023,-0.001524928,-0.3480628,1.676257,-0.1854436,0.1653864,1.675378,-0.08900903,-0.3406409,1.633997,-0.2280943,-0.06541747,1.658298,0.2807264,-0.008971275,1.622072,NA,NA,NotTracked,Unknown,
0.9453125,-0.2836914,0.1860352,0.6894531,1.3125,0.4379883,-2,-4,-1,0,1,0,-1,-1,26,13,-10,4,2,0,-3,4,4.125,4.125,4.125,-49.8125,-49.8125,-49.8125,3.392938,3.011176,7.715853,7.032361,4.339268,3.646168,-0.1669518,-0.405602,1.57217,0.1657888,-0.200567,1.357029,-0.005023779,0.4510869,1.675153,-0.1225699,-0.3868074,1.558446,0.129465,-0.1618148,1.360588,-0.007482675,-0.02108909,1.693781,-0.00300277,-0.3483823,1.675853,-0.1862049,0.1652735,1.675672,-0.08967748,-0.3408396,1.633548,-0.2282285,-0.06612798,1.658723,0.2425255,-0.04846871,1.61388,NA,NA,NotTracked,Closed,
0.9516602,-0.3085938,0.1762695,0.9594727,1.162598,0.3237305,-4,-2,-1,0,-1,0,-1,-1,4,6,10,4,0,0,-2,2,-12.375,-12.375,-12.375,-126.1875,-126.1875,-126.1875,3.365208,3.007528,7.728713,6.868609,3.763814,3.573161,-0.1664313,-0.4059349,1.572528,0.1623689,-0.3128216,1.422127,-0.005974921,0.4518096,1.674257,-0.1218178,-0.3882134,1.557426,0.107395,-0.3108978,1.4686,-0.008082948,-0.02123389,1.693098,-0.005226849,-0.3484554,1.675186,-0.1867261,0.1652546,1.675742,-0.09121387,-0.340509,1.632704,-0.2282845,-0.06598306,1.6588,0.2077826,-0.06355152,1.669249,NA,NA,NotTracked,Unknown,
0.9384766,-0.2670898,0.1518555,0.9174805,0.7236328,0.3383789,-1,-3,-1,4,0,-1,-1,-1,-10,1,-1,-1,-2,-2,1,-1,-14,-14,-14,-75.1875,-75.1875,-75.1875,3.339328,3.001575,7.73288,6.705292,3.462954,3.561118,-0.1667614,-0.4059609,1.571608,0.1579885,-0.3601082,1.477222,-0.005774483,0.4521183,1.673198,-0.1233631,-0.3938425,1.553374,0.1053018,-0.3509783,1.451445,-0.008167331,-0.02147058,1.692423,-0.006065044,-0.3487791,1.674797,-0.1862035,0.1653515,1.674491,-0.09188845,-0.3405155,1.632057,-0.2276485,-0.06645494,1.658351,0.2068893,-0.06474993,1.669879,NA,NA,NotTracked,Unknown,
