ALX,ALY,ALZ,ARX,ARY,ARZ,EMG0L,EMG1L,EMG2L,EMG3L,EMG4L,EMG5L,EMG6L,EMG7L,EMG0R,EMG1R,EMG2R,EMG3R,EMG4R,EMG5R,EMG6R,EMG7R,GLX,GLY,GLZ,GRX,GRY,GRZ,ORL,OPL,OYL,ORR,OPR,OYR,LHNX,LHNY,LHNZ,RHNX,RHNY,RHNZ,HX,HY,HZ,LTX,LTY,LTZ,RTX,RTY,RTZ,SpineMidX,SpineMidY,SpineMidZ,SpineBaseX,SpineBaseY,SpineBaseZ,ShoulderLeftX,ShoulderLeftY,ShoulderLeftZ,ShoulderRightX,ShoulderRightY,ShoulderRightZ,ElbowLeftX,ElbowLeftY,ElbowLeftZ,ElbowRightX,ElbowRightY,ElbowRightZ,Myo_Pose_left,Myo_Pose_Right,Kinect_pose_left,Kinect_pose_right
0.9599609,-0.2280273,0.1176758,0.9448242,0.2099609,0.137207,-2,-2,-1,-2,-1,0,-1,-2,0,0,-1,-1,0,-1,0,-1,0.25,0.25,0.25,0.9375,0.9375,0.9375,3.255439,2.923826,9.027613,6.52981,2.908177,4.373168,-0.1582381,-0.4062123,1.603431,0.1842754,-0.407652,1.597994,0.02491165,0.4500298,1.660732,-0.1988775,-0.4129774,1.602268,0.1430724,-0.3937757,1.584712,0.0199349,-0.02424729,1.701607,0.01514269,-0.3507166,1.694757,-0.1611369,0.1684159,1.682559,-0.070365,-0.3422567,1.652719,-0.1971121,-0.07211225,1.681015,0.2369913,-0.08662585,1.701561,NA,NA,NotTracked,NotTracked,
0.9624023,-0.2304688,0.1254883,0.9516602,0.2016602,0.1489258,0,-1,0,-1,-1,-2,0,-1,-1,0,0,1,0,-1,0,1,0.8125,0.8125,0.8125,0.5,0.5,0.5,3.255439,2.923826,9.027613,6.528903,2.90809,4.374037,-0.1580543,-0.4062215,1.602784,0.1840248,-0.4081638,1.597217,0.02488142,0.4500299,1.660602,-0.1988515,-0.4031765,1.601304,0.1431948,-0.4221107,1.5775,0.01975841,-0.02425764,1.701504,0.01508449,-0.3507438,1.694663,-0.1627965,0.1692271,1.678732,-0.07041501,-0.3422808,1.652563,-0.1971658,-0.07211066,1.680812,0.2369577,-0.08658417,1.70143,NA,NA,NotTracked,NotTracked,
0.9589844,-0.2324219,0.1240234,0.9462891,0.2026367,0.1396484,0,-2,-2,0,0,-2,-2,-1,-2,0,-1,-1,-1,-1,-1,-1,-0.5625,-0.5625,-0.5625,-0.6875,-0.6875,-0.6875,3.2566,2.923927,9.026419,6.530346,2.908499,4.373006,-0.1583466,-0.40635,1.603771,0.1841248,-0.4084819,1.598008,0.02480799,0.4500249,1.660542,-0.199603,-0.412007,1.604121,0.1413545,-0.3929103,1.583625,0.0196999,-0.024268,1.701454,0.01510003,-0.3507626,1.694618,-0.1621156,0.1687705,1.68008,-0.0703959,-0.3423081,1.652506,-0.1972799,-0.07213857,1.680581,0.2369073,-0.08654344,1.701488,NA,NA,NotTracked,NotTracked,
0.9604492,-0.2280273,0.1230469,0.9536133,0.1972656,0.1391602,-1,-1,-1,-2,-1,-1,-2,0,-1,0,-2,2,-1,0,-1,0,1.9375,1.9375,1.9375,-0.25,-0.25,-0.25,3.25864,2.924094,9.025008,6.530931,2.908391,4.372374,-0.1583685,-0.4061082,1.604272,0.1837101,-0.4090605,1.598467,0.02473435,0.4499645,1.660524,-0.1989617,-0.412993,1.6018,0.1423869,-0.3896638,1.583749,0.01956088,-0.02430004,1.701427,0.01502688,-0.3508153,1.694546,-0.1617986,0.1685646,1.681228,-0.0704634,-0.3423625,1.652424,-0.1973605,-0.07219111,1.680491,0.2368897,-0.08650741,1.701484,NA,NA,NotTracked,NotTracked,
0.9604492,-0.2353516,0.1225586,0.9458008,0.1982422,0.140625,-2,-1,-2,-2,-4,-2,0,-1,-1,-3,-1,-1,0,-1,-2,-1,-0.5625,-0.5625,-0.5625,0.125,0.125,0.125,3.259207,2.924292,9.025286,6.530667,2.908197,4.372818,-0.1584844,-0.4064364,1.602787,0.1838994,-0.4092598,1.59738,0.02465897,0.4499299,1.660491,-0.1993229,-0.412726,1.602687,0.1432699,-0.3907425,1.584852,0.01946047,-0.02435248,1.701358,0.01500802,-0.3508716,1.69448,-0.1616603,0.1683109,1.681687,-0.07048196,-0.3424177,1.652279,-0.1975197,-0.07227771,1.680397,0.2367754,-0.08653347,1.701397,NA,NA,NotTracked,NotTracked,
0.9643555,-0.2363281,0.121582,0.9448242,0.1987305,0.140625,0,2,-1,-2,-1,0,0,-1,0,-1,-1,-2,-1,-1,0,1,0.4375,0.4375,0.4375,0,0,0,3.259207,2.924292,9.025286,6.530667,2.908197,4.372818,-0.1584269,-0.4060227,1.60305,0.183864,-0.4076983,1.597723,0.0245436,0.4500327,1.660448,-0.1991919,-0.4054019,1.602716,0.1424272,-0.3888506,1.582712,0.01933503,-0.02427361,1.701226,0.0149227,-0.3508361,1.694394,-0.1615062,0.1683073,1.682243,-0.07055517,-0.3423786,1.65219,-0.1975752,-0.07226839,1.680344,0.2367228,-0.08636544,1.701359,NA,NA,NotTracked,NotTracked,
0.9604492,-0.2285156,0.1132813,0.9462891,0.2026367,0.140625,-1,0,0,0,-1,0,0,-1,0,-2,0,0,-1,-2,-1,-2,-0.8125,-0.8125,-0.8125,0.625,0.625,0.625,3.258893,2.923885,9.025618,6.530024,2.908304,4.373244,-0.158459,-0.4059597,1.602741,0.1839974,-0.4082317,1.597458,0.02446006,0.4500152,1.660387,-0.1993474,-0.4118932,1.602395,0.1384843,-0.4193207,1.579412,0.01917951,-0.02430519,1.701049,0.01487322,-0.3508412,1.69429,-0.161326,0.1683005,1.68248,-0.07060117,-0.3423804,1.652103,-0.1976349,-0.07208873,1.680267,0.2366433,-0.0863323,1.701324,NA,NA,NotTracked,NotTracked,
0.9614258,-0.237793,0.1230469,0.9731445,0.2089844,0.1523438,-3,-1,-1,0,-2,-2,-1,1,2,2,13,14,3,1,-2,15,-0.375,-0.375,-0.375,1.375,1.375,1.375,3.259233,2.923519,9.024487,6.531638,2.908252,4.372517,-0.158538,-0.4068546,1.603172,0.1839342,-0.4084998,1.598169,0.02437972,0.4499666,1.660311,-0.1999572,-0.4301351,1.59975,0.1393423,-0.4165059,1.580619,0.0190652,-0.02429439,1.700958,0.01485816,-0.3508605,1.694109,-0.1612848,0.1682498,1.682653,-0.07062265,-0.3423948,1.651977,-0.1976816,-0.07215299,1.680253,0.2364905,-0.08632369,1.701196,NA,NA,NotTracked,NotTracked,
0.9580078,-0.2416992,0.1269531,1.116699,0.1923828,0.1972656,1,-3,-1,-1,-1,0,-2,-2,26,-10,11,9,1,-1,-3,-18,-0.875,-0.875,-0.875,37,37,37,3.259047,2.923246,9.02465,6.491097,2.946474,4.446272,-0.1584525,-0.4065946,1.604516,0.1833668,-0.408283,1.597401,0.02429709,0.4499517,1.660314,-0.1998099,-0.4179814,1.602276,0.1413176,-0.399073,1.582426,0.01892503,-0.02433252,1.700954,0.01483673,-0.350904,1.694072,-0.161161,0.1681259,1.683032,-0.07064191,-0.3424326,1.651945,-0.1977212,-0.07216617,1.680214,0.2364246,-0.08621808,1.7013,NA,NA,NotTracked,NotTracked,
0.9633789,-0.2353516,0.1206055,1.040527,0.3422852,0.2666016,0,0,-1,-1,-2,-1,-1,-1,1,-3,-23,-15,2,-10,-5,-34,4,4,4,86.375,86.375,86.375,3.266602,2.924462,9.021586,6.485186,3.182533,4.580112,-0.1583917,-0.4087262,1.602752,0.1835057,-0.3993853,1.581022,0.02415218,0.4499351,1.660308,-0.1976386,-0.4138593,1.595151,0.1411276,-0.4061659,1.565455,0.01868125,-0.0243064,1.700846,0.01458658,-0.3508651,1.693871,-0.1610922,0.1680622,1.683383,-0.07090238,-0.3423685,1.651775,-0.1977478,-0.07220882,1.680206,0.2369739,-0.08527672,1.702665,NA,NA,NotTracked,NotTracked,
0.9682617,-0.2329102,0.128418,0.8745117,0.7773438,0.402832,0,-1,0,-1,-2,-1,0,0,-11,-4,3,-5,-10,7,-3,7,1.0625,1.0625,1.0625,81.3125,81.3125,81.3125,3.277388,2.926058,9.018991,6.660656,3.499094,4.573501,-0.1584641,-0.4085613,1.60291,0.185081,-0.3595515,1.53736,0.02392117,0.4499805,1.660247,-0.1973771,-0.420354,1.593611,0.1570596,-0.3842149,1.5622,0.01824659,-0.02428429,1.700623,0.01381246,-0.3507271,1.693188,-0.1610874,0.1680262,1.683441,-0.07175244,-0.3421698,1.651085,-0.1979953,-0.07206805,1.680136,0.2379475,-0.08151236,1.707744,NA,NA,NotTracked,Unknown,
0.9628906,-0.253418,0.1333008,0.5600586,0.6938477,0.2993164,0,-1,-2,-2,0,-2,0,0,-2,1,2,0,-3,-8,-7,3,1.5,1.5,1.5,30.8125,30.8125,30.8125,3.277142,2.927082,9.020146,6.733397,3.829831,4.572676,-0.1586367,-0.4091868,1.602389,0.1753276,-0.310918,1.503278,0.02362806,0.4499953,1.66024,-0.1987014,-0.4145575,1.598434,0.1416168,-0.3711628,1.546667,0.01763686,-0.02425575,1.700508,0.01242951,-0.3506095,1.692737,-0.1611964,0.1679517,1.683663,-0.07309863,-0.3418174,1.650565,-0.1983118,-0.07173868,1.68029,0.2387144,-0.07539165,1.713736,NA,NA,NotTracked,Unknown,
0.9511719,-0.2514648,0.1357422,0.4516602,0.7387695,0.3325195,-2,-3,-1,-2,-1,-2,0,-1,-6,-3,-4,-13,-4,3,-4,-15,-6.125,-6.125,-6.125,22.6875,22.6875,22.6875,3.275462,2.92835,9.017144,6.791698,4.194489,4.571371,-0.1584147,-0.4096695,1.601669,0.1786887,-0.2576062,1.468599,0.02340055,0.4500057,1.660565,-0.2001918,-0.4272757,1.598231,0.1440348,-0.2821585,1.447511,0.01660869,-0.02423207,1.700718,0.01106335,-0.3505058,1.692543,-0.1612577,0.1678078,1.68383,-0.07428818,-0.3415441,1.650395,-0.1983933,-0.07175156,1.680334,0.2411565,-0.06192432,1.721684,NA,NA,NotTracked,Unknown,
0.972168,-0.2368164,0.1367188,0.2963867,0.75,0.3569336,0,-2,-1,-1,-2,-2,-2,0,3,-7,-5,-2,-5,0,-4,0,-8.625,-8.625,-8.625,11.625,11.625,11.625,3.273365,2.931635,9.005332,6.816927,4.410229,4.581681,-0.1580133,-0.4091245,1.600002,0.1854027,-0.2131228,1.430547,0.02315019,0.4499715,1.661106,-0.1972054,-0.4289567,1.590947,0.1404734,-0.2506925,1.4543,0.01629486,-0.02422402,1.700795,0.01047605,-0.3504637,1.692317,-0.1612411,0.1677199,1.684036,-0.07483166,-0.341445,1.650214,-0.1985613,-0.07184606,1.680214,0.2417425,-0.05486368,1.719133,NA,NA,NotTracked,Closed,
0.9545898,-0.2265625,0.1074219,0.2924805,0.6577148,0.3476563,-1,-1,-1,0,0,1,-1,-2,-15,2,2,-2,-11,-2,-2,-12,-5.25,-5.25,-5.25,17.0625,17.0625,17.0625,3.258501,2.933393,8.997849,6.822905,4.539926,4.603301,-0.1580044,-0.4091275,1.599887,0.1855288,-0.1896312,1.41235,0.02300734,0.4500321,1.662112,-0.1976952,-0.4242527,1.592648,0.1417602,-0.2232448,1.429,0.01593938,-0.02408752,1.701029,0.01020851,-0.3502989,1.692232,-0.161215,0.1676427,1.684271,-0.07508875,-0.341304,1.650141,-0.1986686,-0.07162426,1.680256,0.2415814,-0.05275277,1.706947,NA,NA,NotTracked,Unknown,
0.9692383,-0.2216797,0.1176758,0.2524414,0.8544922,0.3691406,-1,0,-1,-1,-1,-1,0,-1,9,-3,-1,1,-1,-2,-1,7,1.3125,1.3125,1.3125,4.9375,4.9375,4.9375,3.250445,2.93034,9.003339,6.856108,4.616817,4.622673,-0.1588257,-0.4085242,1.601345,0.1845371,-0.1853553,1.392191,0.02297341,0.4501202,1.663205,-0.2042697,-0.4093415,1.611875,0.1446667,-0.1851807,1.391661,0.01569455,-0.02397427,1.701467,0.01002203,-0.3502022,1.692364,-0.1611715,0.1676541,1.684672,-0.07537355,-0.3411815,1.650453,-0.1987104,-0.07162625,1.680288,0.2434295,-0.07978559,1.638842,NA,NA,NotTracked,Unknown,
0.972168,-0.2265625,0.1083984,0.269043,0.8823242,0.3881836,-2,-2,-3,-3,-2,-2,0,1,3,10,7,0,-1,-7,3,-11,3.1875,3.1875,3.1875,11.75,11.75,11.75,3.24748,2.930082,9.008348,6.865199,4.635481,4.628247,-0.1588494,-0.4083328,1.602325,0.1838304,-0.1654724,1.399909,0.02285094,0.4502678,1.664635,-0.1973552,-0.4129502,1.59323,0.1430334,-0.2070794,1.401478,0.01540784,-0.02390557,1.702016,0.009730735,-0.3500572,1.692618,-0.1611155,0.1677171,1.685829,-0.07573211,-0.3410231,1.650983,-0.198939,-0.07118519,1.680609,0.2465731,-0.05116652,1.688244,NA,NA,NotTracked,Unknown,
0.9492188,-0.2456055,0.128418,0.2358398,0.887207,0.390625,-1,-2,-2,1,0,0,-2,-3,-4,-1,-3,-2,-4,-7,-3,-1,11.25,11.25,11.25,-1.75,-1.75,-1.75,3.248131,2.934633,9.036187,6.866465,4.651837,4.633855,-0.1594241,-0.4084494,1.60362,0.1838625,-0.1613353,1.397413,0.02275735,0.4502363,1.665434,-0.2048272,-0.4099255,1.612,0.1498446,-0.2089468,1.416248,0.0149652,-0.02397368,1.702541,0.00921875,-0.350049,1.693038,-0.1610999,0.167596,1.686994,-0.0764038,-0.3410574,1.651762,-0.1991752,-0.07116224,1.681138,0.254678,-0.04935599,1.69361,NA,NA,NotTracked,Unknown,
0.9516602,-0.2451172,0.1337891,0.2094727,0.9243164,0.3759766,0,0,-1,-1,-1,1,-1,-1,-20,-8,-8,-4,-2,0,10,-11,8.75,8.75,8.75,6.3125,6.3125,6.3125,3.252829,2.937358,9.049347,6.874438,4.672593,4.639798,-0.159826,-0.4084221,1.605419,0.1825244,-0.1587785,1.395209,0.0224492,0.450243,1.666672,-0.2011812,-0.4161725,1.598943,0.1420502,-0.2022775,1.394091,0.01468796,-0.02396772,1.703096,0.008718845,-0.3499771,1.693442,-0.1613267,0.1676326,1.68891,-0.07697092,-0.340998,1.652528,-0.1994606,-0.07175802,1.682425,0.257113,-0.04931681,1.69442,NA,NA,NotTracked,Closed,
0.949707,-0.2573242,0.1342773,0.1865234,0.9355469,0.3686523,-2,0,-3,-1,-2,-1,1,-2,12,5,4,5,2,0,-2,4,6.875,6.875,6.875,2.1875,2.1875,2.1875,3.252639,2.938337,9.053589,6.878905,4.691092,4.644929,-0.16049,-0.4082954,1.60654,0.1823438,-0.1549602,1.395239,0.02202374,0.450529,1.668046,-0.2043422,-0.4029516,1.612727,0.1423028,-0.1989476,1.395849,0.01436574,-0.02391608,1.703677,0.008238325,-0.3498329,1.693722,-0.1615408,0.1676467,1.691022,-0.07753258,-0.3408094,1.653199,-0.1996664,-0.07178896,1.683942,0.2591832,-0.04926676,1.695929,NA,NA,NotTracked,Unknown,
0.9501953,-0.2602539,0.1318359,0.1484375,1.039063,0.359375,-1,-3,-1,-2,-1,-2,-1,-2,-1,-2,-1,-2,0,-1,-4,-2,3.375,3.375,3.375,6.8125,6.8125,6.8125,3.256394,2.945022,9.063353,6.893659,4.722297,4.643915,-0.1603091,-0.4084655,1.604979,0.180668,-0.1503385,1.394779,0.0216609,0.4505666,1.668827,-0.2052424,-0.4152465,1.609686,0.1403894,-0.1925719,1.392485,0.01423497,-0.02382112,1.703938,0.007974701,-0.3496804,1.693792,-0.1620566,0.1677432,1.692435,-0.0777396,-0.3406799,1.65343,-0.1998826,-0.07216073,1.684632,0.2596065,-0.04920659,1.696262,NA,NA,NotTracked,Unknown,
0.9580078,-0.2568359,0.1357422,0.0859375,1.045898,0.3847656,-2,-2,-1,1,-1,-1,-1,0,14,10,4,0,-2,-3,1,-31,0,0,0,-8.9375,-8.9375,-8.9375,3.265945,2.950877,9.058304,6.900178,4.796968,4.626761,-0.1605303,-0.4087315,1.605737,0.1815233,-0.145652,1.396766,0.02091227,0.4507096,1.670892,-0.2029618,-0.4139526,1.604371,0.1400081,-0.1877029,1.40575,0.01396914,-0.02373797,1.704639,0.00781933,-0.3495697,1.693894,-0.1622624,0.1677966,1.693627,-0.07790571,-0.340559,1.653772,-0.200221,-0.07209679,1.685589,0.2425739,-0.05386283,1.634471,NA,NA,NotTracked,Unknown,
0.9555664,-0.2602539,0.1347656,0.237793,0.6142578,0.3671875,-1,-2,-1,-4,-6,-7,-22,-4,-42,-93,-101,-63,4,-3,-13,-32,-3.8125,-3.8125,-3.8125,-11.4375,-11.4375,-11.4375,3.268631,2.955894,9.049191,6.864221,4.905586,4.603993,-0.1598651,-0.4089324,1.603092,0.1836582,-0.1298101,1.390633,0.02041896,0.450642,1.672369,-0.1985311,-0.4233608,1.593958,0.1439508,-0.1725282,1.406625,0.01363652,-0.02377308,1.705163,0.007686266,-0.3495423,1.693994,-0.1622785,0.1675294,1.694071,-0.07806303,-0.3405621,1.653975,-0.2003575,-0.07219653,1.685856,0.2166235,-0.05079377,1.650643,NA,NA,NotTracked,Open,
0.9516602,-0.2373047,0.1367188,-0.3793945,0.7875977,0.237793,0,0,-3,-1,1,4,-5,2,-55,-29,1,2,-14,-6,-9,-63,-6.3125,-6.3125,-6.3125,78.375,78.375,78.375,3.273137,2.959018,9.034602,6.911187,4.819177,4.641897,-0.1606315,-0.4096631,1.602376,0.1807235,-0.0717446,1.402306,0.01968581,0.4504288,1.674242,-0.2022713,-0.4149496,1.601604,0.1427816,-0.1034286,1.353875,0.0134175,-0.02388864,1.705797,0.00754539,-0.3495896,1.694098,-0.162389,0.167403,1.694466,-0.07828998,-0.3406606,1.654384,-0.2004937,-0.07187071,1.686014,0.2838774,-0.04084878,1.702471,NA,NA,NotTracked,Unknown,
0.9750977,-0.2553711,0.1220703,-0.004882813,0.7788086,0.3798828,-1,-1,-1,-3,-2,-10,-16,-5,5,40,17,13,0,-2,-1,14,-9.8125,-9.8125,-9.8125,-69.5625,-69.5625,-69.5625,3.262249,2.962704,9.028245,6.969752,4.833008,4.638071,-0.1608073,-0.4143635,1.599102,0.1864173,-0.0243401,1.436461,0.01903514,0.450596,1.675759,-0.2028584,-0.4186632,1.601296,0.1525834,-0.06158437,1.426947,0.01315148,-0.02369786,1.706272,0.007426753,-0.3493993,1.694249,-0.1626274,0.1673787,1.694909,-0.07835187,-0.3405271,1.654702,-0.2006965,-0.07146715,1.686072,0.2501626,-0.06728424,1.640787,NA,NA,NotTracked,Open,
0.9448242,-0.2695313,0.1235352,0.04345703,0.9091797,0.2617188,-1,-2,-1,-1,-2,0,-4,-2,100,39,19,-1,2,-2,-8,-65,-7.0625,-7.0625,-7.0625,-3.3125,-3.3125,-3.3125,3.237478,2.965517,9.036736,6.951381,4.866903,4.618888,-0.1621595,-0.4160298,1.598564,0.1884184,-0.01372822,1.448738,0.0185494,0.4508846,1.676643,-0.2028052,-0.4034398,1.594808,0.1568235,-0.05665533,1.445034,0.01300151,-0.02351343,1.706645,0.007263239,-0.34908,1.694377,-0.1627892,0.1673582,1.69524,-0.07839657,-0.3402261,1.654943,-0.2007454,-0.07139012,1.686128,0.3389713,-0.003278511,1.718204,NA,NA,NotTracked,Unknown,
0.9282227,-0.246582,0.1181641,0.06640625,0.9101563,0.3637695,-2,-1,-2,-3,-2,-1,0,0,22,11,-1,2,1,1,0,8,-1.25,-1.25,-1.25,-7.0625,-7.0625,-7.0625,3.232552,2.962179,9.038598,6.931561,4.858316,4.608969,-0.1643562,-0.4198293,1.599995,0.1903339,-0.01663429,1.449233,0.01825339,0.4508536,1.677555,-0.2040895,-0.4122086,1.598143,0.1558191,-0.05485496,1.438408,0.01282003,-0.02338191,1.707208,0.007020722,-0.3488343,1.694691,-0.1628201,0.1673468,1.69534,-0.07852588,-0.3399779,1.655663,-0.2007609,-0.07136648,1.686186,0.2412065,-0.07597005,1.632014,NA,NA,NotTracked,Open,
0.9711914,-0.2524414,0.121582,0.04248047,0.9414063,0.3525391,-1,-3,-2,-2,-3,-1,6,1,75,-1,4,0,-1,1,7,38,-1.0625,-1.0625,-1.0625,-2.5625,-2.5625,-2.5625,3.223758,2.953512,9.038443,6.940439,4.855206,4.610155,-0.1641084,-0.421635,1.60018,0.1912073,0.007042318,1.443584,0.01800198,0.4509532,1.678562,-0.2050077,-0.4132135,1.598078,0.1525534,-0.02537451,1.405065,0.01259568,-0.0233443,1.707696,0.006740426,-0.3486866,1.694954,-0.1630506,0.1672263,1.69555,-0.07867946,-0.3398598,1.656061,-0.2008149,-0.07135543,1.686149,0.2465374,-0.07015392,1.64275,NA,NA,NotTracked,Unknown,
0.9506836,-0.2397461,0.1279297,0.06884766,0.9658203,0.3652344,1,-1,-3,-2,0,-1,0,0,66,4,-1,-1,-4,-2,1,25,3,3,3,4.9375,4.9375,4.9375,3.230929,2.954807,9.035324,6.943554,4.862784,4.614121,-0.1638253,-0.4212737,1.599888,0.1905073,-0.01605182,1.452738,0.01787011,0.4508779,1.679039,-0.2022484,-0.4037171,1.5918,0.1505754,-0.03231928,1.419302,0.01238377,-0.02327501,1.708031,0.006361566,-0.3484516,1.695201,-0.1631352,0.1672261,1.695675,-0.07894046,-0.3396248,1.656433,-0.2010969,-0.07126246,1.686223,0.2295291,-0.0956304,1.621141,NA,NA,NotTracked,Open,
0.9594727,-0.262207,0.1142578,0.02001953,0.9311523,0.3310547,0,0,0,0,0,1,0,-1,-39,2,-5,-2,-5,-5,-1,7,-2.0625,-2.0625,-2.0625,-6.4375,-6.4375,-6.4375,3.229732,2.953227,9.034065,6.941155,4.875023,4.616577,-0.164298,-0.4208421,1.600898,0.1909851,-0.01681313,1.456074,0.01772084,0.4509633,1.679371,-0.2045814,-0.4154319,1.59627,0.2351725,0.03672241,1.427684,0.01214136,-0.02316973,1.708403,0.006059319,-0.3483101,1.69546,-0.1632995,0.1671714,1.695811,-0.07916258,-0.3395366,1.656754,-0.2012396,-0.07121132,1.686323,0.2466719,-0.06990701,1.639819,NA,NA,NotTracked,Open,
0.9609375,-0.2514648,0.125,0.02246094,0.9648438,0.3276367,-2,0,-1,-2,1,-2,5,2,14,21,0,-4,1,2,5,5,3.5625,3.5625,3.5625,0,0,0,3.23127,2.951056,9.03537,6.942238,4.880457,4.614777,-0.1643779,-0.4208135,1.601539,0.1910956,-0.01494352,1.4553,0.01756543,0.4509668,1.679768,-0.2055298,-0.418216,1.596846,0.2357064,0.02804823,1.434684,0.01194672,-0.02313312,1.708653,0.005734077,-0.3481945,1.695614,-0.1633757,0.1672268,1.696037,-0.07940422,-0.3394354,1.656999,-0.2013158,-0.07118396,1.686431,0.2291771,-0.09920774,1.619099,NA,NA,NotTracked,Unknown,
0.9526367,-0.2607422,0.128418,0.0390625,0.9580078,0.3486328,0,-1,0,0,-1,-1,-2,0,-45,-8,-6,-7,1,-1,6,25,4.5,4.5,4.5,1.3125,1.3125,1.3125,3.234685,2.951754,9.039423,6.93854,4.884914,4.612637,-0.164508,-0.4205783,1.602321,0.1916084,-0.01609666,1.456485,0.01740375,0.4509837,1.680086,-0.2054241,-0.412802,1.598273,0.234044,0.03710555,1.430059,0.01164254,-0.02304541,1.70914,0.005402959,-0.3480032,1.696022,-0.1637577,0.1671896,1.696606,-0.07969041,-0.3393095,1.657471,-0.2015639,-0.07117964,1.686843,0.2394561,-0.07461687,1.634163,NA,NA,NotTracked,Open,
0.9594727,-0.2524414,0.1245117,0.05664063,0.9394531,0.3481445,-1,-2,-1,0,0,0,-2,-4,-19,-7,-10,-5,-1,-1,-4,-32,1.25,1.25,1.25,0.4375,0.4375,0.4375,3.241006,2.953966,9.038966,6.937943,4.885633,4.614638,-0.1641595,-0.4179271,1.602474,0.1915788,-0.01586408,1.455685,0.01730399,0.4509208,1.680236,-0.205288,-0.4184377,1.594318,0.238194,0.03778625,1.429626,0.01156039,-0.02307859,1.70932,0.005224901,-0.347921,1.696205,-0.1638003,0.1672235,1.696781,-0.07981819,-0.3392487,1.657615,-0.2018156,-0.07060558,1.687252,0.2393475,-0.08038673,1.631368,NA,NA,NotTracked,Open,
0.9555664,-0.2470703,0.1289063,0.06542969,0.9477539,0.3549805,0,-1,-1,-1,-1,-1,-4,0,23,18,5,-4,-3,-3,-1,-11,-1.625,-1.625,-1.625,2.125,2.125,2.125,3.242102,2.953386,9.036019,6.939872,4.886899,4.614816,-0.1647957,-0.4184636,1.603124,0.1915077,-0.01572297,1.455675,0.01712789,0.4509625,1.680518,-0.2060178,-0.4080877,1.60265,0.2351691,0.03660479,1.430579,0.01136304,-0.02305339,1.709581,0.005002584,-0.3478091,1.696441,-0.1640334,0.1673035,1.697103,-0.07997043,-0.3391837,1.657846,-0.201982,-0.07061636,1.687429,0.241932,-0.07709234,1.634833,NA,NA,NotTracked,Open,
0.9550781,-0.2578125,0.1298828,0.05175781,0.9145508,0.340332,-2,0,-1,-1,0,1,18,2,66,10,-5,-2,-3,-5,-7,3,-1.125,-1.125,-1.125,0.5,0.5,0.5,3.242269,2.952146,9.034339,6.938693,4.886236,4.613541,-0.1647057,-0.421069,1.603238,0.1920644,-0.01546482,1.455908,0.01701449,0.450958,1.680673,-0.2056286,-0.4199447,1.59815,0.2347136,0.03663147,1.430003,0.01125418,-0.02303187,1.70978,0.00474794,-0.3477161,1.696747,-0.1641273,0.1672642,1.697282,-0.08022206,-0.3390916,1.658234,-0.2021582,-0.07059958,1.687593,0.2429709,-0.07497319,1.637056,NA,NA,NotTracked,Open,
0.9580078,-0.2495117,0.1328125,0.05615234,0.9521484,0.3525391,-1,0,0,-1,-2,-2,-12,-4,4,-1,-8,-12,-1,-3,-6,-13,0.9375,0.9375,0.9375,-4.3125,-4.3125,-4.3125,3.243969,2.952037,9.033354,6.936692,4.883078,4.612289,-0.1648826,-0.4182965,1.603376,0.1925639,-0.01631965,1.456103,0.01682099,0.4509622,1.680859,-0.2053013,-0.4107919,1.598826,0.2370242,0.03717162,1.42868,0.01107978,-0.0229876,1.710017,0.004562948,-0.3476577,1.696987,-0.16446,0.167199,1.697671,-0.08039153,-0.3390759,1.658522,-0.2022488,-0.07057342,1.687796,0.2428073,-0.07561588,1.638241,NA,NA,NotTracked,Open,
0.9580078,-0.2431641,0.1367188,0.04736328,0.9482422,0.3510742,-1,1,0,-1,-2,1,28,0,10,0,5,6,3,4,7,-16,-0.5625,-0.5625,-0.5625,-2.9375,-2.9375,-2.9375,3.243797,2.951786,9.033507,6.933476,4.87799,4.61365,-0.1646701,-0.4185295,1.602248,0.1922435,-0.01555756,1.454177,0.01666027,0.450884,1.681058,-0.2055108,-0.4310566,1.590941,0.2383938,0.03016884,1.431786,0.01103509,-0.02300696,1.710124,0.004521766,-0.3476374,1.697052,-0.1646161,0.1671169,1.697804,-0.08043313,-0.3390878,1.658603,-0.2023688,-0.0705877,1.687894,0.229115,-0.09840002,1.620664,NA,NA,NotTracked,Open,
0.9545898,-0.2514648,0.128418,0.07226563,0.9404297,0.3496094,1,-1,0,-1,0,0,-5,-1,-44,-5,4,7,0,2,1,3,-2.4375,-2.4375,-2.4375,-0.5,-0.5,-0.5,3.25076,2.95349,9.020567,6.927949,4.870452,4.615499,-0.1645637,-0.4184127,1.603035,0.1921275,-0.01560758,1.454166,0.01643731,0.4507456,1.681358,-0.2054231,-0.4164692,1.598834,0.2410626,0.03400682,1.43357,0.0109085,-0.02304759,1.710315,0.004485417,-0.3476715,1.697178,-0.1647868,0.1669475,1.697969,-0.08044967,-0.3391436,1.658688,-0.2024694,-0.0706958,1.688012,0.2281323,-0.1000921,1.61985,NA,NA,NotTracked,Open,
0.9560547,-0.25,0.1269531,0.07666016,0.9296875,0.3588867,-2,-1,-1,-1,-3,-1,-15,-1,-61,-5,0,0,0,1,0,-29,-0.125,-0.125,-0.125,-5.4375,-5.4375,-5.4375,3.249797,2.953578,9.020463,6.920949,4.864558,4.615845,-0.1648219,-0.4191872,1.602319,0.1919937,-0.01740408,1.45402,0.01624656,0.4506525,1.681566,-0.2053279,-0.4150199,1.597193,0.2413684,0.02933054,1.431953,0.01080669,-0.02306711,1.710498,0.004388195,-0.3477125,1.697298,-0.1648558,0.1668776,1.698023,-0.08051388,-0.3391562,1.658733,-0.2026654,-0.07063512,1.688143,0.2272169,-0.1009544,1.620615,NA,NA,NotTracked,Open,
0.9584961,-0.2485352,0.1367188,0.07177734,0.9555664,0.3408203,0,-2,0,-2,-1,-3,-9,-3,-10,0,-11,-7,1,-3,-6,-8,-0.75,-0.75,-0.75,-2.5625,-2.5625,-2.5625,3.250479,2.953678,9.019977,6.920651,4.861735,4.616065,-0.1645581,-0.4188431,1.60261,0.1920856,-0.01700364,1.453835,0.01608319,0.4506681,1.681675,-0.2047803,-0.4149676,1.595965,0.2415329,0.03011764,1.438183,0.01073971,-0.02307165,1.710557,0.004302699,-0.3476937,1.697379,-0.1651235,0.1667905,1.69821,-0.08058465,-0.3391482,1.658842,-0.202888,-0.07051227,1.688252,0.2243768,-0.1048207,1.618267,NA,NA,NotTracked,Open,
0.9575195,-0.2485352,0.128418,0.06787109,0.965332,0.3481445,1,-2,-1,0,-2,-1,6,1,-29,-9,2,-2,-3,-4,-4,11,-0.625,-0.625,-0.625,3.1875,3.1875,3.1875,3.250479,2.953678,9.019977,6.922912,4.860048,4.615324,-0.1645562,-0.4214629,1.60269,0.1919222,-0.0179645,1.455084,0.01585344,0.4506882,1.681914,-0.2049092,-0.4101659,1.598864,0.240798,0.03195948,1.434859,0.01064821,-0.02308095,1.71066,0.00419039,-0.3476871,1.6975,-0.1652023,0.1667822,1.698292,-0.08069061,-0.3391581,1.658965,-0.2030612,-0.07020093,1.688387,0.2232969,-0.107708,1.619803,NA,NA,NotTracked,Open,
0.9541016,-0.2426758,0.121582,0.1098633,0.9272461,0.3696289,-1,-2,0,-2,0,-2,-5,-2,97,21,-7,-5,0,-4,-3,8,-0.0625,-0.0625,-0.0625,4.1875,4.1875,4.1875,3.251421,2.951707,9.015341,6.920129,4.855459,4.614393,-0.1645614,-0.4223526,1.601918,0.1925566,-0.0185674,1.453637,0.01576928,0.4505683,1.681875,-0.2051564,-0.4196852,1.596386,0.2420289,0.02901011,1.437712,0.01055998,-0.02312608,1.710676,0.004154365,-0.347724,1.697518,-0.1652679,0.1667214,1.698284,-0.08072584,-0.3391987,1.658962,-0.2032618,-0.07071267,1.688367,0.223357,-0.1079005,1.61993,NA,NA,NotTracked,Open,
0.9594727,-0.2626953,0.1450195,0.07373047,0.8999023,0.3618164,-2,-1,0,0,-2,1,2,0,-86,7,-8,-4,-6,-9,-12,-71,-1.4375,-1.4375,-1.4375,-4.5625,-4.5625,-4.5625,3.255401,2.950512,9.008416,6.918292,4.85119,4.615474,-0.1646497,-0.4209344,1.60273,0.1927909,-0.02007449,1.454558,0.0157146,0.4505257,1.681887,-0.2063545,-0.4174042,1.600566,0.2421306,0.02981936,1.435794,0.01049758,-0.02316567,1.71077,0.004136068,-0.3478055,1.697673,-0.1654705,0.1665497,1.69827,-0.08072934,-0.3392886,1.659062,-0.2032951,-0.07077909,1.688412,0.2237287,-0.1086046,1.61995,NA,NA,NotTracked,Open,
0.9570313,-0.2490234,0.1308594,0.09277344,0.8759766,0.3442383,1,-1,-1,-2,-1,2,9,0,-3,4,7,3,0,5,4,-1,-0.375,-0.375,-0.375,-5.9375,-5.9375,-5.9375,3.260296,2.948929,9.005827,6.913678,4.825513,4.616125,-0.1642717,-0.4173391,1.602682,0.1927162,-0.02259319,1.452731,0.01564844,0.4505444,1.681834,-0.2082942,-0.42045,1.604686,0.24236,0.02183047,1.433477,0.01036473,-0.02316903,1.710836,0.00409248,-0.3478281,1.697745,-0.1656306,0.1664792,1.698261,-0.08076292,-0.3393099,1.65911,-0.2034641,-0.0707119,1.688398,0.2241603,-0.1089585,1.620789,NA,NA,NotTracked,Open,
0.956543,-0.2529297,0.1323242,0.1835938,1.033691,0.4101563,-1,-1,-1,-1,0,-5,-5,-2,-11,-5,0,-2,4,7,-1,-9,-0.25,-0.25,-0.25,-3.6875,-3.6875,-3.6875,3.260296,2.948929,9.005827,6.901591,4.783987,4.610833,-0.1641381,-0.4138951,1.604135,0.1906606,-0.03914779,1.444158,0.01560604,0.4505782,1.681808,-0.2048197,-0.3954365,1.606,0.2340458,-0.00671681,1.403905,0.01032993,-0.02321606,1.710838,0.004014033,-0.3479263,1.697788,-0.1656321,0.166445,1.698229,-0.08084478,-0.3393971,1.659123,-0.2035156,-0.07068329,1.688395,0.2250394,-0.1118108,1.621875,NA,NA,NotTracked,Open,
