ALX,ALY,ALZ,ARX,ARY,ARZ,EMG0L,EMG1L,EMG2L,EMG3L,EMG4L,EMG5L,EMG6L,EMG7L,EMG0R,EMG1R,EMG2R,EMG3R,EMG4R,EMG5R,EMG6R,EMG7R,GLX,GLY,GLZ,GRX,GRY,GRZ,ORL,OPL,OYL,ORR,OPR,OYR,LHNX,LHNY,LHNZ,RHNX,RHNY,RHNZ,HX,HY,HZ,LTX,LTY,LTZ,RTX,RTY,RTZ,SpineMidX,SpineMidY,SpineMidZ,SpineBaseX,SpineBaseY,SpineBaseZ,ShoulderLeftX,ShoulderLeftY,ShoulderLeftZ,ShoulderRightX,ShoulderRightY,ShoulderRightZ,ElbowLeftX,ElbowLeftY,ElbowLeftZ,ElbowRightX,ElbowRightY,ElbowRightZ,Myo_Pose_left,Myo_Pose_Right,Kinect_pose_left,Kinect_pose_right
0.9638672,-0.2290039,0.1342773,0.925293,0.2573242,0.1704102,1,0,-2,-1,-2,0,-2,-1,0,0,0,-1,-3,0,0,0,0.3125,0.3125,0.3125,-0.75,-0.75,-0.75,3.37193,2.937119,7.339342,6.563215,3.013885,3.954914,-0.1212399,-0.409303,1.599368,0.1776619,-0.3804517,1.609003,0.04250479,0.4487846,1.683477,-0.08230302,-0.4006339,1.582443,0.1363714,-0.3840563,1.584865,0.0351138,-0.02384431,1.718473,0.03635657,-0.3493661,1.707259,-0.1466967,0.1630753,1.694852,-0.05004939,-0.3408073,1.662105,-0.1808195,-0.07585809,1.667271,0.2432664,-0.0819744,1.709631,NA,NA,NotTracked,Unknown,
0.9594727,-0.2324219,0.1401367,0.9277344,0.2529297,0.1674805,-4,-2,0,1,-1,0,-1,-1,-1,-3,-2,-14,-5,-2,-2,0,-0.75,-0.75,-0.75,-0.1875,-0.1875,-0.1875,3.37193,2.937119,7.339342,6.563828,3.013416,3.954362,-0.1209342,-0.4090514,1.599469,0.1768349,-0.3835101,1.608557,0.04258905,0.4488138,1.68365,-0.07941482,-0.3890922,1.594944,0.131404,-0.3870664,1.58772,0.03522997,-0.0239013,1.718678,0.03643593,-0.3494093,1.707342,-0.1466289,0.1629471,1.694417,-0.04996119,-0.3408375,1.662192,-0.1805999,-0.0761707,1.667304,0.2433534,-0.08208215,1.709896,NA,NA,NotTracked,Unknown,
0.9628906,-0.2299805,0.1381836,0.9370117,0.2558594,0.171875,-2,-1,1,-1,0,-1,-1,0,-1,0,0,22,2,1,0,0,0.8125,0.8125,0.8125,0.1875,0.1875,0.1875,3.371907,2.937586,7.339324,6.563215,3.013885,3.954914,-0.1208637,-0.4095544,1.599176,0.1756802,-0.3862855,1.606761,0.04264066,0.4488355,1.683708,-0.08046979,-0.4047171,1.580862,0.1347645,-0.3806091,1.585992,0.03526719,-0.02385875,1.718755,0.03646851,-0.3493803,1.707383,-0.1467738,0.1631953,1.696031,-0.04992002,-0.3407974,1.662219,-0.1805426,-0.07617237,1.667297,0.2434149,-0.08211113,1.709951,NA,NA,NotTracked,Unknown,
0.956543,-0.230957,0.1342773,0.9360352,0.2495117,0.1640625,-2,-2,0,-1,-1,-2,1,-4,0,-2,-2,-13,-3,-3,-2,-1,0.9375,0.9375,0.9375,0.0625,0.0625,0.0625,3.3722,2.937561,7.33992,6.564144,3.013316,3.954532,-0.1207492,-0.4095348,1.598524,0.1754122,-0.3866745,1.606316,0.04266288,0.4488587,1.68371,-0.07984388,-0.4030108,1.581575,0.1322071,-0.3845404,1.586075,0.03530284,-0.02385945,1.718757,0.03651359,-0.3494066,1.70735,-0.1466318,0.1629819,1.695091,-0.04987252,-0.3408478,1.66217,-0.180478,-0.07612555,1.667301,0.2434188,-0.08206623,1.709935,NA,NA,NotTracked,Unknown,
0.9570313,-0.2329102,0.1298828,0.9287109,0.2568359,0.171875,-2,-1,-1,-1,-1,-2,-1,-1,-1,0,-3,-9,-5,0,4,-2,1.3125,1.3125,1.3125,-0.0625,-0.0625,-0.0625,3.371636,2.937714,7.341065,6.564549,3.012726,3.954328,-0.1202904,-0.4089475,1.598301,0.1755198,-0.3868821,1.606048,0.04273505,0.4490062,1.683858,-0.08080612,-0.401764,1.581186,0.1322834,-0.3843216,1.585047,0.03540212,-0.02382736,1.718773,0.03660696,-0.3493771,1.707291,-0.1467848,0.163171,1.696417,-0.04979528,-0.3408121,1.662096,-0.1804473,-0.07603469,1.667282,0.2434309,-0.08209211,1.70995,NA,NA,NotTracked,Unknown,
0.9619141,-0.2285156,0.1401367,0.9355469,0.2529297,0.1645508,0,1,-1,0,0,-1,-1,-1,-1,-1,-1,-12,-2,-1,-2,-2,1.125,1.125,1.125,1.3125,1.3125,1.3125,3.372226,2.937578,7.341908,6.565189,3.010714,3.956443,-0.1203578,-0.4096347,1.597562,0.1754048,-0.3864455,1.605355,0.04275152,0.4490427,1.683936,-0.08124918,-0.4050629,1.576971,0.1310961,-0.3878337,1.584968,0.03542268,-0.02381188,1.718795,0.036666,-0.34942,1.707244,-0.1464889,0.1623223,1.694172,-0.04972135,-0.3408511,1.662042,-0.1803987,-0.07605711,1.667346,0.2434423,-0.08206937,1.709986,NA,NA,NotTracked,Unknown,
0.9614258,-0.2407227,0.1459961,0.9277344,0.2539063,0.1625977,0,0,-1,0,-1,-1,-2,1,-1,-1,2,6,3,-1,1,0,0.0625,0.0625,0.0625,0.75,0.75,0.75,3.372792,2.938286,7.341727,6.566972,3.010092,3.95486,-0.1202026,-0.4095997,1.598058,0.175441,-0.3871115,1.605708,0.04276232,0.4490209,1.684004,-0.08049745,-0.4034926,1.580363,0.1326755,-0.3851805,1.583943,0.0354435,-0.02381272,1.718791,0.03673296,-0.3494008,1.70713,-0.1464785,0.162659,1.694628,-0.04967157,-0.3408272,1.661937,-0.1803487,-0.07606996,1.667295,0.2434842,-0.08204114,1.709946,NA,NA,NotTracked,Unknown,
0.9624023,-0.2260742,0.140625,0.9311523,0.2548828,0.1757813,-4,0,0,-2,-1,-2,-1,-2,1,-1,0,-2,0,1,0,1,0.875,0.875,0.875,0.4375,0.4375,0.4375,3.373703,2.937949,7.341829,6.566367,3.009613,3.955524,-0.1205404,-0.4092182,1.599605,0.1798274,-0.3736764,1.609387,0.04276439,0.4490602,1.684011,-0.08063892,-0.4058868,1.580094,0.14112,-0.347241,1.593678,0.03547629,-0.0238184,1.718784,0.03678024,-0.3494125,1.707096,-0.1462457,0.1627352,1.694768,-0.04961596,-0.3408356,1.661918,-0.1803059,-0.07604573,1.667329,0.243515,-0.08198791,1.709957,NA,NA,NotTracked,Unknown,
0.9550781,-0.2363281,0.140625,0.9267578,0.25,0.1708984,-1,-1,-1,-2,0,-2,-2,0,0,-2,0,-4,0,-1,-2,0,-0.5625,-0.5625,-0.5625,-0.5625,-0.5625,-0.5625,3.373272,2.938081,7.342279,6.56479,3.009434,3.956385,-0.1200546,-0.4095024,1.597682,0.1783799,-0.3802251,1.60648,0.04276295,0.4490652,1.684006,-0.07874169,-0.3977005,1.586854,0.1377303,-0.3840172,1.580028,0.03549098,-0.02383105,1.718713,0.0367947,-0.3494087,1.706999,-0.1463596,0.1630535,1.696036,-0.04960382,-0.3408298,1.661834,-0.1802058,-0.07605814,1.667331,0.2434956,-0.08205524,1.709868,NA,NA,NotTracked,Unknown,
0.9575195,-0.2333984,0.1401367,0.9301758,0.2539063,0.1669922,-3,-1,-1,0,-2,-1,1,1,-2,-1,0,-1,0,-2,-1,2,-1.5,-1.5,-1.5,-1.3125,-1.3125,-1.3125,3.37255,2.93824,7.34213,6.564413,3.008482,3.95486,-0.1198543,-0.409754,1.59803,0.1801132,-0.3730408,1.608372,0.04275935,0.4490677,1.684007,-0.07770678,-0.3931771,1.591412,0.1408202,-0.3462881,1.5913,0.0355074,-0.02384569,1.718634,0.03679712,-0.3493995,1.706979,-0.1465276,0.1633095,1.697104,-0.0495958,-0.3408158,1.661808,-0.180188,-0.07604587,1.667283,0.2435499,-0.08207919,1.709815,NA,NA,NotTracked,Unknown,
0.9599609,-0.230957,0.1386719,0.9306641,0.2539063,0.1689453,-3,0,-2,0,-2,0,0,-4,-2,-1,-2,-3,1,0,0,0,-0.625,-0.625,-0.625,-1.5625,-1.5625,-1.5625,3.370696,2.937843,7.343308,6.561779,3.007776,3.954637,-0.1205709,-0.4098727,1.598525,0.1810175,-0.3728403,1.609074,0.04277176,0.4490466,1.684015,-0.08057066,-0.4035844,1.579652,0.1415677,-0.3427818,1.592368,0.03552725,-0.0238706,1.718647,0.03681126,-0.3494318,1.706985,-0.1463351,0.1628178,1.694959,-0.04956387,-0.3408478,1.661803,-0.1799344,-0.07674755,1.667156,0.2435613,-0.08211663,1.7098,NA,NA,NotTracked,Unknown,
0.9628906,-0.2431641,0.1401367,0.9335938,0.2524414,0.1689453,0,-1,-2,-2,-2,0,-1,-1,0,0,-3,-6,-2,-2,-2,0,-1.3125,-1.3125,-1.3125,-2.5,-2.5,-2.5,3.367852,2.9384,7.34372,6.560988,3.0075,3.954185,-0.1204932,-0.4098743,1.599161,0.1772995,-0.3827401,1.607264,0.0427816,0.4490574,1.684029,-0.07923611,-0.3874438,1.594577,0.134683,-0.3829994,1.586138,0.03560501,-0.02390508,1.718654,0.03698203,-0.3495075,1.706945,-0.1455136,0.1624408,1.692173,-0.04940471,-0.3409377,1.66178,-0.1798072,-0.07642398,1.66726,0.2435928,-0.08213669,1.709815,NA,NA,NotTracked,Unknown,
0.9575195,-0.2314453,0.1347656,0.9272461,0.2568359,0.1713867,-2,-1,1,-1,-1,-1,-1,-1,-1,-2,-1,0,-5,-3,-1,-2,-0.3125,-0.3125,-0.3125,-1.8125,-1.8125,-1.8125,3.366963,2.937889,7.344643,6.560074,3.007999,3.952517,-0.1203593,-0.4097414,1.598073,0.176851,-0.383347,1.606489,0.04279355,0.4490403,1.684042,-0.0803023,-0.4056026,1.578117,0.1350012,-0.3859203,1.582941,0.03564918,-0.02391888,1.718637,0.03707602,-0.3495256,1.706833,-0.1456338,0.1628522,1.692509,-0.04932956,-0.3409823,1.66162,-0.1797768,-0.07638679,1.66727,0.2436208,-0.08212977,1.709805,NA,NA,NotTracked,Unknown,
0.9594727,-0.2353516,0.1328125,0.9428711,0.2543945,0.1699219,2,-3,-1,-1,-3,-1,-1,3,-1,-1,-2,-16,-2,-1,-3,-1,-0.75,-0.75,-0.75,-0.75,-0.75,-0.75,3.364303,2.937889,7.346018,6.5594,3.007897,3.95317,-0.1205391,-0.4094484,1.59867,0.1762458,-0.3856732,1.606892,0.04284985,0.4490551,1.68412,-0.07734574,-0.4034919,1.585189,0.1345717,-0.3860185,1.584149,0.03567994,-0.02393726,1.718699,0.03709419,-0.3495375,1.706869,-0.1459515,0.1631428,1.695045,-0.04932353,-0.3410145,1.661652,-0.1798085,-0.07617047,1.667417,0.2436347,-0.08215951,1.709851,NA,NA,NotTracked,Unknown,
0.9580078,-0.230957,0.1401367,0.9321289,0.246582,0.1738281,-2,-1,0,0,-2,-3,0,-1,0,-1,-1,-11,-3,-3,-2,2,0.625,0.625,0.625,-0.8125,-0.8125,-0.8125,3.364039,2.938311,7.346402,6.558839,3.007599,3.953159,-0.1202412,-0.4099936,1.598939,0.180875,-0.3727995,1.60981,0.04287509,0.4490426,1.684175,-0.07990862,-0.406065,1.57859,0.1416644,-0.3430133,1.593456,0.03571188,-0.02393368,1.71872,0.03710529,-0.3495289,1.706879,-0.1460644,0.1633491,1.696483,-0.0493026,-0.3409899,1.661692,-0.1798535,-0.07583699,1.667511,0.2436135,-0.0822114,1.709868,NA,NA,NotTracked,Unknown,
0.956543,-0.2392578,0.1386719,0.934082,0.2529297,0.1689453,0,0,0,-3,-1,-1,-1,-2,0,-1,1,4,-3,0,-1,0,-0.75,-0.75,-0.75,-0.4375,-0.4375,-0.4375,3.364039,2.938311,7.346402,6.558839,3.007599,3.953159,-0.1207862,-0.4095256,1.599087,0.1770816,-0.3837968,1.607877,0.0429706,0.4490422,1.684328,-0.07976358,-0.4023739,1.582266,0.1372189,-0.3588021,1.589434,0.0357645,-0.02395687,1.718787,0.03713986,-0.3495526,1.706903,-0.1455214,0.1628901,1.693957,-0.04924978,-0.3410086,1.661738,-0.1798292,-0.07580457,1.667531,0.2436054,-0.08221029,1.709931,NA,NA,NotTracked,Unknown,
0.9609375,-0.2333984,0.1376953,0.9331055,0.2490234,0.1655273,0,-1,0,-1,-2,-2,-2,-2,1,-2,-2,-15,-2,-1,-2,-3,0.1875,0.1875,0.1875,0,0,0,3.364039,2.938311,7.346402,6.558995,3.007142,3.9529,-0.1204336,-0.4095424,1.598701,0.176823,-0.3859025,1.607598,0.04303664,0.4490159,1.684488,-0.07994737,-0.4043903,1.580226,0.1382276,-0.3588799,1.592032,0.03581306,-0.02395194,1.718901,0.03714212,-0.3495422,1.706933,-0.1458717,0.1631119,1.696012,-0.04924989,-0.3409936,1.661748,-0.1798343,-0.07573017,1.667668,0.2436524,-0.08219223,1.710067,NA,NA,NotTracked,Unknown,
0.9599609,-0.2412109,0.1376953,0.9335938,0.2607422,0.1650391,0,0,0,-2,-2,-2,-1,1,-1,-1,-1,-14,-3,-1,-1,1,-0.25,-0.25,-0.25,-0.5625,-0.5625,-0.5625,3.364039,2.938311,7.346402,6.559459,3.007124,3.9526,-0.1206039,-0.4092186,1.599223,0.1762923,-0.3857643,1.607688,0.04304294,0.4490249,1.684605,-0.07931518,-0.3881936,1.594544,0.1331244,-0.3876878,1.584907,0.03590689,-0.0239298,1.719015,0.03720336,-0.3495157,1.707043,-0.1460258,0.1633834,1.697372,-0.04918744,-0.340948,1.661843,-0.1798804,-0.07572043,1.667773,0.2436616,-0.08229246,1.710205,NA,NA,NotTracked,NotTracked,
0.9614258,-0.2319336,0.1445313,0.9272461,0.2553711,0.1674805,1,-3,-2,-2,-1,-1,-3,-2,0,0,-1,1,1,-1,0,-2,0.5625,0.5625,0.5625,0.875,0.875,0.875,3.364393,2.938509,7.346635,6.555043,3.007399,3.955731,-0.1201837,-0.4093446,1.600138,0.1768424,-0.384157,1.609092,0.0431283,0.4489516,1.684837,-0.07945207,-0.3996885,1.586124,0.1346569,-0.3776471,1.589458,0.03594096,-0.0239487,1.719208,0.03724338,-0.3495242,1.707163,-0.1462325,0.1635252,1.69833,-0.04916192,-0.3409694,1.661978,-0.1797905,-0.07549079,1.668076,0.2437804,-0.0821386,1.710482,NA,NA,NotTracked,NotTracked,
0.953125,-0.2373047,0.1430664,0.9379883,0.2509766,0.1723633,0,-2,-1,-1,1,-1,1,-1,-2,0,0,5,1,-3,-2,-4,0.3125,0.3125,0.3125,-0.5625,-0.5625,-0.5625,3.363834,2.938663,7.347775,6.555393,3.007579,3.956094,-0.120447,-0.4094306,1.599588,0.1796457,-0.376625,1.609747,0.04318552,0.4489783,1.684994,-0.08025677,-0.4041032,1.580436,0.139415,-0.3558936,1.594073,0.0359705,-0.02397848,1.719308,0.03727246,-0.3495458,1.707215,-0.1459123,0.1635788,1.697348,-0.04914453,-0.3410103,1.662016,-0.1797075,-0.07551575,1.668193,0.2438699,-0.08216324,1.710596,NA,NA,NotTracked,NotTracked,
0.9638672,-0.2387695,0.1420898,0.925293,0.2626953,0.1616211,3,-2,-1,-1,-2,-2,-4,0,0,2,4,39,4,0,-1,2,-0.4375,-0.4375,-0.4375,-0.125,-0.125,-0.125,3.363407,2.938795,7.348219,6.555944,3.007483,3.955522,-0.1200738,-0.4093618,1.59924,0.1776026,-0.3832833,1.608611,0.04324724,0.449021,1.685096,-0.07833702,-0.3888118,1.594509,0.137933,-0.3590606,1.593076,0.03600055,-0.02398201,1.719404,0.03726964,-0.3495363,1.707268,-0.1459966,0.1636609,1.698189,-0.04913884,-0.3409904,1.66208,-0.1794624,-0.07581878,1.668412,0.2438628,-0.08220093,1.710694,NA,NA,NotTracked,NotTracked,
0.9575195,-0.2363281,0.1333008,0.9741211,0.2744141,0.1782227,-3,-1,0,-1,-2,-2,1,-2,0,-6,8,-2,-2,-4,-4,-3,0.625,0.625,0.625,1.5,1.5,1.5,3.363144,2.939216,7.348602,6.557549,3.007548,3.954267,-0.120302,-0.4092232,1.600074,0.1775454,-0.3834641,1.609363,0.04340544,0.4490062,1.685443,-0.07822894,-0.3969066,1.591301,0.1367777,-0.367146,1.592112,0.03604223,-0.02395525,1.719674,0.03728121,-0.3495088,1.707431,-0.1457328,0.1635163,1.697172,-0.04910389,-0.3409635,1.662226,-0.1793035,-0.07597146,1.668703,0.2439585,-0.08218656,1.710978,NA,NA,NotTracked,NotTracked,
0.9750977,-0.2426758,0.1425781,1.568359,0.309082,0.2001953,-1,0,-1,-1,-3,-2,-1,-1,27,-36,-64,11,-44,-17,-3,-12,1.25,1.25,1.25,-163.8125,-163.8125,-163.8125,3.360866,2.940361,7.351494,6.426574,3.208205,3.889294,-0.1201725,-0.4092008,1.600518,0.1795066,-0.3614356,1.600802,0.04342207,0.448982,1.685704,-0.07841171,-0.389724,1.595719,0.1411985,-0.3387427,1.593489,0.03608733,-0.02397851,1.719802,0.03727534,-0.3495244,1.707503,-0.1456595,0.1634075,1.69594,-0.04910684,-0.3409631,1.662274,-0.1791843,-0.07605723,1.668914,0.2446808,-0.08218849,1.71195,NA,NA,NotTracked,Unknown,
0.9624023,-0.206543,0.09814453,0.8979492,1.641113,1.132813,0,-2,-2,-1,0,-1,-1,-3,50,-13,-41,-16,-7,9,8,12,18.5,18.5,18.5,0,0,0,3.357804,2.944947,7.372059,6.421907,3.729769,3.884822,-0.1203317,-0.4093049,1.600144,0.1526532,-0.3026787,1.552235,0.04338484,0.4490147,1.686046,-0.07948908,-0.401137,1.58537,0.1825576,-0.3853486,1.596333,0.03583771,-0.02399238,1.71991,0.03640395,-0.3495604,1.707551,-0.1464199,0.1636046,1.698416,-0.05008337,-0.3408412,1.662245,-0.1792491,-0.07607466,1.669169,0.2477342,-0.07769686,1.719844,NA,NA,NotTracked,Unknown,
0.9570313,-0.2124023,0.1376953,0.003417969,0.5854492,0.847168,0,-2,-1,-3,0,0,-2,0,-18,-13,-34,-17,1,-1,6,-5,-9.8125,-9.8125,-9.8125,-119.25,-119.25,-119.25,3.360692,2.940332,7.377265,6.103819,4.732219,3.787914,-0.1210249,-0.4096259,1.603497,0.1893312,-0.1262179,1.441195,0.04337342,0.4489335,1.686368,-0.07956412,-0.404911,1.586351,0.123985,-0.15804,1.4773,0.03610723,-0.02409192,1.720727,0.03688434,-0.3495578,1.708619,-0.146327,0.1635559,1.69859,-0.04944674,-0.341197,1.663547,-0.1796476,-0.07585032,1.67016,0.2663388,-0.04942941,1.731326,NA,NA,NotTracked,Unknown,
0.9619141,-0.3208008,0.190918,-0.1772461,0.6782227,0.8354492,-1,-1,-1,-1,-1,-3,-2,-1,-20,6,11,-3,0,0,-2,1,-9.75,-9.75,-9.75,-3.125,-3.125,-3.125,3.333682,2.947007,7.376146,6.059417,5.399989,3.724795,-0.1208723,-0.4094359,1.60055,0.2118944,0.0543285,1.406018,0.04364502,0.4487331,1.687114,-0.08127651,-0.4032508,1.582854,0.1873983,0.1212832,1.3985,0.03634542,-0.02405756,1.721718,0.03772517,-0.3492272,1.709941,-0.1462003,0.1635737,1.699359,-0.04824466,-0.3417115,1.666805,-0.179646,-0.07578366,1.670351,0.2228821,-0.07038381,1.667248,NA,NA,NotTracked,Unknown,
0.9794922,-0.2182617,0.1162109,-0.1386719,0.4858398,0.7617188,-1,-2,-1,-1,-2,-1,-2,-4,-36,17,8,4,0,-8,-11,-12,-23,-23,-23,-48.375,-48.375,-48.375,3.31267,2.960602,7.364382,5.994653,5.899366,3.697293,-0.1199185,-0.4084266,1.597987,0.2186686,0.2117633,1.402065,0.0443399,0.448216,1.689452,-0.07858603,-0.3864525,1.594315,0.2474824,0.2642226,1.4274,0.03748636,-0.0242226,1.724192,0.04038578,-0.3497161,1.71187,-0.1458886,0.1637245,1.700605,-0.04646778,-0.3426407,1.668463,-0.1789883,-0.07466401,1.671142,0.2212181,-0.06254809,1.670101,NA,NA,NotTracked,Unknown,
0.9648438,-0.2016602,0.1064453,-0.1816406,0.34375,0.6425781,-1,-1,-1,0,-2,-1,-2,-1,6,-5,2,4,10,2,-4,-9,0.9375,0.9375,0.9375,-7.3125,-7.3125,-7.3125,3.296334,2.974076,7.368474,5.961567,6.346365,3.698372,-0.1190628,-0.4042867,1.595726,0.2193958,0.3118535,1.416691,0.04459594,0.4478457,1.69201,-0.07856767,-0.3952851,1.585499,0.253123,0.3402037,1.418,0.03855016,-0.023209,1.727457,0.04153364,-0.3478918,1.712352,-0.1453731,0.1638466,1.700928,-0.04598511,-0.3410829,1.668708,-0.1786405,-0.07152335,1.672475,0.2773899,0.06653355,1.508761,NA,NA,NotTracked,Unknown,
0.9331055,-0.2348633,0.1259766,-0.4003906,0.2246094,0.4619141,-1,0,0,2,-1,0,-2,-2,35,27,4,-3,1,4,-1,6,15.75,15.75,15.75,-8.375,-8.375,-8.375,3.298464,2.98281,7.387953,5.980752,6.554245,3.738298,-0.1196658,-0.4047422,1.59853,0.2200198,0.3720137,1.437219,0.04442405,0.4464006,1.69644,-0.07677207,-0.3869273,1.593756,0.1532815,0.3677169,1.440652,0.0383865,-0.02301676,1.728669,0.04139779,-0.3476649,1.712466,-0.1456042,0.1640468,1.702089,-0.04657242,-0.3407749,1.66978,-0.1787235,-0.07221153,1.673395,0.2744285,0.139841,1.494973,NA,NA,NotTracked,Open,
0.9477539,-0.253418,0.1435547,-0.5463867,0.2246094,0.3764648,-2,-2,-1,-2,-1,-1,-2,0,17,10,11,42,7,7,2,5,28.625,28.625,28.625,12.75,12.75,12.75,3.310916,2.975686,7.418304,6.023653,6.680093,3.775627,-0.121322,-0.4045508,1.602311,0.2174584,0.3994251,1.450525,0.04428866,0.445665,1.699054,-0.07563824,-0.391117,1.590935,0.1533018,0.396936,1.462591,0.038281,-0.02287778,1.729508,0.04113724,-0.3473669,1.712579,-0.1456875,0.1644391,1.703404,-0.04720778,-0.3405602,1.670827,-0.1785613,-0.07311128,1.674995,0.274863,0.1443686,1.494594,NA,NA,NotTracked,Open,
0.9589844,-0.277832,0.1708984,-0.7260742,0.2226563,0.2973633,-1,-2,-2,-1,-1,2,1,1,16,16,13,-4,8,2,-1,4,21.3125,21.3125,21.3125,-6.625,-6.625,-6.625,3.31501,2.968772,7.458242,6.071559,6.794645,3.835951,-0.1222616,-0.4050039,1.604278,0.2136031,0.4117159,1.461987,0.04369591,0.4453224,1.700456,-0.07863827,-0.3972265,1.586148,0.149279,0.4085783,1.475619,0.0382351,-0.02285292,1.729515,0.04056811,-0.3471319,1.712561,-0.1459076,0.1646957,1.704902,-0.04827899,-0.3405964,1.671987,-0.178544,-0.0743696,1.677473,0.2750358,0.1550869,1.493217,NA,NA,NotTracked,Unknown,
0.9414063,-0.2768555,0.1674805,-0.8422852,0.2392578,0.2626953,-5,-3,-1,0,-1,-1,-2,-2,10,101,11,-12,-4,-2,-1,7,2.4375,2.4375,2.4375,-12.4375,-12.4375,-12.4375,3.322673,2.988173,7.470386,6.058941,6.843637,3.842442,-0.1213641,-0.4052423,1.602515,0.2119196,0.4170114,1.468413,0.04271502,0.4449835,1.702026,-0.07711968,-0.3950432,1.58891,0.1465264,0.4158598,1.491333,0.03818321,-0.02271677,1.729698,0.04014069,-0.3465713,1.712222,-0.1462906,0.1651462,1.707039,-0.04871164,-0.3403271,1.672296,-0.1783872,-0.07528089,1.679187,0.2742478,0.1627933,1.492767,NA,NA,NotTracked,Unknown,
0.9526367,-0.2724609,0.125,-0.8979492,0.2651367,0.2919922,-1,0,1,-1,-1,-1,-2,-1,20,-10,-5,-5,-7,16,8,8,-6.25,-6.25,-6.25,-15.9375,-15.9375,-15.9375,3.30795,2.993327,7.474965,6.016276,6.858154,3.820486,-0.1212031,-0.4052073,1.601315,0.2117111,0.4196835,1.469142,0.04183763,0.4448324,1.703366,-0.07821827,-0.3965614,1.586289,0.2144835,0.3812361,1.52075,0.03814058,-0.02257751,1.729763,0.03986258,-0.3460188,1.711625,-0.1466132,0.1651396,1.708216,-0.04889993,-0.3401391,1.672254,-0.1782442,-0.07539258,1.679905,0.2730478,0.1661175,1.491138,NA,NA,NotTracked,Unknown,
0.9560547,-0.2607422,0.1308594,-0.9228516,0.2578125,0.3173828,-2,-1,-1,0,-1,-1,-1,-3,35,12,9,49,0,-6,1,5,4.125,4.125,4.125,1.9375,1.9375,1.9375,3.300639,2.994794,7.484769,5.971869,6.850044,3.783406,-0.1211199,-0.4055313,1.601291,0.2112573,0.4200458,1.467873,0.0412308,0.4449037,1.704381,-0.07805015,-0.3942894,1.58834,0.1505029,0.4149214,1.487753,0.03812893,-0.02254933,1.729714,0.03964823,-0.3458186,1.711243,-0.1467744,0.1651925,1.709018,-0.04906706,-0.3401055,1.672281,-0.1781859,-0.07553408,1.680537,0.2721841,0.1690745,1.489455,NA,NA,NotTracked,Open,
0.9443359,-0.2612305,0.1425781,-0.9082031,0.2124023,0.3330078,-1,0,-1,0,1,-1,-1,-2,-7,-5,2,-14,-1,3,0,-3,6.3125,6.3125,6.3125,2.25,2.25,2.25,3.30226,2.994311,7.494749,5.936758,6.838901,3.747098,-0.1214629,-0.4050494,1.601994,0.211422,0.4194543,1.466027,0.04085335,0.4449515,1.705105,-0.07792787,-0.3946577,1.588383,0.1505434,0.4147731,1.487924,0.03801678,-0.0224341,1.72985,0.03933981,-0.3455679,1.710977,-0.1468741,0.1652548,1.709718,-0.04942182,-0.339951,1.672425,-0.1779259,-0.07602005,1.681519,0.2719886,0.170775,1.488162,NA,NA,NotTracked,Unknown,
0.953125,-0.2636719,0.1450195,-0.9946289,0.1904297,0.2182617,-1,-1,0,-1,0,-2,-2,-2,-11,-9,0,-2,-3,-6,8,-3,-0.5,-0.5,-0.5,-0.1875,-0.1875,-0.1875,3.304138,2.993186,7.496998,5.894019,6.824629,3.698592,-0.1216227,-0.4048205,1.60254,0.2128002,0.416426,1.4595,0.04058737,0.4449092,1.705675,-0.0773148,-0.3938339,1.589031,0.1590036,0.4104795,1.487213,0.03791655,-0.0224005,1.72978,0.03906903,-0.3455194,1.71086,-0.1469335,0.1652863,1.71022,-0.04982901,-0.3400034,1.672773,-0.1777684,-0.07639423,1.682194,0.2717788,0.1710417,1.487496,NA,NA,NotTracked,Unknown,
0.9501953,-0.2739258,0.1459961,-1.269043,0.09472656,0.1347656,0,0,-1,-2,0,0,5,0,22,-2,0,67,-21,-10,-2,-1,1.9375,1.9375,1.9375,-3.9375,-3.9375,-3.9375,3.300735,2.994823,7.499722,5.72025,6.675725,3.526497,-0.1215416,-0.4052881,1.602097,0.2072608,0.444063,1.444868,0.04037995,0.4451091,1.706126,-0.07841134,-0.3960325,1.586668,0.1593416,0.4455038,1.426167,0.03772103,-0.02235078,1.729733,0.03880233,-0.3455403,1.710774,-0.1470382,0.1652303,1.710591,-0.05023418,-0.3401442,1.673108,-0.1773705,-0.07760847,1.682788,0.2715773,0.1674972,1.483418,NA,NA,NotTracked,Unknown,
0.9536133,-0.2817383,0.152832,-1.093262,0.152832,0.3515625,-1,-2,0,-1,0,-1,-1,-2,-5,14,4,-58,-20,-5,7,14,4.8125,4.8125,4.8125,43.0625,43.0625,43.0625,3.294057,3.001759,7.513289,5.701232,6.479472,3.460906,-0.1211849,-0.4049675,1.601304,0.2541535,0.3742001,1.361118,0.03994568,0.4458455,1.707222,-0.07806779,-0.3959108,1.587039,0.2096637,0.4073721,1.433111,0.03728101,-0.0223875,1.7298,0.03811348,-0.345867,1.710758,-0.1471777,0.1650361,1.710949,-0.05109668,-0.3406758,1.673861,-0.1771757,-0.07808089,1.683107,0.2729884,0.1605546,1.469264,NA,NA,NotTracked,Unknown,
0.9584961,-0.2612305,0.1279297,-0.4165039,0.5239258,0.6704102,-1,-2,-1,-2,-1,0,1,1,-10,49,-14,-61,-6,0,-8,-24,2.0625,2.0625,2.0625,-38.9375,-38.9375,-38.9375,3.284094,3.010913,7.531141,5.692189,6.08368,3.434836,-0.1218082,-0.4046368,1.600793,0.2719801,0.3528694,1.284605,0.03924773,0.4474329,1.709736,-0.07802473,-0.3912866,1.590176,0.2279702,0.3969365,1.326833,0.03679064,-0.02234663,1.730249,0.03714546,-0.3462144,1.711021,-0.1475355,0.1650522,1.712029,-0.05193318,-0.3409944,1.674599,-0.1772911,-0.07790618,1.683825,0.2765827,0.1640197,1.449943,NA,NA,NotTracked,Unknown,
0.9448242,-0.265625,0.1420898,-0.08544922,0.5292969,0.9135742,0,-1,0,-1,0,2,4,2,-31,-91,-35,-58,-78,-7,3,-24,1.3125,1.3125,1.3125,20.875,20.875,20.875,3.266937,3.0184,7.548619,5.699521,5.650974,3.400069,-0.1223713,-0.4043634,1.60157,0.2823396,0.3276126,1.23893,0.03846914,0.4486348,1.713668,-0.07711051,-0.3855408,1.592918,0.2380501,0.375748,1.2735,0.03616403,-0.02222428,1.730955,0.03636004,-0.3463253,1.711273,-0.147935,0.165098,1.713193,-0.05267954,-0.3410999,1.675466,-0.1785985,-0.07631018,1.685486,0.2774077,0.1626947,1.449379,NA,NA,NotTracked,Closed,
0.9443359,-0.2856445,0.1513672,-0.1772461,0.5004883,0.9868164,-5,-3,0,1,-1,0,22,0,19,-89,-20,4,117,4,10,11,5.25,5.25,5.25,-1.4375,-1.4375,-1.4375,3.26078,3.019342,7.561555,5.69683,5.45606,3.367634,-0.1230071,-0.4048398,1.603459,0.2908819,0.3071845,1.223251,0.03782158,0.4495144,1.716296,-0.07785186,-0.3912649,1.590529,0.2451188,0.3587313,1.250857,0.03564242,-0.02221041,1.731808,0.03571808,-0.3465021,1.711596,-0.1485924,0.1645051,1.715505,-0.05327139,-0.3413638,1.67644,-0.1793593,-0.07570967,1.687316,0.2819708,0.1570296,1.442328,NA,NA,Unknown,Unknown,
0.9394531,-0.2983398,0.1503906,-0.2329102,0.453125,0.9956055,-2,-1,-2,-2,-2,0,2,0,-33,-23,-10,25,6,4,20,10,5.25,5.25,5.25,-10.5625,-10.5625,-10.5625,3.256729,3.0146,7.582124,5.677006,5.410738,3.351671,-0.1241472,-0.4044135,1.605642,0.295247,0.2972745,1.219711,0.03740143,0.4499269,1.717648,-0.07784894,-0.3924513,1.590455,0.2502595,0.3541806,1.261,0.03538065,-0.02213547,1.732111,0.03497159,-0.3465595,1.711717,-0.1488397,0.1639577,1.716808,-0.0538932,-0.3414643,1.677097,-0.1793759,-0.07616876,1.688344,0.2850966,0.152785,1.436627,NA,NA,NotTracked,Unknown,
0.9326172,-0.3198242,0.1665039,-0.2519531,0.4438477,0.9389648,2,-2,-2,-2,-2,-2,-8,-4,-3,4,5,-12,-22,-4,-6,-3,2.1875,2.1875,2.1875,-1.9375,-1.9375,-1.9375,3.250862,3.017053,7.595869,5.669309,5.395782,3.344309,-0.1238362,-0.4042211,1.605525,0.2971282,0.293697,1.218206,0.03730968,0.4503932,1.718391,-0.07799492,-0.3924367,1.590777,0.2534394,0.3460242,1.2447,0.03516594,-0.02207239,1.73235,0.03427097,-0.3467011,1.711825,-0.1488669,0.1636871,1.717623,-0.05449604,-0.3416212,1.677721,-0.1795798,-0.07595193,1.689276,0.2848067,0.1497063,1.439947,NA,NA,Unknown,Unknown,
0.940918,-0.2836914,0.152832,-0.2875977,0.4165039,0.921875,2,1,-1,0,0,-3,2,-1,15,-20,-24,-34,-14,-6,-5,7,-8.6875,-8.6875,-8.6875,0.6875,0.6875,0.6875,3.244965,3.019242,7.593495,5.665224,5.400496,3.343397,-0.1240593,-0.4046449,1.604455,0.2982989,0.2916409,1.217803,0.03737666,0.4505553,1.718736,-0.07864369,-0.3963682,1.587701,0.2523524,0.3425172,1.246797,0.03505779,-0.02211278,1.732479,0.03388971,-0.3468147,1.711844,-0.148882,0.1637158,1.717728,-0.05475408,-0.3417289,1.677987,-0.1795947,-0.0760227,1.689831,0.2841958,0.1487429,1.443173,NA,NA,Unknown,Unknown,
0.9453125,-0.2783203,0.1240234,-0.2680664,0.4077148,0.9125977,-4,-2,-3,-2,-1,0,0,-3,1,-1,-12,-42,-44,-10,-17,-3,-8.0625,-8.0625,-8.0625,4.4375,4.4375,4.4375,3.235474,3.016872,7.587912,5.670299,5.402365,3.344141,-0.1241686,-0.4048243,1.60464,0.2987077,0.2920182,1.217815,0.0374785,0.4507068,1.71901,-0.07947776,-0.393749,1.588742,0.2533001,0.3437611,1.241076,0.03490265,-0.02210483,1.732616,0.0334979,-0.346894,1.711958,-0.1486665,0.1635249,1.718821,-0.05501062,-0.3417968,1.678345,-0.1796278,-0.07564829,1.690292,0.2866879,0.1474997,1.437009,NA,NA,Unknown,Unknown,
