ALX,ALY,ALZ,ARX,ARY,ARZ,EMG0L,EMG1L,EMG2L,EMG3L,EMG4L,EMG5L,EMG6L,EMG7L,EMG0R,EMG1R,EMG2R,EMG3R,EMG4R,EMG5R,EMG6R,EMG7R,GLX,GLY,GLZ,GRX,GRY,GRZ,ORL,OPL,OYL,ORR,OPR,OYR,LHNX,LHNY,LHNZ,RHNX,RHNY,RHNZ,HX,HY,HZ,LTX,LTY,LTZ,RTX,RTY,RTZ,SpineMidX,SpineMidY,SpineMidZ,SpineBaseX,SpineBaseY,SpineBaseZ,ShoulderLeftX,ShoulderLeftY,ShoulderLeftZ,ShoulderRightX,ShoulderRightY,ShoulderRightZ,ElbowLeftX,ElbowLeftY,ElbowLeftZ,ElbowRightX,ElbowRightY,ElbowRightZ,Myo_Pose_left,Myo_Pose_Right,Kinect_pose_left,Kinect_pose_right
0.9697266,-0.1914063,0.09472656,0.9379883,0.1655273,0.2294922,1,-2,-2,-1,-1,-2,-1,-2,0,0,-2,3,6,2,-14,-1,0.3125,0.3125,0.3125,0.5625,0.5625,0.5625,3.223982,2.851539,5.845389,6.031962,2.981904,7.083038,-0.190212,-0.3759592,1.607177,0.144421,-0.3295105,1.613514,-0.03193501,0.4770705,1.656343,-0.2352336,-0.3728516,1.619164,0.1752314,-0.3640439,1.600133,-0.02746549,-0.002303941,1.703233,-0.0270649,-0.336149,1.700501,-0.2073141,0.1915093,1.673655,-0.1082232,-0.3292369,1.657191,-0.2318251,-0.06575336,1.671562,0.173179,-0.05683146,1.710325,NA,NA,NotTracked,NotTracked,
0.9672852,-0.1928711,0.08984375,0.9345703,0.1689453,0.2348633,-2,-2,-1,-2,-2,-1,-2,-1,-1,-3,-1,-6,-9,-5,3,0,0.75,0.75,0.75,-0.1875,-0.1875,-0.1875,3.223034,2.85215,5.846134,6.031495,2.981358,7.084394,-0.1898402,-0.3762213,1.60833,0.1445622,-0.330155,1.614503,-0.03182067,0.4770867,1.656342,-0.2357991,-0.3756806,1.620217,0.1793575,-0.3354958,1.595844,-0.02743131,-0.002306708,1.70326,-0.02707836,-0.3361441,1.700544,-0.207285,0.1914445,1.67389,-0.108234,-0.3292323,1.657226,-0.2318106,-0.06555635,1.671645,0.1732305,-0.05699205,1.710427,NA,NA,NotTracked,NotTracked,
0.9770508,-0.1992188,0.09082031,0.9399414,0.1674805,0.230957,-2,-1,-1,-3,-1,-1,1,-2,0,-1,-1,-4,-3,0,8,-2,-0.875,-0.875,-0.875,-0.5625,-0.5625,-0.5625,3.223637,2.852164,5.844741,6.031211,2.981546,7.08429,-0.1896715,-0.3758534,1.608047,0.1444782,-0.3299454,1.614457,-0.03170691,0.4770616,1.656353,-0.2369144,-0.3838793,1.62675,0.1756873,-0.3646086,1.602571,-0.02736462,-0.002302497,1.703298,-0.02706515,-0.3361422,1.700622,-0.2071775,0.1914577,1.674092,-0.1082333,-0.3292201,1.657325,-0.2317013,-0.06552029,1.671665,0.1732685,-0.05697038,1.7105,NA,NA,NotTracked,NotTracked,
0.9731445,-0.1933594,0.08691406,0.9350586,0.1738281,0.234375,-1,-1,0,-2,-2,0,-1,0,0,-1,0,-1,2,0,0,0,-0.375,-0.375,-0.375,-0.4375,-0.4375,-0.4375,3.222707,2.851521,5.845496,6.031119,2.981226,7.084563,-0.1904414,-0.3754738,1.607456,0.1440345,-0.3297694,1.614302,-0.03153425,0.4769667,1.656434,-0.2367664,-0.3701506,1.623991,0.1813741,-0.332139,1.598733,-0.02734428,-0.00230457,1.703327,-0.02705861,-0.3361479,1.700647,-0.2071081,0.1914394,1.67419,-0.1082299,-0.3292319,1.657349,-0.2315987,-0.06548433,1.671682,0.1733248,-0.05706624,1.710538,NA,NA,NotTracked,NotTracked,
0.9760742,-0.1967773,0.09960938,0.9365234,0.1708984,0.2338867,-3,0,-2,0,-2,-1,0,-1,1,-1,-1,2,0,-1,5,-2,-0.8125,-0.8125,-0.8125,0.5,0.5,0.5,3.222707,2.851521,5.845496,6.030375,2.981592,7.085197,-0.1900219,-0.3755026,1.608182,0.1442807,-0.3299705,1.61465,-0.03133532,0.4769621,1.656483,-0.2352272,-0.3778977,1.620865,0.1770177,-0.3616675,1.60375,-0.02727303,-0.002298459,1.703396,-0.02706505,-0.3361461,1.700724,-0.2070581,0.1914467,1.674312,-0.1082354,-0.3292069,1.657398,-0.2316094,-0.06547038,1.671736,0.1732976,-0.0570792,1.710704,NA,NA,NotTracked,NotTracked,
0.9711914,-0.1972656,0.09277344,0.9365234,0.1757813,0.2348633,0,-3,-2,-1,-2,-1,0,-2,-2,-2,1,1,0,-1,4,0,0.9375,0.9375,0.9375,0.4375,0.4375,0.4375,3.221876,2.851427,5.846364,6.029691,2.981992,7.085246,-0.1896077,-0.3759558,1.609621,0.144227,-0.3300262,1.616046,-0.03115479,0.4769689,1.656532,-0.2351995,-0.375698,1.621556,0.1830291,-0.3278204,1.601174,-0.02714398,-0.002358778,1.703592,-0.02702559,-0.3362019,1.700881,-0.2069247,0.1914639,1.67454,-0.1082072,-0.3292243,1.657481,-0.2315176,-0.06549275,1.671933,0.1733194,-0.05709879,1.710992,NA,NA,NotTracked,NotTracked,
0.9726563,-0.1958008,0.09423828,0.940918,0.1699219,0.2285156,-2,0,-1,0,-1,1,-1,-1,-3,-2,-2,2,3,-1,-1,0,0.5,0.5,0.5,0.9375,0.9375,0.9375,3.22118,2.851297,5.846837,6.030836,2.981223,7.08629,-0.1908529,-0.3757895,1.609795,0.1443661,-0.3302301,1.615782,-0.03097318,0.4770696,1.65666,-0.2346274,-0.3763326,1.619887,0.1754961,-0.3651811,1.6,-0.02709891,-0.002358247,1.703695,-0.02704946,-0.3362193,1.701058,-0.2068234,0.1915223,1.674804,-0.1082359,-0.3292349,1.657621,-0.2315581,-0.06559415,1.672099,0.1733926,-0.0571808,1.711125,NA,NA,NotTracked,NotTracked,
0.9716797,-0.1914063,0.1005859,0.9375,0.1665039,0.2373047,-1,2,-1,-2,1,-1,-2,-2,0,-2,-1,1,-2,2,9,0,0.5625,0.5625,0.5625,0,0,0,3.221045,2.851333,5.847231,6.032569,2.980878,7.086639,-0.1903557,-0.3761723,1.609533,0.1443874,-0.3302688,1.615946,-0.03084696,0.4770775,1.656703,-0.2350753,-0.375102,1.620049,0.1780164,-0.3565028,1.603263,-0.02698017,-0.002394956,1.703839,-0.02696358,-0.3362248,1.70121,-0.2067128,0.1914251,1.67486,-0.1081464,-0.3292234,1.657751,-0.2315062,-0.06565795,1.672314,0.1734303,-0.05688728,1.711387,NA,NA,NotTracked,NotTracked,
0.9707031,-0.1953125,0.09326172,0.9453125,0.1640625,0.2319336,-1,2,-1,-2,1,-1,-2,-2,0,1,0,0,2,-1,4,-1,-0.4375,-0.4375,-0.4375,0.5625,0.5625,0.5625,3.221045,2.851333,5.847231,6.032477,2.980558,7.086912,-0.1897477,-0.3763276,1.610112,0.1469868,-0.3216473,1.618899,-0.03071514,0.4770687,1.656721,-0.2350117,-0.3760504,1.619819,0.1777613,-0.3658738,1.60725,-0.02688708,-0.002393277,1.703958,-0.02695042,-0.3362008,1.701436,-0.2065796,0.1914517,1.675012,-0.1081358,-0.3291796,1.657937,-0.2313903,-0.06573427,1.672439,0.1734619,-0.05690444,1.711465,NA,NA,NotTracked,NotTracked,
0.9726563,-0.1958008,0.09033203,0.9355469,0.1723633,0.2304688,-1,-1,-1,-2,0,-2,-2,-1,-1,-1,-3,1,-2,1,-5,-2,1.75,1.75,1.75,1.25,1.25,1.25,3.222542,2.851195,5.847354,6.032338,2.98018,7.08841,-0.1898575,-0.3760125,1.610155,0.1482196,-0.3240368,1.618008,-0.03058781,0.4770883,1.656776,-0.2362637,-0.3657032,1.623333,0.1819677,-0.3371322,1.60236,-0.02681103,-0.002493013,1.704061,-0.02694051,-0.336299,1.701597,-0.2064411,0.191403,1.67514,-0.1081468,-0.3292515,1.658036,-0.2312449,-0.06590763,1.67265,0.1735864,-0.05704938,1.711616,NA,NA,NotTracked,NotTracked,
0.9736328,-0.1918945,0.08740234,0.9365234,0.1713867,0.2265625,-1,0,-1,-3,-2,-2,-1,-1,-2,-1,-2,1,2,-2,-1,-1,-0.625,-0.625,-0.625,-0.375,-0.375,-0.375,3.222975,2.851628,5.847962,6.033085,2.979715,7.088695,-0.189316,-0.3764052,1.609441,0.1485154,-0.3238553,1.618056,-0.03049191,0.4771076,1.656769,-0.2356902,-0.3737549,1.630865,0.1850656,-0.3112461,1.599412,-0.02676201,-0.002493961,1.704167,-0.02696348,-0.33629,1.701732,-0.20643,0.1913485,1.675265,-0.1081611,-0.329221,1.658117,-0.2312628,-0.06596459,1.672787,0.173719,-0.05722078,1.711708,NA,NA,NotTracked,NotTracked,
0.9790039,-0.1953125,0.09472656,0.9360352,0.1713867,0.2290039,1,0,-2,-2,-2,-1,-1,0,0,-1,1,-7,-5,-2,1,1,0.375,0.375,0.375,0.6875,0.6875,0.6875,3.222649,2.851,5.847324,6.03202,2.979986,7.088914,-0.1895366,-0.3762263,1.608891,0.1484896,-0.3230287,1.616428,-0.03041249,0.477057,1.656659,-0.2354374,-0.374907,1.623733,0.1837292,-0.321442,1.599047,-0.02674547,-0.002498558,1.704175,-0.02695502,-0.3362898,1.701739,-0.2063688,0.1913251,1.675279,-0.1081498,-0.3292235,1.658125,-0.2311817,-0.0659453,1.67279,0.1737747,-0.05725303,1.711694,NA,NA,NotTracked,NotTracked,
0.9702148,-0.1928711,0.09521484,0.9536133,0.1772461,0.2172852,-1,-3,-1,0,0,-2,-1,-3,0,-1,-1,0,-2,0,-1,0,0.625,0.625,0.625,-0.6875,-0.6875,-0.6875,3.22289,2.850769,5.8469,6.033699,2.979796,7.088015,-0.1892474,-0.3759072,1.608516,0.148545,-0.3229128,1.617141,-0.03034054,0.4770875,1.656616,-0.2352423,-0.3699512,1.621791,0.1795048,-0.341668,1.595842,-0.0267036,-0.002498475,1.704175,-0.02695181,-0.3362841,1.701754,-0.2063283,0.1913567,1.675268,-0.1081459,-0.3292161,1.658136,-0.2311277,-0.06588082,1.672674,0.1737934,-0.05713944,1.711762,NA,NA,NotTracked,NotTracked,
0.9755859,-0.1928711,0.1030273,0.9746094,0.1835938,0.1948242,-1,-1,-1,-1,-1,-1,0,-3,6,9,31,16,1,0,1,0,0.8125,0.8125,0.8125,0.9375,0.9375,0.9375,3.22289,2.850769,5.8469,6.037656,2.978792,7.085518,-0.1907327,-0.3755485,1.608902,0.1492019,-0.3227775,1.617102,-0.03024293,0.4770147,1.656577,-0.2341976,-0.3623993,1.6298,0.1819073,-0.3337301,1.59715,-0.02662726,-0.002529159,1.704234,-0.02689132,-0.336297,1.701839,-0.2062801,0.1913346,1.67528,-0.1080772,-0.329227,1.658218,-0.2311414,-0.06568744,1.672686,0.1739712,-0.05691602,1.711844,NA,NA,NotTracked,NotTracked,
0.9755859,-0.1928711,0.1030273,0.9746094,0.1835938,0.1948242,-1,-1,-1,-1,-1,-1,0,-3,6,9,31,16,1,0,1,0,0.8125,0.8125,0.8125,0.9375,0.9375,0.9375,3.22289,2.850769,5.8469,6.037656,2.978792,7.085518,-0.1899302,-0.375819,1.607167,0.1423914,-0.3457884,1.599033,-0.03024927,0.476979,1.656606,-0.2321862,-0.372853,1.607775,0.1775213,-0.3752086,1.592333,-0.02662902,-0.002536723,1.704261,-0.02695274,-0.3362716,1.701762,-0.2062312,0.1913831,1.675293,-0.108189,-0.3292008,1.658084,-0.2311476,-0.06589589,1.672665,0.1752782,-0.05603035,1.713411,NA,NA,NotTracked,NotTracked,
0.9677734,-0.1806641,0.07910156,1.212891,0.7006836,0.5161133,0,-2,-1,0,-3,0,-2,-1,1,11,-36,-10,10,37,-16,-10,10.3125,10.3125,10.3125,29.375,29.375,29.375,3.229787,2.859045,5.866861,6.32192,3.424164,7.030489,-0.1907266,-0.3747284,1.606614,0.1476052,-0.3069185,1.564306,-0.03041643,0.477042,1.656672,-0.2339727,-0.3735238,1.616482,0.1599227,-0.293053,1.523847,-0.02672273,-0.002584496,1.704236,-0.02715633,-0.3363458,1.701638,-0.2063214,0.1914441,1.675397,-0.1083939,-0.3291854,1.657853,-0.2314436,-0.06584483,1.67274,0.1844642,-0.04674379,1.722222,NA,NA,NotTracked,Unknown,
0.9726563,-0.1962891,0.1054688,0.9282227,0.6005859,0.7861328,-2,-2,0,-1,1,0,-1,0,11,15,10,75,10,30,13,-1,4.1875,4.1875,4.1875,-14.125,-14.125,-14.125,3.238262,2.857694,5.867528,6.297323,3.814604,7.045326,-0.1917111,-0.3756059,1.607922,0.1205595,-0.2249393,1.547541,-0.03093718,0.4769494,1.65656,-0.2372327,-0.3758114,1.621059,0.1471641,-0.2065232,1.471104,-0.02719311,-0.002557679,1.70405,-0.0275365,-0.3363718,1.701424,-0.2064966,0.1915356,1.675461,-0.1086874,-0.3291718,1.657541,-0.2317292,-0.06571727,1.672737,0.2228553,-0.04682445,1.703151,NA,NA,NotTracked,Open,
0.9667969,-0.230957,0.1303711,0.2480469,0.668457,0.7294922,-2,1,-2,-1,-2,-2,1,0,-8,-9,-2,-14,-24,-5,-3,-10,-4,-4,-4,19.1875,19.1875,19.1875,3.243583,2.858275,5.860477,6.296123,4.469852,7.093306,-0.1915479,-0.3754886,1.607804,0.1305032,-0.09900581,1.488998,-0.03189009,0.4768262,1.656284,-0.2357706,-0.3801197,1.6139,0.1520626,-0.08627349,1.442729,-0.02738964,-0.00254836,1.70406,-0.02755016,-0.3363474,1.701451,-0.2075902,0.1916397,1.67231,-0.1086828,-0.3291734,1.657541,-0.2319698,-0.06533996,1.672945,0.2524535,-0.005459888,1.696774,NA,NA,NotTracked,Unknown,
0.9736328,-0.1943359,0.1118164,0.09863281,0.6171875,0.6494141,0,-1,-1,-2,-2,-2,-1,-3,-2,-17,-12,-5,-13,-29,-1,6,-7,-7,-7,20.5,20.5,20.5,3.250435,2.860909,5.845145,6.307006,4.936918,7.18773,-0.1922624,-0.3755281,1.607839,0.1062845,0.04642602,1.47819,-0.03285931,0.4766415,1.656051,-0.2382437,-0.3804465,1.622297,0.1315276,0.0293858,1.434696,-0.02744816,-0.002540427,1.70427,-0.02717079,-0.3360127,1.70206,-0.2076434,0.1916013,1.672847,-0.1079849,-0.3289751,1.65876,-0.2321122,-0.06525724,1.672935,0.2577535,0.005693773,1.644427,NA,NA,NotTracked,Unknown,
0.9785156,-0.1914063,0.09228516,-0.2617188,0.5683594,0.5498047,0,-1,-3,0,-4,-1,0,-2,4,-17,-11,-11,-9,7,2,0,-8.25,-8.25,-8.25,82.8125,82.8125,82.8125,3.254978,2.861544,5.825663,6.416272,5.376385,7.329702,-0.1917766,-0.3750888,1.60582,0.07950293,0.152835,1.562594,-0.03428139,0.4763345,1.655425,-0.2380178,-0.3778489,1.622662,0.1520732,0.1603255,1.480482,-0.0276276,-0.002769689,1.704395,-0.02705533,-0.3360993,1.702374,-0.2076982,0.1916007,1.673245,-0.1078975,-0.3293511,1.659379,-0.232325,-0.06492753,1.672751,0.2569351,0.02207035,1.64482,NA,NA,NotTracked,Unknown,
0.9667969,-0.1894531,0.09228516,-0.4287109,0.5419922,0.3901367,-1,-2,-1,-1,-1,-1,-3,-1,-7,28,8,-8,-12,-1,-6,77,3.5625,3.5625,3.5625,71.0625,71.0625,71.0625,3.250909,2.859342,5.822038,6.680792,5.857571,7.520806,-0.1889699,-0.389452,1.60449,0.1323435,0.2326464,1.526317,-0.03590443,0.4759435,1.654927,-0.2368477,-0.3798875,1.616684,0.1372441,0.227967,1.478657,-0.02800527,-0.003282802,1.704618,-0.02750768,-0.3372343,1.702754,-0.2078984,0.1915739,1.673841,-0.1090782,-0.3306282,1.659942,-0.2328965,-0.06474828,1.672646,0.2871027,0.0481066,1.629754,NA,NA,NotTracked,Unknown,
0.9599609,-0.1733398,0.1035156,-0.515625,0.5019531,0.3085938,-2,-1,0,1,-1,-1,-1,-3,21,41,40,13,9,-4,0,-27,9.3125,9.3125,9.3125,71.3125,71.3125,71.3125,3.256743,2.859594,5.826029,6.883829,6.098844,7.661441,-0.189413,-0.3893707,1.606058,0.1577819,0.268892,1.534685,-0.03689494,0.4756287,1.654799,-0.237388,-0.3827939,1.616213,0.182807,0.2800506,1.514906,-0.02842719,-0.001820117,1.705185,-0.02783605,-0.3350706,1.703205,-0.207978,0.1917158,1.674688,-0.1100023,-0.3281536,1.659853,-0.2336893,-0.05972203,1.674037,0.300691,0.07201445,1.616655,NA,NA,NotTracked,Unknown,
0.9790039,-0.1938477,0.1210938,-0.5615234,0.5249023,0.2436523,0,-1,-1,-3,-2,-2,-1,-3,-17,6,-36,-17,-6,7,-6,-4,7,7,7,32.1875,32.1875,32.1875,3.262313,2.860141,5.833034,7.062908,6.261227,7.805351,-0.193177,-0.3685547,1.61034,0.1399744,0.3062317,1.546802,-0.03732239,0.475584,1.654894,-0.2370717,-0.3655051,1.624917,0.06325208,0.2932801,1.57575,-0.02855979,0.001877959,1.705872,-0.02787258,-0.3275417,1.704002,-0.2081208,0.1917477,1.675865,-0.1103606,-0.3204246,1.659554,-0.2337284,-0.05687999,1.674927,0.3040231,0.09088851,1.604911,NA,NA,NotTracked,Unknown,
0.9677734,-0.2182617,0.09912109,-0.6010742,0.5400391,0.1489258,-1,0,0,1,1,1,-3,-1,-2,-43,11,5,4,33,-10,-16,10.25,10.25,10.25,8.3125,8.3125,8.3125,3.270454,2.867006,5.849771,7.148416,6.307485,7.894052,-0.1933443,-0.3648248,1.611922,0.1535039,0.3085946,1.544639,-0.03754571,0.4754974,1.655007,-0.2371763,-0.3742251,1.620946,0.09186838,0.3062589,1.548828,-0.02820511,0.004171416,1.706238,-0.02719407,-0.3237955,1.704318,-0.2080975,0.1917417,1.67717,-0.109837,-0.3168407,1.659453,-0.2336559,-0.05406694,1.676351,0.3055075,0.104243,1.593174,NA,NA,NotTracked,Unknown,
0.953125,-0.2041016,0.09960938,-0.6645508,0.6171875,0.1708984,-3,-2,-2,-1,-1,-1,-4,-1,-8,25,-2,-5,-4,1,2,-13,8.3125,8.3125,8.3125,5,5,5,3.273447,2.869606,5.857418,7.20268,6.31813,7.95659,-0.1938563,-0.3612759,1.614316,0.0404075,0.4368569,1.574964,-0.03786942,0.475296,1.655397,-0.2365441,-0.3749534,1.619193,0.03590391,0.4001083,1.587518,-0.02793471,0.004956634,1.706629,-0.02714159,-0.3225241,1.704448,-0.2080339,0.1918083,1.679017,-0.1098742,-0.3155725,1.659617,-0.2340671,-0.05035941,1.678988,0.3068731,0.1164926,1.581775,NA,NA,NotTracked,Unknown,
0.9765625,-0.2104492,0.1040039,-0.7128906,0.6748047,0.1259766,-4,-2,0,-2,-3,-2,-3,-4,-9,-18,33,16,6,-6,0,-14,2.0625,2.0625,2.0625,-6.0625,-6.0625,-6.0625,3.273039,2.872774,5.868888,7.226937,6.311819,7.990379,-0.1940509,-0.3614148,1.61379,0.1419113,0.3213654,1.54788,-0.03825514,0.4751783,1.655606,-0.2368664,-0.3757375,1.61999,0.1459232,0.2864345,1.5948,-0.02780942,0.005236225,1.706729,-0.02708956,-0.3217221,1.704376,-0.2079843,0.1919288,1.680487,-0.1098754,-0.3147367,1.659724,-0.2336439,-0.05084962,1.679553,0.3070086,0.121682,1.575826,NA,NA,NotTracked,Unknown,
0.9536133,-0.2197266,0.09667969,-0.7207031,0.6660156,0.1230469,0,-1,-1,-1,-1,-1,1,-1,5,-4,-8,-2,-9,1,-1,5,3,3,3,5.5625,5.5625,5.5625,3.269755,2.873719,5.874893,7.243145,6.307089,8.006295,-0.2037916,-0.3258623,1.624713,0.1392945,0.3222505,1.548021,-0.03879898,0.474917,1.655602,-0.2380697,-0.3632147,1.621434,0.07214098,0.3154155,1.5504,-0.02775182,0.00574179,1.706711,-0.02726416,-0.3209478,1.704189,-0.2078869,0.1921557,1.681538,-0.1100993,-0.3140486,1.659665,-0.2332274,-0.04825995,1.68078,0.3070959,0.1253796,1.571682,NA,NA,NotTracked,Unknown,
0.9658203,-0.2124023,0.1152344,-0.7612305,0.6518555,0.1230469,0,-2,-3,-1,-2,-3,-1,-1,6,-24,-10,-7,16,32,-2,5,0.8125,0.8125,0.8125,-1.5,-1.5,-1.5,3.271928,2.875471,5.877586,7.231948,6.312729,7.996684,-0.1950428,-0.3570859,1.614131,0.1394108,0.3225981,1.545089,-0.03972823,0.47483,1.655641,-0.2395636,-0.3562234,1.626905,0.07226344,0.3155776,1.55039,-0.02775747,0.006189262,1.706596,-0.02753031,-0.3203277,1.703767,-0.2078032,0.1922952,1.682084,-0.110394,-0.3135092,1.659456,-0.2330501,-0.04774312,1.681236,0.3071924,0.1276657,1.569425,NA,NA,NotTracked,Unknown,
0.9731445,-0.2182617,0.1147461,-0.7211914,0.6557617,0.1450195,0,0,-1,0,-2,-1,-2,-1,2,25,-6,7,11,21,1,-9,-4.25,-4.25,-4.25,-0.125,-0.125,-0.125,3.267014,2.877053,5.877666,7.224043,6.313367,7.987347,-0.1962773,-0.3570626,1.615249,0.1388285,0.3230682,1.545806,-0.04001811,0.4746754,1.655681,-0.2382918,-0.3605325,1.624085,0.07174049,0.3163168,1.548056,-0.02788149,0.006284674,1.706559,-0.02794046,-0.3201876,1.703359,-0.2083969,0.191825,1.67893,-0.1108559,-0.3133588,1.659145,-0.2329252,-0.04722729,1.681533,0.3076573,0.1292312,1.568629,NA,NA,NotTracked,Unknown,
0.965332,-0.2109375,0.09863281,-0.7324219,0.6743164,0.1279297,1,-1,-2,-1,0,0,-1,0,14,-18,-19,-8,4,-5,1,15,-8.75,-8.75,-8.75,0.25,0.25,0.25,3.258405,2.875904,5.876865,7.226179,6.303351,7.991503,-0.1945639,-0.3567817,1.613669,0.1384578,0.3219993,1.545738,-0.04017302,0.4745421,1.655694,-0.2355538,-0.3813201,1.616643,0.0876456,0.3090403,1.564682,-0.02785327,0.006649238,1.706514,-0.02814271,-0.3196512,1.703042,-0.2083099,0.1917899,1.680362,-0.1110818,-0.3128788,1.658987,-0.2327583,-0.0473808,1.681635,0.3075018,0.1290661,1.568149,NA,NA,NotTracked,Unknown,
0.9667969,-0.1967773,0.09228516,-0.7368164,0.6875,0.1303711,0,1,-2,-1,0,-1,-2,1,12,-19,-3,-1,-10,35,11,-8,-7.25,-7.25,-7.25,3.8125,3.8125,3.8125,3.251188,2.875177,5.875306,7.227668,6.302992,7.987872,-0.1944301,-0.3569627,1.613449,0.1398102,0.3209932,1.545919,-0.04019894,0.4744815,1.655699,-0.2373419,-0.3737727,1.624038,0.1434796,0.289618,1.586,-0.02768629,0.006926895,1.706452,-0.02817096,-0.3193036,1.70298,-0.2081494,0.1918766,1.681008,-0.1111138,-0.312523,1.658958,-0.2325639,-0.04725485,1.681812,0.3076594,0.129047,1.567738,NA,NA,NotTracked,Unknown,
0.9716797,-0.2080078,0.1040039,-0.7490234,0.6567383,0.1142578,-1,-2,-2,-3,-1,0,-1,-1,6,31,16,2,22,23,3,-9,1.375,1.375,1.375,1,1,1,3.245965,2.870623,5.874077,7.227945,6.313303,7.980948,-0.194698,-0.3573163,1.613821,0.140669,0.3207268,1.545851,-0.04015806,0.474458,1.655716,-0.2401468,-0.3663657,1.627591,0.1291096,0.2925525,1.578429,-0.02763725,0.007044921,1.706398,-0.02814745,-0.319093,1.702879,-0.2080664,0.191801,1.68124,-0.11111,-0.3123046,1.658847,-0.2323632,-0.0478787,1.681673,0.3079567,0.1281835,1.568162,NA,NA,NotTracked,Unknown,
0.9682617,-0.2207031,0.1040039,-0.7373047,0.6538086,0.09277344,-1,-1,-1,-1,1,1,0,-1,-6,-8,1,-5,-1,1,9,-11,-0.375,-0.375,-0.375,-2.5625,-2.5625,-2.5625,3.244914,2.870053,5.875835,7.223116,6.314418,7.973864,-0.1948719,-0.3602837,1.612491,0.1113928,0.3402253,1.557044,-0.04014381,0.4743053,1.655545,-0.2388063,-0.3561382,1.625474,0.04977916,0.3047083,1.575167,-0.02762125,0.007099967,1.70636,-0.02822235,-0.3191977,1.702775,-0.2079932,0.191763,1.681463,-0.1112568,-0.3123508,1.658672,-0.2320905,-0.04887212,1.681445,0.3081146,0.1294822,1.568131,NA,NA,NotTracked,Unknown,
0.9672852,-0.1982422,0.1079102,-0.7226563,0.6625977,0.08105469,-4,-2,-2,-1,-2,-1,0,-2,-11,-1,9,0,-7,-19,-5,-20,-1.5,-1.5,-1.5,-1.5625,-1.5625,-1.5625,3.241724,2.871562,5.876472,7.208374,6.312746,7.951102,-0.1964012,-0.3606758,1.613475,0.1393335,0.3234801,1.547238,-0.04010657,0.4742604,1.655489,-0.2380275,-0.3638993,1.624026,0.07898746,0.3133961,1.549828,-0.02757928,0.007240904,1.706365,-0.02816577,-0.3190367,1.702746,-0.2079204,0.1918158,1.681844,-0.1112046,-0.3121836,1.658616,-0.2318997,-0.0492008,1.68135,0.3083837,0.1292453,1.567474,NA,NA,NotTracked,Unknown,
0.9648438,-0.1977539,0.09814453,-0.7158203,0.6831055,0.02636719,-2,-3,-1,-1,-2,-3,-1,-3,13,25,9,11,0,-12,0,20,1.5625,1.5625,1.5625,0.6875,0.6875,0.6875,3.24468,2.871089,5.874441,7.138743,6.276803,7.848048,-0.1951186,-0.360441,1.613287,0.143439,0.3211205,1.541589,-0.04002561,0.4742045,1.655509,-0.2412397,-0.3546476,1.632917,0.1519046,0.286409,1.580875,-0.02760816,0.007201662,1.70638,-0.02831692,-0.3193648,1.7027,-0.2087205,0.1916453,1.674436,-0.1113562,-0.3124301,1.658553,-0.2320927,-0.04851644,1.681545,0.3094221,0.1301328,1.568878,NA,NA,NotTracked,Unknown,
0.9648438,-0.1977539,0.09814453,-0.7158203,0.6831055,0.02636719,-2,-3,-1,-1,-2,-3,-1,-3,13,25,9,11,0,-12,0,20,1.5625,1.5625,1.5625,0.6875,0.6875,0.6875,3.24468,2.871089,5.874441,7.138743,6.276803,7.848048,-0.1952343,-0.3605817,1.612697,0.1547068,0.3149697,1.522318,-0.04039188,0.4743159,1.655563,-0.2391939,-0.3819092,1.6342,0.0765699,0.3107694,1.512,-0.02839372,0.006728036,1.705467,-0.02859892,-0.3198257,1.70252,-0.2089759,0.1914899,1.675601,-0.1116565,-0.3128012,1.658355,-0.2320418,-0.04935741,1.681423,0.3106729,0.1298653,1.571069,NA,NA,NotTracked,Unknown,
0.9697266,-0.2006836,0.1010742,-0.7763672,0.7543945,0.08886719,-2,-2,0,-1,-2,-1,1,-1,2,32,28,3,-21,0,8,-41,12.9375,12.9375,12.9375,80.5,80.5,80.5,3.263254,2.876816,5.890274,6.946826,6.080394,7.413537,-0.1954861,-0.3602782,1.612199,0.1694665,0.3105482,1.491323,-0.04198749,0.4749145,1.656181,-0.2387712,-0.3722554,1.630023,0.09424283,0.2883069,1.477129,-0.02876431,0.006554788,1.705029,-0.02858111,-0.320092,1.702393,-0.2097737,0.1915507,1.67911,-0.1117065,-0.3130958,1.658175,-0.2322171,-0.04943991,1.681514,0.3125323,0.1315485,1.572436,NA,NA,NotTracked,Unknown,
0.9624023,-0.2016602,0.1088867,-0.5302734,0.7504883,0.3671875,0,0,-3,-1,-1,0,-1,-1,6,-1,-1,2,-16,22,8,14,10.8125,10.8125,10.8125,143.25,143.25,143.25,3.277467,2.882863,5.897199,6.99026,6.040286,7.058135,-0.1879109,-0.391846,1.60565,0.1954998,0.2976225,1.428971,-0.04364896,0.4753982,1.657289,-0.2374685,-0.3884596,1.619214,0.2157094,0.2838321,1.390274,-0.02974463,0.00478519,1.703986,-0.02869656,-0.3236201,1.70201,-0.2108667,0.191718,1.682307,-0.111647,-0.3166782,1.657978,-0.232117,-0.05264854,1.68228,0.3174631,0.1407859,1.574293,NA,NA,NotTracked,Unknown,
0.9760742,-0.222168,0.1201172,-0.184082,0.6967773,0.5463867,0,-2,0,0,-1,1,0,5,-72,-14,-17,-4,1,15,4,-50,2.9375,2.9375,2.9375,-80.3125,-80.3125,-80.3125,3.279828,2.888818,5.903141,6.846217,5.724283,6.813508,-0.1917071,-0.375885,1.610204,0.2346745,0.2903568,1.382648,-0.04568806,0.4756927,1.659123,-0.2344417,-0.3884796,1.607867,0.1696642,0.2397744,1.342853,-0.03067422,0.002612388,1.705319,-0.02965434,-0.327971,1.702506,-0.2119327,0.1914929,1.67721,-0.112173,-0.3214533,1.659076,-0.2333199,-0.05772174,1.683178,0.3270599,0.145446,1.578158,NA,NA,NotTracked,Unknown,
0.9804688,-0.2216797,0.1201172,-0.3515625,0.1782227,-0.1723633,0,1,0,0,0,0,-2,-2,19,-20,-11,9,7,-6,-7,53,0.5625,0.5625,0.5625,140.75,140.75,140.75,3.274176,2.894526,5.913704,6.89775,5.759466,6.588155,-0.1957093,-0.3691142,1.610814,0.2824756,0.2858839,1.328978,-0.04675866,0.4760593,1.660421,-0.2404235,-0.3839142,1.62344,0.2864507,0.2423946,1.289556,-0.03135095,0.00124999,1.706183,-0.0305164,-0.3303227,1.702713,-0.2123687,0.191419,1.675426,-0.1129461,-0.3238247,1.659895,-0.2338953,-0.05927927,1.683505,0.3718278,0.1240019,1.588887,NA,NA,NotTracked,Lasso,
0.987793,-0.2294922,0.1274414,-0.5244141,1.875488,0.7285156,0,-2,3,-1,-2,-2,0,0,42,-16,-7,-2,-12,53,-28,7,-1.125,-1.125,-1.125,63,63,63,3.269896,2.896427,5.917641,7.001849,5.617964,6.487666,-0.1893404,-0.3915032,1.607485,0.3125759,0.2821711,1.317476,-0.04756615,0.476434,1.661651,-0.2376013,-0.3825572,1.616118,0.2856899,0.2217911,1.264393,-0.03174478,0.0003690106,1.707108,-0.03085263,-0.3316818,1.703081,-0.213832,0.1914371,1.683998,-0.113424,-0.3252028,1.660517,-0.2340863,-0.06002904,1.683854,0.3702832,0.1250902,1.590694,NA,NA,NotTracked,Unknown,
0.9892578,-0.2070313,0.1328125,-0.6289063,1.052246,0.2880859,-1,-3,10,-2,1,-1,-2,-5,2,25,-9,-6,14,-11,-12,-24,-1.6875,-1.6875,-1.6875,176.375,176.375,176.375,3.259156,2.897228,5.927034,6.811943,5.571465,6.314742,-0.1937034,-0.3693216,1.611517,0.3385929,0.287874,1.292253,-0.04765991,0.4767869,1.662826,-0.2396479,-0.3624763,1.620369,0.3269808,0.2220554,1.2412,-0.03179111,0.0001330277,1.707528,-0.03086989,-0.3319377,1.70322,-0.2137725,0.1913997,1.687321,-0.113452,-0.325447,1.660879,-0.2341058,-0.0608826,1.684083,0.3650453,0.1352486,1.589748,NA,NA,NotTracked,Lasso,
0.9584961,-0.237793,0.09814453,-0.4296875,0.5625,0.4780273,0,-1,-2,0,-2,-1,-1,1,3,5,7,7,52,77,16,4,-1.5625,-1.5625,-1.5625,-40.9375,-40.9375,-40.9375,3.23017,2.894152,5.95255,6.780854,5.489594,6.296615,-0.193331,-0.3690244,1.612198,0.3489958,0.2820519,1.288631,-0.04749482,0.476828,1.663587,-0.2386211,-0.3603565,1.621625,0.3305316,0.218956,1.243429,-0.03169674,1.426819E-05,1.707823,-0.03087252,-0.3320569,1.703231,-0.2135205,0.1914842,1.688597,-0.113441,-0.3255024,1.660959,-0.2340536,-0.06119106,1.684248,0.3617134,0.145468,1.590104,NA,NA,NotTracked,Lasso,
0.9667969,-0.1992188,0.1166992,-0.199707,0.8696289,0.421875,-1,-1,-1,1,-1,1,-1,-3,-7,8,4,11,13,-4,-42,-15,-2,-2,-2,21.1875,21.1875,21.1875,3.228905,2.895741,5.967434,6.793134,5.481558,6.287279,-0.1935485,-0.3699814,1.612318,0.3508923,0.2844711,1.28609,-0.04717352,0.4769269,1.663826,-0.2409012,-0.3791543,1.626957,0.3314588,0.2194247,1.237833,-0.03161219,-9.958508E-05,1.707918,-0.03094359,-0.3322293,1.703211,-0.2130122,0.1916428,1.689964,-0.1135038,-0.3256243,1.661102,-0.2339346,-0.06143746,1.684441,0.3609205,0.149178,1.588956,NA,NA,NotTracked,Lasso,
0.9682617,-0.2373047,0.1049805,-0.2866211,0.8491211,0.4077148,-1,-1,-2,-1,0,-3,-3,1,8,14,4,-27,-26,5,-1,-7,5.625,5.625,5.625,3.3125,3.3125,3.3125,3.218791,2.895352,5.977675,6.799416,5.484751,6.295144,-0.1915963,-0.3698043,1.612436,0.3508305,0.2821327,1.284557,-0.04677637,0.4770242,1.663981,-0.2374132,-0.383195,1.6191,0.3295822,0.2191825,1.24181,-0.03152062,-0.0001893052,1.708025,-0.03096528,-0.3323389,1.703156,-0.2122123,0.1918888,1.691124,-0.1135169,-0.3256612,1.661225,-0.2335244,-0.06174714,1.684975,0.3609624,0.1507312,1.588905,NA,NA,NotTracked,Lasso,
