ALX,ALY,ALZ,ARX,ARY,ARZ,EMG0L,EMG1L,EMG2L,EMG3L,EMG4L,EMG5L,EMG6L,EMG7L,EMG0R,EMG1R,EMG2R,EMG3R,EMG4R,EMG5R,EMG6R,EMG7R,GLX,GLY,GLZ,GRX,GRY,GRZ,ORL,OPL,OYL,ORR,OPR,OYR,LHNX,LHNY,LHNZ,RHNX,RHNY,RHNZ,HX,HY,HZ,LTX,LTY,LTZ,RTX,RTY,RTZ,SpineMidX,SpineMidY,SpineMidZ,SpineBaseX,SpineBaseY,SpineBaseZ,ShoulderLeftX,ShoulderLeftY,ShoulderLeftZ,ShoulderRightX,ShoulderRightY,ShoulderRightZ,ElbowLeftX,ElbowLeftY,ElbowLeftZ,ElbowRightX,ElbowRightY,ElbowRightZ,Myo_Pose_left,Myo_Pose_Right,Kinect_pose_left,Kinect_pose_right
0.9677734,-0.2294922,0.08105469,0.9443359,0.1171875,0.2446289,-1,-1,0,-1,-1,0,-2,0,-1,0,-1,-3,-1,-6,-1,-1,0.375,0.375,0.375,0.5,0.5,0.5,3.052781,2.88847,5.502557,5.72633,2.938946,6.166744,-0.1837311,-0.3660951,1.608282,0.1480278,-0.3704766,1.59504,-0.009281235,0.4833777,1.658945,-0.2295732,-0.3604178,1.618798,0.1874815,-0.3920733,1.573856,-0.01076484,0.001595107,1.700955,-0.01626198,-0.3326235,1.700713,-0.1858049,0.1994146,1.682612,-0.09802741,-0.3254353,1.659983,-0.2161602,-0.05953382,1.682312,0.1854704,-0.06014698,1.701576,NA,NA,NotTracked,NotTracked,
0.9663086,-0.2265625,0.07958984,0.9462891,0.1108398,0.2368164,-1,-3,-3,-1,-2,-2,-1,0,-1,-1,-1,-1,1,-2,-2,0,-0.125,-0.125,-0.125,0.4375,0.4375,0.4375,3.051988,2.887913,5.503123,5.725658,2.939236,6.167001,-0.1830065,-0.3694225,1.60716,0.1477582,-0.368254,1.595746,-0.009361754,0.4833884,1.658942,-0.2289985,-0.3716961,1.610801,0.1871091,-0.405214,1.572889,-0.01081423,0.001592581,1.700958,-0.01638933,-0.3326306,1.700679,-0.1858206,0.1994398,1.682644,-0.09812993,-0.3254236,1.659954,-0.2161774,-0.0595501,1.682322,0.1854128,-0.06006195,1.701586,NA,NA,NotTracked,NotTracked,
0.9667969,-0.2255859,0.07324219,0.9477539,0.1152344,0.230957,-1,-1,-2,-1,-1,-2,-2,-2,-1,-1,-2,-2,-1,1,1,-1,1.1875,1.1875,1.1875,0.5,0.5,0.5,3.051474,2.888442,5.504469,5.725149,2.938828,6.167794,-0.1837456,-0.3657682,1.607697,0.1477962,-0.3680976,1.59489,-0.009452094,0.4833541,1.659008,-0.2268885,-0.3744573,1.608039,0.1869699,-0.3836971,1.573625,-0.0108215,0.001583202,1.700959,-0.01643959,-0.33266,1.700668,-0.1858663,0.199429,1.682657,-0.0981741,-0.3254452,1.659943,-0.2162967,-0.05960655,1.682269,0.1853962,-0.06006019,1.701576,NA,NA,NotTracked,NotTracked,
0.9707031,-0.2280273,0.08154297,0.9453125,0.1113281,0.230957,0,-2,-2,-1,-2,0,-3,0,1,-2,1,0,-1,-3,-1,-1,-0.5,-0.5,-0.5,-0.1875,-0.1875,-0.1875,3.051111,2.888933,5.504959,5.724167,2.938848,6.168797,-0.1830199,-0.3717873,1.606291,0.1483546,-0.3674023,1.594847,-0.009550149,0.4834008,1.659068,-0.2319221,-0.3572088,1.622923,0.1875058,-0.3892116,1.573919,-0.01094886,0.001590118,1.700964,-0.01651609,-0.3326445,1.700643,-0.1859698,0.1993949,1.682749,-0.09826139,-0.32542,1.659965,-0.2163465,-0.0595931,1.682291,0.1853449,-0.06013363,1.701535,NA,NA,NotTracked,NotTracked,
0.9604492,-0.2275391,0.07763672,0.9438477,0.1162109,0.2436523,-3,-2,0,-1,-2,0,0,-1,0,-1,-1,-2,1,3,-2,0,0.5625,0.5625,0.5625,1,1,1,3.051111,2.888933,5.504959,5.722874,2.938163,6.171861,-0.1831433,-0.3716597,1.607242,0.1483891,-0.3677971,1.595791,-0.0095886,0.4834024,1.659091,-0.2292038,-0.3807713,1.608412,0.186843,-0.406718,1.577909,-0.01104435,0.001625325,1.701008,-0.0165836,-0.3326038,1.700658,-0.1860237,0.1993672,1.682825,-0.0983358,-0.3253503,1.65999,-0.2164845,-0.05940343,1.682496,0.1853257,-0.06006085,1.701575,NA,NA,NotTracked,NotTracked,
0.9707031,-0.2275391,0.08789063,0.940918,0.1166992,0.234375,-2,-3,-2,0,1,-1,-2,1,-4,0,0,-2,1,0,-1,-3,0.1875,0.1875,0.1875,0.25,0.25,0.25,3.051111,2.888933,5.504959,5.724561,2.938604,6.170351,-0.1834387,-0.3715608,1.60796,0.147901,-0.3677619,1.596885,-0.009677621,0.4834223,1.659266,-0.2300082,-0.3720531,1.613452,0.1854509,-0.3786668,1.577498,-0.01111621,0.001575589,1.701052,-0.01666116,-0.3326865,1.7007,-0.1860382,0.199377,1.682925,-0.09842946,-0.3254269,1.660062,-0.2165165,-0.05955313,1.682608,0.1852608,-0.06002915,1.701654,NA,NA,NotTracked,NotTracked,
0.9731445,-0.2280273,0.08203125,0.9467773,0.1210938,0.237793,-3,-1,1,-2,0,0,0,-2,-3,-2,-1,0,-3,-6,0,-3,0.0625,0.0625,0.0625,1.0625,1.0625,1.0625,3.051478,2.888819,5.50613,5.723882,2.938372,6.172259,-0.1835498,-0.3691079,1.608289,0.1478526,-0.3681601,1.59661,-0.009715931,0.4834048,1.659346,-0.2297416,-0.3740554,1.613559,0.1858332,-0.3860416,1.57578,-0.01118247,0.001584111,1.70109,-0.01675753,-0.3327062,1.700691,-0.1860761,0.1993254,1.682988,-0.09855498,-0.325428,1.660006,-0.2165728,-0.05959066,1.682648,0.1851671,-0.06015972,1.701697,NA,NA,NotTracked,NotTracked,
0.9697266,-0.2333984,0.08056641,0.9433594,0.1147461,0.2392578,-1,-3,1,0,-2,-3,-14,-1,-2,3,-4,-2,0,2,9,1,1.0625,1.0625,1.0625,3.3125,3.3125,3.3125,3.050864,2.888888,5.507286,5.725234,2.9392,6.173655,-0.1833941,-0.368824,1.608244,0.1480836,-0.3681848,1.596592,-0.009785221,0.4833727,1.659518,-0.2253534,-0.3755783,1.601083,0.1893329,-0.3980314,1.579,-0.01125337,0.001599668,1.701157,-0.01680529,-0.3326867,1.700745,-0.1860858,0.1993824,1.683207,-0.09859657,-0.325408,1.660037,-0.2166026,-0.05955565,1.682803,0.1851403,-0.06019846,1.701702,NA,NA,NotTracked,NotTracked,
0.9619141,-0.2285156,0.08056641,1.031738,0.1474609,0.1679688,-1,0,-1,0,-2,1,0,0,9,-13,26,17,20,13,9,1,1.5625,1.5625,1.5625,16.8125,16.8125,16.8125,3.049124,2.88992,5.512595,5.803153,2.943701,6.127161,-0.183364,-0.3691036,1.607671,0.1479837,-0.36908,1.59527,-0.009855107,0.4833437,1.65955,-0.2315702,-0.3792779,1.618875,0.187226,-0.4042049,1.5813,-0.01130038,0.001578805,1.701228,-0.01687281,-0.332702,1.700805,-0.1862003,0.1993206,1.683505,-0.09866307,-0.3253942,1.660125,-0.2166415,-0.05956579,1.682873,0.1850138,-0.06022166,1.701759,NA,NA,NotTracked,NotTracked,
0.9736328,-0.2382813,0.08154297,1.163574,0.2583008,0.1367188,-1,-1,-1,-1,0,-4,-13,2,6,-3,11,-10,-55,-82,-3,-7,-0.1875,-0.1875,-0.1875,63,63,63,3.049124,2.88992,5.512595,5.895768,3.006095,6.112164,-0.1836063,-0.3715502,1.608286,0.1463586,-0.3649229,1.590842,-0.01001162,0.4833669,1.659749,-0.2302798,-0.3710588,1.614929,0.182098,-0.3846037,1.56,-0.01133562,0.001594396,1.701261,-0.01716543,-0.3326059,1.700787,-0.1862405,0.1993567,1.683602,-0.09902614,-0.3252463,1.66007,-0.2166114,-0.05959714,1.683097,0.18504,-0.05978414,1.702688,NA,NA,NotTracked,NotTracked,
0.9619141,-0.2294922,0.06640625,1.20166,0.4321289,0.4648438,-1,0,0,-2,-2,-1,-9,0,0,2,-69,-7,35,16,4,6,5.125,5.125,5.125,61.75,61.75,61.75,3.046186,2.893307,5.520908,6.001302,3.313392,6.163353,-0.1828438,-0.3711528,1.607143,0.1436602,-0.3252015,1.576032,-0.01024629,0.4832417,1.659887,-0.2304291,-0.3691216,1.618456,0.1706595,-0.3400578,1.524974,-0.01158093,0.001560146,1.701306,-0.01770321,-0.3326132,1.700699,-0.186728,0.1992843,1.684132,-0.09966957,-0.3251693,1.659958,-0.2167342,-0.05945376,1.683309,0.1891004,-0.05366178,1.710958,NA,NA,NotTracked,NotTracked,
0.9619141,-0.2294922,0.06640625,1.146973,0.534668,0.5952148,-2,-2,-1,-3,-2,-4,-8,-1,-5,-8,-2,-10,38,80,5,-9,5.125,5.125,5.125,57.5,57.5,57.5,3.046186,2.893307,5.520908,6.027171,3.421,6.170729,-0.1835655,-0.3732102,1.606228,0.1254246,-0.2795289,1.557836,-0.01105039,0.4831273,1.66003,-0.2316441,-0.3729109,1.615966,0.1396614,-0.2583651,1.493897,-0.01227969,0.001488723,1.701402,-0.01856242,-0.3326819,1.700518,-0.1871669,0.1992747,1.684742,-0.1004729,-0.3251689,1.659809,-0.2170185,-0.05950369,1.683517,0.2003513,-0.03856418,1.723163,NA,NA,NotTracked,Unknown,
0.96875,-0.2358398,0.08203125,0.5717773,0.5976563,0.7734375,-1,0,-1,0,0,-1,9,-1,-11,-6,32,7,-59,-16,0,-5,5.375,5.375,5.375,30.125,30.125,30.125,3.05794,2.898796,5.534812,6.057134,4.055274,6.195029,-0.1840841,-0.3722727,1.606876,0.08444022,-0.1920742,1.541206,-0.01199512,0.4831919,1.660085,-0.230957,-0.3704796,1.611536,0.1436148,-0.1558059,1.481524,-0.01264863,0.00149156,1.701415,-0.01914853,-0.3326151,1.70034,-0.1874007,0.1993137,1.685149,-0.1008848,-0.3251507,1.659543,-0.2172516,-0.05934114,1.683853,0.2303104,-0.04359556,1.704569,NA,NA,NotTracked,Unknown,
0.9711914,-0.2583008,0.09814453,0.2617188,0.6069336,0.8989258,0,-1,-1,-2,-1,-1,1,-1,-3,5,20,46,-33,-29,-2,5,-0.0625,-0.0625,-0.0625,17.9375,17.9375,17.9375,3.046883,2.897527,5.546926,6.079933,4.532207,6.228673,-0.1846047,-0.3728501,1.607589,0.1247302,-0.06376012,1.517051,-0.01306158,0.483256,1.660322,-0.2313943,-0.3723842,1.615641,0.1806605,-0.05719918,1.495044,-0.01279807,0.001537354,1.701608,-0.01917814,-0.3325525,1.700431,-0.187687,0.1993878,1.6855,-0.100887,-0.3251303,1.659563,-0.2176463,-0.0590222,1.684399,0.2436453,-0.004587068,1.72707,NA,NA,NotTracked,Unknown,
0.9716797,-0.2333984,0.09619141,-0.2504883,0.6040039,0.5410156,-3,-3,-1,-1,-2,-1,-2,-2,7,-6,6,11,0,-8,2,13,-5.6875,-5.6875,-5.6875,72.8125,72.8125,72.8125,3.050422,2.901647,5.538753,6.149627,5.1825,6.314226,-0.1851069,-0.3738082,1.606654,0.07164194,0.08727854,1.534333,-0.01403047,0.4832382,1.660415,-0.2353478,-0.3754745,1.620147,0.122211,0.0740911,1.462529,-0.01316251,0.001611293,1.701843,-0.01928528,-0.3323424,1.70063,-0.187971,0.1995486,1.685801,-0.1008887,-0.3249772,1.660112,-0.2180395,-0.05875703,1.684555,0.256755,-0.005381583,1.644431,NA,NA,NotTracked,Unknown,
0.9638672,-0.2314453,0.07861328,-0.4868164,0.6108398,0.621582,-1,-1,-1,-2,-1,0,-1,-1,15,22,38,16,-1,51,1,27,-5.375,-5.375,-5.375,99.5,99.5,99.5,3.05153,2.904492,5.527434,6.327565,5.628407,6.383868,-0.1862454,-0.3732307,1.606415,0.1145512,0.1720302,1.535567,-0.01529769,0.4829449,1.660729,-0.2334564,-0.3747663,1.614706,0.05917892,0.1443121,1.568533,-0.01365361,0.001376469,1.702263,-0.01947254,-0.3324693,1.700812,-0.1883247,0.1995911,1.686126,-0.1012118,-0.3253658,1.660664,-0.2184416,-0.0584706,1.684773,0.2577309,0.009758858,1.650621,NA,NA,NotTracked,Unknown,
0.9628906,-0.2333984,0.07617188,-0.4633789,0.5019531,0.5693359,0,-1,-1,-2,-1,0,-4,-2,15,13,-16,-8,-13,-13,-1,-19,-7,-7,-7,95.125,95.125,95.125,3.046176,2.905473,5.519717,6.543833,5.972878,6.511622,-0.1850436,-0.3759014,1.604917,0.1495151,0.2330588,1.535975,-0.01657368,0.4827153,1.661027,-0.2334836,-0.3818005,1.608905,0.1092352,0.2154278,1.583,-0.01405099,0.001263782,1.702546,-0.02011266,-0.3327536,1.700933,-0.1884066,0.1997142,1.686356,-0.102299,-0.3257022,1.661007,-0.2188839,-0.05745979,1.68513,0.2838752,0.03262618,1.630483,NA,NA,NotTracked,Unknown,
0.9628906,-0.237793,0.07421875,-0.5439453,0.4902344,0.3349609,-2,-2,-2,0,-1,2,0,-1,7,67,31,7,27,18,3,15,0.6875,0.6875,0.6875,55.1875,55.1875,55.1875,3.040779,2.909062,5.520267,6.881889,6.267287,6.775792,-0.1862753,-0.3704998,1.605349,0.1529998,0.2742559,1.547318,-0.01709142,0.4824082,1.661123,-0.2346978,-0.360996,1.614059,0.08525264,0.2827105,1.5767,-0.01455556,0.003045191,1.703195,-0.02055844,-0.3307605,1.701005,-0.1884984,0.2001065,1.686825,-0.1029673,-0.32347,1.661134,-0.2193062,-0.05563259,1.685527,0.2966136,0.05661666,1.609191,NA,NA,NotTracked,Unknown,
0.96875,-0.2143555,0.08935547,-0.5771484,0.4995117,0.2553711,0,-2,-4,-4,0,1,0,-1,9,24,-4,-5,-16,-4,4,11,5.3125,5.3125,5.3125,39.625,39.625,39.625,3.046105,2.913023,5.519991,7.019083,6.345486,6.903421,-0.1875997,-0.3676439,1.605071,0.1494682,0.2981524,1.554043,-0.01764102,0.4824077,1.661257,-0.2380064,-0.3642707,1.625,0.08014569,0.303648,1.578958,-0.01393586,0.006879745,1.703932,-0.02044131,-0.3255931,1.701068,-0.1883218,0.200516,1.68762,-0.1028979,-0.318214,1.660665,-0.2197768,-0.05171654,1.686584,0.3008555,0.07745443,1.592542,NA,NA,NotTracked,Unknown,
0.9638672,-0.2270508,0.09960938,-0.6577148,0.4960938,0.1430664,-2,-1,-1,-1,-2,-1,-2,-1,16,9,9,5,-12,-14,-2,-2,6.5625,6.5625,6.5625,2,2,2,3.058107,2.920538,5.523535,7.195155,6.429237,7.088604,-0.1873258,-0.36671,1.60671,0.1476736,0.3125111,1.557313,-0.01784367,0.4819552,1.661745,-0.2363154,-0.3598082,1.624625,0.09322741,0.3078777,1.582348,-0.01265393,0.009994212,1.705094,-0.02048031,-0.3217474,1.701396,-0.1874771,0.201068,1.688803,-0.103047,-0.3141738,1.661025,-0.2197019,-0.05053009,1.687628,0.3030778,0.09219677,1.576705,NA,NA,NotTracked,Unknown,
0.965332,-0.234375,0.08496094,-0.7075195,0.5283203,0.1206055,1,-1,1,0,0,-2,-2,-1,-1,-17,-27,-8,-1,-25,-7,9,8.75,8.75,8.75,-12.1875,-12.1875,-12.1875,3.065237,2.921045,5.525469,7.245893,6.45611,7.160848,-0.187524,-0.3675866,1.608488,0.1344706,0.3336526,1.566126,-0.01814707,0.4812922,1.662735,-0.2358391,-0.3826886,1.616,0.08811241,0.3176362,1.589,-0.01189902,0.01150477,1.705681,-0.02078595,-0.3200209,1.701466,-0.1868673,0.2012752,1.690004,-0.1034873,-0.3121523,1.661237,-0.2194089,-0.04924597,1.689185,0.3041721,0.1031341,1.564411,NA,NA,NotTracked,Unknown,
0.9702148,-0.2641602,0.07910156,-0.7397461,0.6118164,0.1318359,0,-1,0,-2,-1,0,-4,-1,-19,-6,22,10,-3,-17,-7,-11,8.3125,8.3125,8.3125,-12.0625,-12.0625,-12.0625,3.068054,2.923004,5.542314,7.248375,6.451414,7.194945,-0.1885676,-0.3676131,1.609828,0.1334255,0.3338344,1.562892,-0.01860181,0.4809622,1.663558,-0.2363938,-0.3699312,1.621886,0.08823366,0.3148493,1.583407,-0.01153592,0.0124463,1.705974,-0.02093829,-0.3187765,1.701491,-0.1859911,0.2016284,1.691529,-0.1036949,-0.3109365,1.661454,-0.219238,-0.04811724,1.690963,0.3031091,0.1061777,1.559273,NA,NA,NotTracked,Unknown,
0.9692383,-0.2661133,0.07568359,-0.7397461,0.6118164,0.1318359,0,-1,0,-2,-1,0,-4,-1,-19,-6,22,10,-3,-17,-7,-11,12.625,12.625,12.625,-12.0625,-12.0625,-12.0625,3.065367,2.926706,5.55816,7.248375,6.451414,7.194945,-0.1891688,-0.3675011,1.610948,0.1363766,0.3219734,1.555548,-0.01895693,0.480453,1.663935,-0.2354994,-0.3629431,1.615032,0.09683921,0.3088974,1.580788,-0.01118441,0.01304388,1.706062,-0.0210954,-0.3181879,1.701386,-0.1853688,0.2019708,1.692634,-0.10394,-0.3101788,1.661445,-0.2192524,-0.04757759,1.692284,0.3017871,0.1103168,1.551953,NA,NA,NotTracked,Unknown,
0.9584961,-0.2587891,0.08935547,-0.8081055,0.6401367,0.109375,-2,-3,-4,-1,0,2,2,-1,46,38,7,2,-4,-16,0,24,6,6,6,-2.6875,-2.6875,-2.6875,3.053931,2.932328,5.599669,7.239963,6.431016,7.217845,-0.1893925,-0.3671975,1.611457,0.1284575,0.3312028,1.560448,-0.01923263,0.4802615,1.664164,-0.2367672,-0.3615569,1.616182,0.1029264,0.3037589,1.583071,-0.01102217,0.01354305,1.706079,-0.02148237,-0.317757,1.701251,-0.1851671,0.2021848,1.693569,-0.1044426,-0.3097273,1.661634,-0.219338,-0.04665166,1.693949,0.3010738,0.1105211,1.549621,NA,NA,NotTracked,Unknown,
0.9575195,-0.2641602,0.105957,-0.7851563,0.6132813,0.1113281,-3,-9,-3,-2,-2,-1,4,-3,-14,-28,-24,-4,-9,-6,-1,-15,0.5625,0.5625,0.5625,0.375,0.375,0.375,3.050043,2.92944,5.608206,7.239574,6.428986,7.217015,-0.1899801,-0.3675694,1.612502,0.1335549,0.32039,1.554683,-0.01974647,0.480127,1.664352,-0.2379627,-0.3670793,1.615551,0.1036799,0.3028145,1.584019,-0.01093225,0.01378258,1.706119,-0.0217065,-0.3174599,1.70117,-0.1850197,0.2022355,1.694116,-0.1047287,-0.3094364,1.661739,-0.2193335,-0.0462903,1.694865,0.3005745,0.1098646,1.549063,NA,NA,NotTracked,Unknown,
0.9614258,-0.2783203,0.09912109,-0.7695313,0.597168,0.1162109,1,3,-1,0,-1,-4,-15,-4,31,47,30,11,33,45,-6,-16,-1.6875,-1.6875,-1.6875,3.3125,3.3125,3.3125,3.047427,2.93009,5.60954,7.238247,6.424134,7.212182,-0.1903517,-0.3681291,1.612253,0.1293231,0.3290042,1.558791,-0.02003909,0.4800309,1.664516,-0.235672,-0.3700619,1.611523,0.1059909,0.3013388,1.585242,-0.01089569,0.01403891,1.706177,-0.02211269,-0.3171998,1.701278,-0.1848038,0.2023467,1.69462,-0.1052389,-0.3091147,1.662072,-0.2193667,-0.04589461,1.695797,0.3005729,0.1095121,1.549115,NA,NA,NotTracked,Unknown,
0.9560547,-0.2641602,0.09326172,-0.7880859,0.6367188,0.1098633,-2,0,-1,-2,-2,-1,-11,1,18,-24,-4,0,23,27,-1,41,-3.6875,-3.6875,-3.6875,2.3125,2.3125,2.3125,3.047765,2.931871,5.604445,7.233174,6.421993,7.204772,-0.1909551,-0.3682614,1.611755,0.133109,0.3195514,1.554093,-0.02013701,0.4799494,1.664521,-0.2378509,-0.3693735,1.613415,0.08135122,0.3111707,1.580222,-0.01088364,0.01418357,1.706161,-0.02235277,-0.3170129,1.701296,-0.184708,0.2023444,1.694797,-0.1054853,-0.3089339,1.662131,-0.2194789,-0.04581637,1.695996,0.3006931,0.1091408,1.54901,NA,NA,NotTracked,Unknown,
0.9580078,-0.2543945,0.08544922,-0.7993164,0.6225586,0.1054688,0,1,-2,-2,-1,0,4,0,-20,7,-9,-13,-30,-27,-3,12,-4.125,-4.125,-4.125,1.3125,1.3125,1.3125,3.045147,2.931662,5.6021,7.231269,6.421565,7.201554,-0.1904107,-0.3679817,1.611163,0.1261905,0.3302236,1.560733,-0.02013991,0.4798931,1.664525,-0.2340104,-0.3718949,1.610143,0.09801628,0.3030569,1.584887,-0.01083071,0.01432883,1.706103,-0.02256888,-0.3167146,1.70132,-0.1846741,0.2023927,1.694846,-0.1057185,-0.3086416,1.662162,-0.2195854,-0.04548107,1.696106,0.3006752,0.1087518,1.549063,NA,NA,NotTracked,Unknown,
0.9624023,-0.2553711,0.08642578,-0.7866211,0.6328125,0.1142578,-1,-1,1,-2,-1,0,-2,-1,-12,-17,-22,-4,-9,-5,3,6,-1.1875,-1.1875,-1.1875,5,5,5,3.0437,2.927558,5.584574,7.229812,6.421698,7.176646,-0.1903918,-0.3680111,1.611209,0.1327522,0.323032,1.556897,-0.02011864,0.4794476,1.664013,-0.2360094,-0.3646737,1.616622,0.08949516,0.3077703,1.578315,-0.01066017,0.01461697,1.705978,-0.02275222,-0.3163306,1.701419,-0.1846547,0.2024214,1.694744,-0.1059285,-0.3083196,1.662258,-0.2195613,-0.04562665,1.696082,0.3010416,0.1090403,1.548692,NA,NA,NotTracked,Unknown,
0.9570313,-0.2421875,0.09326172,-0.7851563,0.6225586,0.09765625,-1,1,0,-1,-2,-1,-1,-2,6,-4,0,1,9,18,0,-1,-2.9375,-2.9375,-2.9375,3.75,3.75,3.75,3.049598,2.926132,5.57549,7.225213,6.413775,7.159022,-0.1902917,-0.3687989,1.609982,0.1275327,0.3312617,1.5598,-0.01996042,0.479234,1.663725,-0.2387305,-0.3833955,1.6221,0.09683346,0.3043081,1.580964,-0.01063894,0.01465627,1.705972,-0.02274251,-0.3161452,1.701483,-0.1844603,0.2024129,1.694518,-0.1059265,-0.3081569,1.662247,-0.2195659,-0.04560714,1.696009,0.3011619,0.1090157,1.549171,NA,NA,NotTracked,Unknown,
0.9677734,-0.2421875,0.09179688,-0.7504883,0.6572266,0.1079102,-2,-1,1,-1,-1,-1,1,-6,-31,-23,-18,-4,40,33,-18,-28,-3.4375,-3.4375,-3.4375,7.875,7.875,7.875,3.05182,2.92475,5.565513,7.22399,6.397638,7.141902,-0.1894593,-0.368303,1.60918,0.1265984,0.3320573,1.558467,-0.01967403,0.4787173,1.66322,-0.237136,-0.3734201,1.618651,0.1038729,0.3022289,1.582281,-0.01058139,0.01469632,1.705905,-0.02272251,-0.3161122,1.701475,-0.1844422,0.2023445,1.694362,-0.105902,-0.3081076,1.662203,-0.2195587,-0.04558183,1.695889,0.3016838,0.1081242,1.550475,NA,NA,NotTracked,Unknown,
0.9702148,-0.2470703,0.07470703,-0.7280273,0.7573242,0.1401367,-2,-1,2,0,-2,-2,-3,-3,24,-1,1,-1,-19,-10,5,5,-0.125,-0.125,-0.125,33.5625,33.5625,33.5625,3.047727,2.926456,5.56677,7.24443,6.401157,7.122791,-0.1901007,-0.3684607,1.609706,0.1319339,0.3304797,1.556337,-0.01954756,0.4784076,1.662872,-0.2355064,-0.3539441,1.613344,0.09250489,0.3091197,1.566613,-0.01033059,0.01487663,1.705718,-0.02264259,-0.3159842,1.701384,-0.1843353,0.2023951,1.694156,-0.1058352,-0.3079699,1.662034,-0.2196068,-0.04524063,1.695537,0.3032431,0.1086493,1.551885,NA,NA,NotTracked,Unknown,
0.9584961,-0.2324219,0.07226563,-0.6611328,0.5913086,-0.06787109,0,1,12,3,0,-1,4,-2,-34,-2,7,-12,77,-1,-42,-40,3.25,3.25,3.25,25.0625,25.0625,25.0625,3.043639,2.928473,5.574118,7.192336,6.48547,6.993297,-0.1909062,-0.3656499,1.609357,0.1559583,0.3404528,1.56163,-0.01956001,0.4784167,1.662672,-0.2356942,-0.3532563,1.615,0.1993896,0.4095974,1.5895,-0.009857295,0.01462622,1.705671,-0.02173348,-0.3155936,1.701099,-0.1843362,0.2023482,1.693976,-0.1049664,-0.3074755,1.661419,-0.219727,-0.04464927,1.695122,0.3056381,0.1078267,1.556457,NA,NA,NotTracked,Unknown,
0.9458008,-0.237793,0.08935547,-0.7680664,0.3720703,0.1123047,-4,-5,13,-2,-2,0,-7,-11,-29,-39,-14,-12,49,79,-1,-57,9.375,9.375,9.375,-23.6875,-23.6875,-23.6875,3.056693,2.928727,5.573198,6.768936,6.468337,6.481174,-0.1916998,-0.3653647,1.609962,0.1902024,0.3412507,1.547776,-0.02011928,0.4787623,1.662707,-0.2369394,-0.3610989,1.613684,0.2434367,0.3723473,1.538827,-0.0136838,0.01106455,1.703853,-0.02139225,-0.3175248,1.700779,-0.1860578,0.2019242,1.694827,-0.1045744,-0.3094277,1.660894,-0.2198394,-0.04456628,1.695007,0.3105961,0.1084675,1.561151,NA,NA,NotTracked,Unknown,
0.9936523,-0.2553711,0.08300781,-0.7241211,0.3686523,0.7099609,-3,-2,-4,-2,-3,-1,-4,7,-2,1,2,15,32,24,30,-11,12.6875,12.6875,12.6875,224.625,224.625,224.625,3.061004,2.929008,5.588256,6.796746,6.275547,6.202277,-0.1919642,-0.365652,1.610756,0.1987842,0.3055937,1.497295,-0.02155722,0.4796211,1.662702,-0.2381074,-0.3405826,1.623945,0.1155955,0.2801729,1.441104,-0.01428787,0.01018946,1.703991,-0.02151973,-0.319528,1.700355,-0.1866139,0.2017599,1.695221,-0.1046268,-0.3112596,1.660203,-0.220398,-0.04643971,1.695237,0.3212924,0.1060591,1.579554,NA,NA,NotTracked,Unknown,
0.9575195,-0.2324219,0.06689453,-0.6542969,0.3735352,0.3178711,2,-2,-1,-1,-1,-2,1,0,49,32,57,27,2,-16,-9,49,26.3125,26.3125,26.3125,-241.625,-241.625,-241.625,3.079372,2.935453,5.608978,6.469491,6.05513,5.994078,-0.1918391,-0.3663425,1.612031,0.2284909,0.2955202,1.486697,-0.02233673,0.4801088,1.66295,-0.2331554,-0.3968701,1.6032,0.1334647,0.2716335,1.4644,-0.01520059,0.008876906,1.704134,-0.02195726,-0.3220731,1.70014,-0.1872981,0.2015164,1.695755,-0.104821,-0.3134264,1.659777,-0.2210214,-0.04839906,1.695857,0.3281856,0.1022888,1.592432,NA,NA,NotTracked,Unknown,
0.9970703,-0.3168945,0.1655273,-0.6225586,0.4194336,0.4033203,1,-1,-3,-1,-1,0,-1,-4,-65,-16,-1,1,-2,18,-21,6,-5,-5,-5,175.375,175.375,175.375,3.091482,2.933871,5.609068,6.455117,5.9881,5.79625,-0.1922101,-0.3663854,1.613608,0.2587846,0.2857412,1.455582,-0.02268549,0.48035,1.663048,-0.2368388,-0.3606937,1.613846,0.1784321,0.2578775,1.408421,-0.01616,0.007051509,1.704237,-0.02281132,-0.3251375,1.700046,-0.1875222,0.2014666,1.696011,-0.1053302,-0.316651,1.659489,-0.2215033,-0.05109574,1.696631,0.3344949,0.08923566,1.61161,NA,NA,NotTracked,Unknown,
0.9951172,-0.328125,0.1279297,-0.8120117,1.227051,0.1791992,-1,-2,-3,-1,-1,-3,-2,-5,24,4,-6,2,-12,-12,7,-18,-3.75,-3.75,-3.75,103.3125,103.3125,103.3125,3.078343,2.932841,5.620416,6.525502,5.912744,5.8111,-0.1884148,-0.3785697,1.610244,0.276597,0.2674962,1.438563,-0.02284348,0.4805491,1.663315,-0.2395195,-0.3841481,1.615187,0.1893785,0.2371892,1.404382,-0.01667487,0.005950936,1.704298,-0.02374573,-0.327024,1.699993,-0.1878799,0.2014838,1.696357,-0.1061557,-0.3183891,1.659214,-0.2220187,-0.05245203,1.696915,0.340106,0.08735295,1.620317,NA,NA,NotTracked,Unknown,
0.9604492,-0.2373047,0.1118164,-0.4824219,0.7973633,0.6494141,-3,1,-2,-1,-2,0,-1,-1,23,14,-3,0,-3,-26,0,7,-12.4375,-12.4375,-12.4375,46.75,46.75,46.75,3.064182,2.936524,5.632329,6.420276,5.712745,5.654212,-0.1913975,-0.3744867,1.610629,0.294633,0.25751,1.430038,-0.02277932,0.4806976,1.663405,-0.2387182,-0.3742123,1.613824,0.2111094,0.2243223,1.389586,-0.01691512,0.005342806,1.704386,-0.02423919,-0.3279122,1.70011,-0.1883422,0.2014753,1.697009,-0.1065748,-0.3191808,1.659206,-0.2223305,-0.05310845,1.697121,0.3447554,0.08658658,1.624516,NA,NA,NotTracked,Unknown,
0.9492188,-0.2358398,0.07714844,-0.5053711,0.6435547,0.6391602,-1,0,1,-1,-1,0,-2,0,-7,1,26,9,18,-5,-4,-15,3.1875,3.1875,3.1875,22.3125,22.3125,22.3125,3.040836,2.93548,5.649073,6.435503,5.675223,5.638752,-0.1903835,-0.3737366,1.610739,0.3004546,0.248997,1.426102,-0.02257063,0.4807687,1.663369,-0.236506,-0.3870544,1.602917,0.2175018,0.2103809,1.390207,-0.01706519,0.004800181,1.704367,-0.02452898,-0.3284541,1.700136,-0.188341,0.2014672,1.69706,-0.1068088,-0.3197993,1.659205,-0.2223245,-0.05331428,1.697226,0.3484742,0.08708233,1.628099,NA,NA,NotTracked,Unknown,
0.9541016,-0.2304688,0.07910156,-0.4428711,0.722168,0.5942383,0,0,-1,0,-2,1,0,-2,1,-13,-2,-3,-14,53,-4,61,0.875,0.875,0.875,3.6875,3.6875,3.6875,3.037039,2.93222,5.653441,6.451581,5.667602,5.625137,-0.1905457,-0.3742598,1.612061,0.3053281,0.2474459,1.426597,-0.02201433,0.480982,1.663247,-0.2414302,-0.3782648,1.624,0.2244322,0.2080425,1.392897,-0.01703895,0.004315911,1.704448,-0.02479855,-0.3290536,1.700322,-0.1884712,0.2015593,1.697404,-0.1070369,-0.3203319,1.659395,-0.222259,-0.05377495,1.697301,0.3516369,0.08831301,1.629771,NA,NA,NotTracked,Unknown,
0.9624023,-0.2714844,0.08984375,-0.449707,0.7270508,0.5629883,1,-1,-1,-2,1,1,-1,-2,-2,10,28,2,6,49,-31,-14,-2.125,-2.125,-2.125,0.875,0.875,0.875,3.020743,2.926746,5.663079,6.46256,5.674605,5.61224,-0.1902905,-0.3737354,1.612429,0.307448,0.2496265,1.428099,-0.02132093,0.4809899,1.663143,-0.2371214,-0.3823093,1.61001,0.2273225,0.2063201,1.394357,-0.01695655,0.003880722,1.704476,-0.02498888,-0.3294262,1.700499,-0.1884985,0.2016093,1.697687,-0.1072059,-0.3207059,1.659549,-0.2221026,-0.05384636,1.697353,0.353897,0.08888794,1.631596,NA,NA,NotTracked,Unknown,
0.9550781,-0.2587891,0.08056641,-0.4379883,0.6904297,0.5649414,-1,-2,-3,-2,-2,-1,1,1,-13,-1,2,1,22,-6,6,3,-0.0625,-0.0625,-0.0625,-1.5625,-1.5625,-1.5625,3.022185,2.926455,5.662185,6.452825,5.677881,5.605469,-0.1894049,-0.3739921,1.612347,0.3097394,0.2491941,1.427984,-0.02056154,0.4810725,1.663241,-0.2362407,-0.3739616,1.612044,0.2295477,0.2089669,1.395741,-0.01669464,0.00350055,1.704562,-0.02495249,-0.3296559,1.700679,-0.1882768,0.2016654,1.697879,-0.1071086,-0.3210068,1.659843,-0.222006,-0.05396789,1.697479,0.3556449,0.08892028,1.632844,NA,NA,NotTracked,Unknown,
0.9614258,-0.2514648,0.07617188,-0.4311523,0.7387695,0.5688477,0,-1,0,-1,-1,-1,-2,-5,17,9,12,-8,-7,-74,-20,0,-4.0625,-4.0625,-4.0625,-2.5,-2.5,-2.5,3.016464,2.927093,5.660193,6.452362,5.681273,5.600687,-0.1884966,-0.374477,1.612164,0.3103739,0.2495182,1.428075,-0.01981395,0.4811486,1.663179,-0.2338693,-0.368491,1.606575,0.2292927,0.2086727,1.392165,-0.01735911,0.002788452,1.703971,-0.02486839,-0.3298616,1.700825,-0.1878974,0.2017842,1.697823,-0.106998,-0.3211661,1.659937,-0.2216163,-0.05430073,1.697453,0.3567531,0.08841608,1.633554,NA,NA,NotTracked,Unknown,
