ALX,ALY,ALZ,ARX,ARY,ARZ,EMG0L,EMG1L,EMG2L,EMG3L,EMG4L,EMG5L,EMG6L,EMG7L,EMG0R,EMG1R,EMG2R,EMG3R,EMG4R,EMG5R,EMG6R,EMG7R,GLX,GLY,GLZ,GRX,GRY,GRZ,ORL,OPL,OYL,ORR,OPR,OYR,LHNX,LHNY,LHNZ,RHNX,RHNY,RHNZ,HX,HY,HZ,LTX,LTY,LTZ,RTX,RTY,RTZ,SpineMidX,SpineMidY,SpineMidZ,SpineBaseX,SpineBaseY,SpineBaseZ,ShoulderLeftX,ShoulderLeftY,ShoulderLeftZ,ShoulderRightX,ShoulderRightY,ShoulderRightZ,ElbowLeftX,ElbowLeftY,ElbowLeftZ,ElbowRightX,ElbowRightY,ElbowRightZ,Myo_Pose_left,Myo_Pose_Right,Kinect_pose_left,Kinect_pose_right
0.9541016,-0.2519531,0.1201172,0.9375,0.1411133,0.2504883,-1,-4,-1,-1,0,-1,0,-3,-1,0,0,3,8,7,3,0,-1.5,-1.5,-1.5,-0.5,-0.5,-0.5,3.212039,2.950503,6.145253,5.806235,2.973134,8.865389,-0.1712811,-0.334657,1.574868,0.1408699,-0.353727,1.573182,-0.01065272,0.4788239,1.634388,-0.202794,-0.3441419,1.566949,0.09779697,-0.3238242,1.549826,-0.01036253,-0.001641492,1.674187,-0.01036591,-0.3346775,1.670718,-0.1879496,0.1918112,1.644369,-0.09242103,-0.3269398,1.627773,-0.2152928,-0.05469904,1.639233,0.1800628,-0.06192567,1.670694,NA,NA,NotTracked,NotTracked,
0.9584961,-0.2539063,0.1196289,0.9389648,0.1401367,0.2495117,1,-3,-3,0,-2,-1,0,-3,1,-1,-3,-1,0,-3,-5,-2,-0.4375,-0.4375,-0.4375,0.125,0.125,0.125,3.211417,2.951048,6.145946,5.80659,2.973126,8.864997,-0.1624907,-0.3564513,1.569901,0.1387144,-0.3627832,1.57286,-0.01065557,0.4789851,1.634918,-0.2022483,-0.3670596,1.579231,0.09286536,-0.3512122,1.550333,-0.01032143,-0.001634229,1.67437,-0.01037751,-0.3346891,1.67076,-0.1878605,0.1917689,1.644578,-0.09242839,-0.3269637,1.627832,-0.215381,-0.05283323,1.639705,0.1801284,-0.06180998,1.671043,NA,NA,NotTracked,NotTracked,
0.9575195,-0.2607422,0.1201172,0.9389648,0.1455078,0.2578125,-1,2,-1,-2,-1,0,-1,-2,-1,-2,-1,-2,-2,-4,-5,-2,-1,-1,-1,0.5,0.5,0.5,3.211351,2.950614,6.145915,5.80659,2.973126,8.864997,-0.1709268,-0.3304491,1.575893,0.1404389,-0.3596723,1.573096,-0.01057373,0.4791215,1.635387,-0.2073451,-0.3086843,1.571818,0.09416575,-0.3495665,1.549226,-0.01020706,-0.001597989,1.67462,-0.01030992,-0.3346812,1.670849,-0.1877319,0.1917869,1.644801,-0.09236213,-0.3269411,1.62787,-0.215151,-0.05337988,1.639839,0.1802122,-0.06174146,1.671247,NA,NA,NotTracked,NotTracked,
0.9570313,-0.253418,0.121582,0.9414063,0.1435547,0.2529297,1,-1,0,-1,-1,0,-2,1,0,-1,-2,-2,-6,13,-2,0,-1.25,-1.25,-1.25,0.1875,0.1875,0.1875,3.208441,2.95151,6.147568,5.806729,2.973128,8.864742,-0.1704283,-0.3302899,1.576114,0.141658,-0.3568666,1.57346,-0.01039193,0.479204,1.635921,-0.2046782,-0.3327076,1.580182,0.09580743,-0.3436924,1.549867,-0.01003947,-0.001555041,1.674934,-0.01016223,-0.3346587,1.670964,-0.1875963,0.1918403,1.645005,-0.09219669,-0.326916,1.627979,-0.2149644,-0.05374654,1.639871,0.1803805,-0.0615173,1.671591,NA,NA,NotTracked,NotTracked,
0.9575195,-0.2661133,0.1191406,0.9370117,0.1420898,0.2485352,-12,-5,-4,1,-1,-2,-2,-2,-1,-1,-1,-1,-2,-3,-2,0,-2.9375,-2.9375,-2.9375,-2.625,-2.625,-2.625,3.200903,2.95318,6.150819,5.805144,2.97532,8.86287,-0.1687218,-0.3305543,1.574644,0.1416733,-0.3571552,1.573283,-0.01021551,0.479306,1.636396,-0.2054353,-0.300618,1.565913,0.09645811,-0.3505726,1.550249,-0.009769756,-0.001478509,1.675178,-0.01003932,-0.3345968,1.67101,-0.1872285,0.1918111,1.645157,-0.09207246,-0.3268629,1.62802,-0.2149448,-0.05335993,1.640167,0.1805522,-0.06140315,1.671853,NA,NA,NotTracked,NotTracked,
0.9697266,-0.328125,0.08837891,1.107422,0.1782227,0.2348633,0,0,-1,-3,-11,0,2,7,-6,0,-31,32,2,1,-2,-13,2.0625,2.0625,2.0625,-6.9375,-6.9375,-6.9375,3.182982,2.956563,6.167459,5.808673,2.985185,8.849753,-0.1683895,-0.3292738,1.572782,0.1420944,-0.3567059,1.574168,-0.00968996,0.4794605,1.637788,-0.1932225,-0.376443,1.56492,0.0967968,-0.3444159,1.551196,-0.009267276,-0.001326231,1.675823,-0.009654325,-0.3345031,1.671344,-0.1864275,0.1919697,1.645748,-0.09159492,-0.3266925,1.628448,-0.2148725,-0.05357224,1.640348,0.1811976,-0.06110792,1.672937,NA,NA,NotTracked,Unknown,
0.9951172,-0.3491211,0.08935547,1.140137,0.1425781,0.2680664,0,0,0,2,38,13,2,-1,4,5,20,-75,-5,0,0,2,44.1875,44.1875,44.1875,25.25,25.25,25.25,3.190532,3.03369,6.251091,5.805457,3.07077,8.868237,-0.1483354,-0.3432131,1.547968,0.1425381,-0.3528132,1.571216,-0.008923481,0.4798204,1.639447,-0.1921767,-0.3443801,1.561,0.09694867,-0.348278,1.550637,-0.008751325,-0.001284488,1.676173,-0.009017698,-0.3344715,1.671424,-0.1855997,0.1919649,1.646204,-0.09100237,-0.3266225,1.628525,-0.2147387,-0.05275796,1.640794,0.1824458,-0.0612134,1.67496,NA,NA,NotTracked,NotTracked,
0.9121094,-0.6669922,0.2729492,1.19043,0.1977539,0.5805664,-1,-2,-1,2,-4,-2,-1,-2,14,14,11,61,7,1,0,4,23.75,23.75,23.75,44,44,44,3.208657,3.268821,6.284088,5.818277,3.30208,8.91525,-0.1322365,-0.3318242,1.495836,0.1325453,-0.3371736,1.548145,-0.007802011,0.4805292,1.641841,-0.1379742,-0.3476986,1.450341,0.09626357,-0.3143651,1.549355,-0.008166613,-0.001173947,1.676511,-0.008699729,-0.3345181,1.671418,-0.1845602,0.1924685,1.647144,-0.09080753,-0.3267332,1.628571,-0.2165532,-0.04642476,1.641308,0.1868559,-0.06067279,1.682369,NA,NA,Unknown,NotTracked,
0.8984375,-0.7368164,0.2592773,1.015137,0.4179688,0.8442383,-1,5,1,-8,-1,-5,-2,-1,-2,-35,58,13,0,-2,-2,1,22.5,22.5,22.5,92.0625,92.0625,92.0625,3.217282,3.349237,6.287989,5.873799,3.535798,8.956924,-0.09509076,-0.2807585,1.476084,0.09180591,-0.2928106,1.514212,-0.006535563,0.4812464,1.644652,-0.134264,-0.2552878,1.419351,0.1013737,-0.2734129,1.458067,-0.007566887,-0.001178496,1.677472,-0.008579243,-0.3348521,1.67196,-0.1830425,0.1937156,1.648571,-0.09064966,-0.3271604,1.629391,-0.2181572,-0.03976527,1.638528,0.1922199,-0.05680779,1.68985,NA,NA,NotTracked,Unknown,
0.8129883,-0.7529297,0.3925781,0.3725586,0.4555664,0.9033203,-1,-1,1,6,24,4,4,-2,-37,-67,-63,-24,-8,-2,-3,-11,3.3125,3.3125,3.3125,-24.875,-24.875,-24.875,3.233127,3.693364,6.276875,5.869843,4.342691,9.024145,-0.0901024,-0.2238075,1.389137,0.0543224,-0.1714725,1.481666,-0.005094187,0.4814376,1.646942,-0.05830733,-0.217405,1.495727,0.08913059,-0.1536631,1.404584,-0.006718822,-0.001094151,1.680542,-0.00866573,-0.3351565,1.676002,-0.1809961,0.1952765,1.649818,-0.08999486,-0.3273042,1.633433,-0.221399,-0.02938663,1.625204,0.1988595,-0.04059444,1.694633,NA,NA,NotTracked,NotTracked,
0.6313477,-0.7192383,0.4370117,-0.105957,0.4814453,0.7705078,-4,3,-2,-8,-13,0,-12,0,10,-39,30,28,10,4,2,1,-20.6875,-20.6875,-20.6875,24,24,24,3.241983,4.05356,6.226096,5.870485,4.961185,9.114447,-0.06007265,-0.1585159,1.33082,0.04537417,-0.02368719,1.451287,-0.003013235,0.4812563,1.650048,-0.03533182,-0.1823883,1.319556,0.08028129,-0.02896636,1.405766,-0.006078026,3.95674E-05,1.684453,-0.009258783,-0.3328704,1.681595,-0.1791688,0.1990215,1.650682,-0.089544,-0.3243885,1.639165,-0.2241334,-0.01827639,1.602671,0.2010603,-0.03142746,1.67072,NA,NA,Unknown,NotTracked,
0.4824219,-0.8432617,0.4169922,-0.4462891,0.4155273,0.5473633,-1,-3,2,-1,-2,-3,-10,-12,-14,22,-1,-14,7,2,0,-2,-29.0625,-29.0625,-29.0625,-31.375,-31.375,-31.375,3.195334,4.390172,6.152527,5.863753,5.57123,9.272871,-0.03420274,-0.08760733,1.297281,0.04739817,0.1268456,1.461189,-0.0002738268,0.4811641,1.654202,0.03806978,-0.1124732,1.303,0.07204409,0.1251393,1.420586,-0.005507894,0.0004205891,1.686977,-0.009928931,-0.3321077,1.683257,-0.1766259,0.2011899,1.650733,-0.09004948,-0.3232987,1.640673,-0.2297833,-0.008761879,1.576938,0.1969848,-0.03413879,1.650319,NA,NA,NotTracked,Unknown,
0.3632813,-0.7841797,0.4111328,-0.4233398,0.3295898,0.6030273,0,-3,4,-2,-1,-2,-8,-4,17,15,-7,-6,-8,-2,1,3,-30.5625,-30.5625,-30.5625,37.0625,37.0625,37.0625,3.164488,4.670623,6.066818,6.03304,6.200185,9.567606,-0.02744893,-0.02272373,1.28146,-0.005822599,-0.02128418,1.275312,0.0006619146,0.4841437,1.65961,0.02763799,-0.04707891,1.2818,0.05142229,-0.01655605,1.24675,-0.006168907,0.000607772,1.687856,-0.01045577,-0.3320444,1.684313,-0.1763847,0.204539,1.651268,-0.09097062,-0.3229245,1.643102,-0.2229811,0.009194918,1.536315,0.1843445,-0.03646213,1.625264,NA,NA,NotTracked,NotTracked,
0.3344727,-0.7744141,0.4072266,-0.5620117,0.4335938,0.5131836,-1,-9,-2,3,2,6,1,7,23,8,-23,5,13,0,-2,-3,-28.0625,-28.0625,-28.0625,-10.875,-10.875,-10.875,3.15571,4.727063,6.044026,6.165464,6.401083,9.747794,-0.01507463,0.03080124,1.276514,-0.003035242,0.0307564,1.273024,0.0002474673,0.4889231,1.66487,0.02543849,0.006911755,1.2745,0.05174568,0.03721223,1.241556,-0.007765544,0.0004531883,1.687315,-0.0108241,-0.3320486,1.684743,-0.1761666,0.2060978,1.651293,-0.09165911,-0.3227938,1.645252,-0.2228809,0.01687803,1.525473,0.1796427,-0.02845975,1.609793,NA,NA,NotTracked,NotTracked,
0.184082,-0.7529297,0.3740234,-0.6289063,0.4257813,0.3476563,3,6,2,5,-2,-5,-4,8,-14,8,-1,-5,-4,-4,-3,-4,-19.375,-19.375,-19.375,-21.9375,-21.9375,-21.9375,3.120917,4.949863,5.94185,6.361569,6.560535,0.05813629,-0.002663487,0.07095492,1.27661,-0.0002074175,0.06883575,1.276932,0.0004859719,0.4912532,1.66963,0.03996759,0.04987345,1.2753,0.05128308,0.07326487,1.248111,-0.009078626,0.000544405,1.687184,-0.01147818,-0.3321559,1.685229,-0.1757198,0.2078077,1.651249,-0.09245872,-0.3228588,1.646904,-0.2193809,0.0305565,1.506558,0.1615954,-0.03877572,1.611324,NA,NA,NotTracked,NotTracked,
0.1108398,-0.8422852,0.4042969,-0.7314453,0.3466797,0.253418,-3,-3,0,-1,-3,-3,-2,1,-8,37,22,-7,-12,0,2,3,-4.375,-4.375,-4.375,-32.25,-32.25,-32.25,3.095746,5.081594,5.881055,6.237134,6.512663,9.971005,-0.001962378,0.1034883,1.288434,-0.005551188,0.08911438,1.291607,0.001307895,0.4939649,1.674419,0.0409901,0.08065241,1.285555,0.03249731,0.09149605,1.256154,-0.01016,0.0004544528,1.687148,-0.01256799,-0.3334225,1.685593,-0.1757348,0.2099195,1.651617,-0.09375897,-0.3239374,1.648002,-0.2138302,0.04302286,1.492669,0.1560805,-0.04377944,1.611709,NA,NA,NotTracked,NotTracked,
0.06591797,-0.8266602,0.4277344,-0.8168945,0.347168,0.4448242,-1,-4,-3,-2,-1,1,5,-3,-48,-54,-6,6,31,11,2,-2,-6.0625,-6.0625,-6.0625,-37.125,-37.125,-37.125,3.09445,5.150558,5.847393,5.986806,6.377158,9.72163,0.02085075,0.1404911,1.305071,-0.05411381,0.08691353,1.355479,0.0009220065,0.4967197,1.678141,0.05560832,0.1184451,1.301353,0.002562146,0.09776939,1.311,-0.01167528,0.0005538847,1.687188,-0.01430618,-0.3369814,1.68561,-0.1762285,0.2124495,1.652495,-0.09573667,-0.3271838,1.648547,-0.2129766,0.04399563,1.494939,0.1445045,-0.09591998,1.646626,NA,NA,NotTracked,NotTracked,
-0.1933594,-0.9179688,0.3339844,-0.6572266,0.4208984,0.6254883,2,3,-4,-2,2,6,30,15,9,-7,6,-16,15,-4,-3,-6,5.6875,5.6875,5.6875,-43.5,-43.5,-43.5,3.085623,5.332689,5.769867,5.684021,6.083691,9.401074,0.01523294,0.1726626,1.338576,-0.004513299,0.1511484,1.333183,0.0001212797,0.4975872,1.680267,0.03038249,0.1505989,1.306414,0.04158244,0.1610249,1.303286,-0.01285545,0.0008042494,1.687226,-0.01558973,-0.3404865,1.686119,-0.1771406,0.2140159,1.653423,-0.09727284,-0.3304025,1.650861,-0.2064946,0.04579296,1.493891,0.1448542,-0.01066509,1.559957,NA,NA,NotTracked,NotTracked,
-0.4116211,-0.862793,0.2436523,-0.6367188,0.2871094,0.7490234,4,1,0,4,-2,-7,-22,0,-6,-10,-9,-16,-59,-19,-6,-11,13,13,13,-39.625,-39.625,-39.625,3.09066,5.480013,5.704055,5.627343,5.99848,9.344464,0.01423098,0.1731883,1.364667,-0.01745229,0.1152061,1.210653,0.0002095584,0.4954089,1.68246,-0.01180818,0.2155706,1.322256,-0.004766452,0.1165925,1.17972,-0.01401016,0.003284511,1.688573,-0.01646052,-0.3414,1.686094,-0.1782809,0.21534,1.654479,-0.09833294,-0.3311495,1.650591,-0.2082901,0.0434233,1.499337,0.1305584,-0.006261751,1.54603,NA,NA,NotTracked,NotTracked,
-0.5722656,-0.2177734,-0.4345703,-0.4892578,1.069824,0.3930664,0,-3,-16,-38,-5,-7,-23,-12,-57,38,19,-2,-4,0,1,6,41.625,41.625,41.625,-182.625,-182.625,-182.625,3.095227,5.573056,5.688369,5.550809,5.911736,9.254036,0.0154121,0.1737878,1.347833,-0.01122625,0.1577066,1.328416,0.0004576611,0.4936764,1.684597,-0.01623517,0.1989751,1.301167,0.02253622,0.1592653,1.298333,-0.01428874,0.003334486,1.689918,-0.01708113,-0.3420572,1.68629,-0.1787982,0.2159238,1.65532,-0.09911018,-0.3320914,1.650172,-0.2104761,0.04151922,1.503556,0.1265962,-0.00861798,1.545614,NA,NA,NotTracked,NotTracked,
-0.2275391,-0.6181641,0.5449219,-0.2241211,0.1323242,0.9921875,9,-1,4,23,8,10,-13,-3,-48,-35,12,15,3,-4,1,-2,-2.5625,-2.5625,-2.5625,138.25,138.25,138.25,3.160728,5.405286,5.82936,5.69193,5.867428,9.206849,0.01714193,0.1710057,1.333211,-0.01733137,0.1349906,1.327248,0.0002729472,0.4915014,1.686541,-0.01737671,0.1756316,1.28641,0.03217969,0.1452482,1.2955,-0.01383952,0.00310359,1.693458,-0.01741469,-0.3421229,1.686524,-0.179013,0.2161432,1.655864,-0.09930405,-0.3321392,1.650225,-0.2117714,0.03532505,1.50114,0.130591,-0.02799159,1.564829,NA,NA,NotTracked,NotTracked,
-0.2734375,-0.9550781,0.3867188,-0.6401367,0.7197266,0.6162109,-2,-1,2,24,7,6,-8,-3,-62,-14,-16,3,3,-3,-6,-7,17.4375,17.4375,17.4375,142.875,142.875,142.875,3.119395,5.342648,5.846377,6.082584,5.848117,9.297501,0.01126305,0.1553075,1.324823,-0.0149626,0.1290743,1.325094,8.676865E-05,0.4896726,1.687981,0.01083981,0.1281536,1.292163,0.04342208,0.1476045,1.290812,-0.01353236,0.002124744,1.695848,-0.01751258,-0.3420789,1.686614,-0.1792333,0.216063,1.656182,-0.09936392,-0.3320962,1.650141,-0.2118826,0.03184169,1.502023,0.1451334,-0.03393503,1.587714,NA,NA,NotTracked,NotTracked,
-0.2753906,-1.026367,0.3964844,-0.7314453,0.9018555,0.5981445,1,0,-1,-2,-6,-18,10,2,36,-17,4,-3,4,0,2,-1,-35.625,-35.625,-35.625,90.25,90.25,90.25,3.087871,5.338377,5.848711,6.335143,5.853728,9.424886,0.001345609,0.1433676,1.319723,0.004902557,0.08862559,1.261836,-0.001084833,0.4891329,1.689175,-0.02250005,0.1701734,1.2903,0.06605151,0.1074029,1.229448,-0.01348521,0.00148084,1.697339,-0.01760304,-0.3420915,1.686972,-0.1793722,0.2159328,1.656389,-0.09938784,-0.3320957,1.65009,-0.2120096,0.02796337,1.499783,0.1528774,-0.03284583,1.597115,NA,NA,NotTracked,NotTracked,
-0.2944336,-1.029297,0.3754883,-0.8579102,0.8837891,0.4360352,-1,-2,-1,2,5,10,-8,-6,-1,28,15,5,3,1,12,5,-13.9375,-13.9375,-13.9375,57.375,57.375,57.375,3.061076,5.364417,5.825659,6.549709,5.926264,9.620614,0.001529914,0.1495634,1.322305,0.006626905,0.09154078,1.260424,-0.002916564,0.4890617,1.690237,-0.0145236,0.1823247,1.294952,0.0666609,0.1084327,1.228941,-0.01378784,0.001046683,1.697167,-0.01763787,-0.3421718,1.687176,-0.1795821,0.2159157,1.656572,-0.09939463,-0.3321333,1.650079,-0.2134402,0.03014161,1.500744,0.1546112,-0.02992183,1.595705,NA,NA,NotTracked,NotTracked,
-0.2744141,-1.022461,0.2939453,-0.7495117,0.9682617,0.3613281,-1,-2,-1,-1,1,7,-12,6,-55,-11,-6,-7,12,-1,26,-56,-32.5,-32.5,-32.5,103.1875,103.1875,103.1875,2.967392,5.440763,5.761223,6.903098,6.049396,9.810751,0.01464534,0.1686899,1.332368,0.003708638,0.1517526,1.330171,-0.007687197,0.4915251,1.692896,-0.006603318,0.2000481,1.307818,0.0579798,0.1651352,1.308,-0.0144522,0.0006709378,1.696576,-0.01778785,-0.3427112,1.687809,-0.1801956,0.2161318,1.657112,-0.09975457,-0.3330725,1.65174,-0.2134392,0.03424429,1.498731,0.1625101,-0.00783707,1.568756,NA,NA,NotTracked,NotTracked,
-0.3032227,-0.9453125,0.2241211,-0.7607422,0.7724609,0.3481445,-3,-1,0,7,-4,26,10,-3,32,-10,-8,-12,-44,52,58,-6,-64.875,-64.875,-64.875,110.25,110.25,110.25,2.857803,5.52697,5.699707,7.148576,6.155697,9.935507,0.01386097,0.1846128,1.342162,0.01333503,0.1767627,1.331353,-0.01244044,0.4974379,1.696315,0.001281884,0.2249406,1.32875,0.05054059,0.1827094,1.30625,-0.01626314,0.0004247229,1.695586,-0.01870844,-0.3448269,1.688883,-0.180782,0.2168666,1.657779,-0.1015762,-0.3358338,1.65487,-0.2120086,0.04393054,1.489867,0.1662102,0.00665292,1.540255,NA,NA,NotTracked,NotTracked,
-0.296875,-0.902832,0.1323242,-0.7788086,0.6054688,0.1811523,3,0,-5,-16,2,-4,30,5,-6,-7,-3,-7,6,45,53,2,-68.4375,-68.4375,-68.4375,82.625,82.625,82.625,2.719628,5.604642,5.631175,7.359874,6.283674,0.012474,0.01166973,0.1959745,1.348276,0.0146094,0.209101,1.33118,-0.01758832,0.5042009,1.699949,0.01072611,0.2281354,1.3317,0.0198748,0.2075588,1.301502,-0.01842521,0.000719125,1.695429,-0.01903149,-0.3451754,1.68944,-0.1814939,0.218247,1.65872,-0.1023755,-0.3362341,1.656955,-0.2144241,0.05301689,1.484195,0.1714752,0.02893947,1.513517,NA,NA,NotTracked,NotTracked,
-0.2978516,-0.8022461,0.02539063,-0.6411133,0.4863281,0.04638672,3,0,-2,-3,-1,23,-8,2,5,-3,2,6,-80,-43,-125,-31,-89.5,-89.5,-89.5,38.8125,38.8125,38.8125,2.561851,5.657382,5.56148,7.356847,6.391401,9.876872,0.04989486,0.2240221,1.36523,0.009756823,0.3373265,1.429667,-0.02093297,0.5071475,1.702568,0.05110937,0.2978848,1.4128,0.03514808,0.3364932,1.369,-0.01947856,9.511469E-05,1.695894,-0.01901305,-0.345073,1.689799,-0.1818051,0.218916,1.659262,-0.1024548,-0.3363269,1.657231,-0.2161959,0.05950918,1.480098,0.1642407,0.05981266,1.49766,NA,NA,NotTracked,NotTracked,
-0.3041992,-0.6523438,-0.2050781,-0.3095703,0.1694336,0.09960938,2,-4,-8,-10,-14,-20,27,12,-57,-5,1,-6,23,-51,-90,4,-107.875,-107.875,-107.875,-49.3125,-49.3125,-49.3125,2.309429,5.643127,5.502667,7.054115,6.317644,9.55386,0.00575388,0.198878,1.360538,0.005521211,0.3104546,1.333547,-0.02263983,0.5074134,1.704472,0.03540619,0.2487462,1.3918,-0.005582388,0.2856428,1.286857,-0.01946226,1.361527E-05,1.695966,-0.01913125,-0.3438631,1.690213,-0.1817173,0.2189884,1.659463,-0.1025481,-0.3356464,1.657423,-0.2207469,0.06269017,1.479239,0.1290666,0.1620349,1.452145,NA,NA,NotTracked,NotTracked,
-0.2133789,-0.9267578,-0.2895508,-0.3110352,0.5463867,0.2885742,4,-2,-2,-6,3,6,10,4,4,3,5,-6,-44,-36,-13,3,-104,-104,-104,-10.0625,-10.0625,-10.0625,2.111089,5.525414,5.514808,6.8149,6.030527,9.234856,0.02798542,0.2104476,1.34086,0.001595366,0.2653914,1.306183,-0.02401183,0.5116227,1.705554,0.09137051,0.195708,1.372889,0.0009482134,0.2399321,1.268714,-0.02065936,0.01265926,1.696351,-0.01951146,-0.3393841,1.691153,-0.1819026,0.2229566,1.665033,-0.1027217,-0.3316456,1.659622,-0.22415,0.06492727,1.478565,0.1249784,0.1636145,1.451104,NA,NA,NotTracked,NotTracked,
-0.1513672,-0.9926758,-0.1831055,-0.355957,0.5996094,0.5322266,-5,0,3,8,2,-24,-5,3,18,-6,-4,19,26,57,-36,-47,-65,-65,-65,-7.9375,-7.9375,-7.9375,2.028814,5.403136,5.513121,6.783964,5.945643,9.192005,0.01858786,0.1710299,1.302645,-0.005319762,0.1563219,1.310992,-0.02329695,0.4974784,1.711536,0.04874624,0.1407263,1.3264,0.009743549,0.1281693,1.263438,-0.02161836,0.01151506,1.701247,-0.01921663,-0.3371965,1.692033,-0.182401,0.2231907,1.666222,-0.101968,-0.3299417,1.661195,-0.2445227,0.07321985,1.48952,0.1264417,0.1457459,1.443542,NA,NA,NotTracked,NotTracked,
-0.2163086,-1.006836,-0.3862305,-0.3598633,0.9125977,0.5561523,1,1,1,1,8,10,-19,7,-26,-8,-3,-17,-11,-14,54,9,-22.75,-22.75,-22.75,1.1875,1.1875,1.1875,1.90616,5.127221,5.452606,6.705633,5.581167,9.081706,0.02006327,0.1272558,1.302943,0.01896488,0.1343828,1.290611,-0.02098411,0.4929696,1.71362,0.01804143,0.07126822,1.27205,0.002725862,0.09909838,1.265727,-0.01976769,0.007359358,1.708545,-0.01842386,-0.3349424,1.692762,-0.1818831,0.2216929,1.666268,-0.09984972,-0.3273668,1.659116,-0.2529982,0.07278163,1.491723,0.1362841,0.1153352,1.441642,NA,NA,NotTracked,NotTracked,
-0.1206055,-1.038574,-0.3701172,-0.3037109,0.9428711,0.5839844,3,1,-3,2,2,1,7,3,26,9,5,-28,3,23,50,1,-9.9375,-9.9375,-9.9375,-30.4375,-30.4375,-30.4375,1.883288,5.035734,5.426523,6.660484,5.446919,9.047676,0.03643398,0.09970656,1.32092,-0.06103554,0.06399876,1.201023,-0.01915038,0.4907359,1.714518,0.02223029,0.03947156,1.283206,-0.07565419,0.02996523,1.17607,-0.01817065,0.006914983,1.7098,-0.0157824,-0.3292095,1.694054,-0.1816894,0.2195587,1.664993,-0.09570567,-0.3218823,1.655568,-0.2633264,0.07574987,1.500123,0.1260422,0.09827276,1.435795,NA,NA,NotTracked,NotTracked,
0.008789063,-0.9086914,-0.4116211,-0.3051758,0.9985352,0.6025391,0,-1,-1,2,-7,-8,4,1,-25,-2,-2,-25,-20,1,-20,-21,9.5625,9.5625,9.5625,-18.125,-18.125,-18.125,1.891267,4.984614,5.421876,6.613029,5.387589,9.014647,0.03557657,0.08427644,1.32489,-0.06059298,0.06493849,1.199785,-0.01807312,0.4894587,1.714696,0.02238436,0.01732257,1.294571,-0.07547752,0.03236962,1.174449,-0.01723952,0.007010463,1.710187,-0.01492102,-0.325711,1.69511,-0.1816756,0.2182852,1.664346,-0.09425251,-0.3190243,1.654182,-0.264071,0.07457703,1.499798,0.122663,0.08398356,1.439275,NA,NA,NotTracked,NotTracked,
0.01757813,-1.039063,-0.387207,-0.2246094,0.8364258,0.5546875,-6,-4,-5,-31,-10,-5,-16,-8,-7,-3,-5,-48,-36,-30,1,-7,-1.6875,-1.6875,-1.6875,2.75,2.75,2.75,1.890816,4.961407,5.421334,6.597415,5.382907,9.010902,0.03539922,0.07842624,1.328267,-0.06216832,0.06097713,1.202852,-0.01740475,0.4888126,1.714665,0.02242363,0.009918103,1.303154,-0.07676547,0.02700767,1.177896,-0.01665615,0.007056186,1.709316,-0.01430363,-0.3239259,1.696014,-0.1815681,0.2172065,1.663945,-0.0934523,-0.3177807,1.653692,-0.2674116,0.07329863,1.501519,0.1235952,0.0804354,1.440351,NA,NA,NotTracked,NotTracked,
-0.03808594,-1.01416,-0.4135742,-0.2626953,0.9082031,0.5351563,-1,-3,-2,10,-7,0,20,2,-6,-11,-5,-1,-6,14,38,4,5.625,5.625,5.625,-1.8125,-1.8125,-1.8125,1.894551,4.960066,5.417647,6.600773,5.38461,9.011339,0.03568081,0.07939412,1.330115,-0.06464691,0.06721316,1.206248,-0.01692381,0.488204,1.714641,0.02274852,0.009636689,1.303746,-0.07919729,0.03311978,1.181302,-0.016037,0.007193316,1.710554,-0.01412651,-0.3226674,1.696728,-0.1815157,0.2166019,1.663767,-0.09313966,-0.3167578,1.653793,-0.2689518,0.07276411,1.502205,0.1235779,0.07753186,1.442357,NA,NA,NotTracked,NotTracked,
0.01464844,-0.9536133,-0.3725586,-0.2392578,0.8017578,0.5424805,-2,-4,-1,1,-2,0,10,-7,19,4,-1,-10,-14,-2,13,21,1.25,1.25,1.25,4.75,4.75,4.75,1.895504,4.969785,5.421945,6.599082,5.402905,9.008801,0.0345928,0.08076502,1.330061,-0.06468716,0.06450731,1.206586,-0.01648906,0.4879016,1.714564,0.02399447,0.009528112,1.306852,-0.07893387,0.03208137,1.181463,-0.01569252,0.007337522,1.709772,-0.01382365,-0.3217382,1.697228,-0.1814956,0.2159336,1.663539,-0.09273193,-0.3159408,1.653915,-0.2695762,0.07177689,1.502665,0.1229763,0.07596734,1.443091,NA,NA,NotTracked,NotTracked,
0.02636719,-0.9223633,-0.3681641,-0.2470703,0.8144531,0.5170898,-3,-2,-4,-8,-3,-4,-7,-6,-27,0,0,-4,-23,0,-11,-9,-4.25,-4.25,-4.25,-2.1875,-2.1875,-2.1875,1.887837,4.972201,5.418205,6.598769,5.410954,9.006956,0.03500598,0.08225364,1.331056,-0.06481796,0.06335685,1.20692,-0.01634857,0.4876375,1.714761,0.02283718,0.01283281,1.302832,-0.07904178,0.0311629,1.181732,-0.0153377,0.007400247,1.713091,-0.01382261,-0.3212641,1.697761,-0.1815399,0.2154134,1.663402,-0.09263849,-0.3155959,1.654107,-0.2705307,0.07141497,1.502927,0.1225018,0.07491142,1.443693,NA,NA,NotTracked,NotTracked,
0.01464844,-0.918457,-0.3574219,-0.2675781,0.8037109,0.5219727,-4,1,0,2,-2,0,1,2,1,1,2,41,37,-13,-7,3,2.25,2.25,2.25,-0.1875,-0.1875,-0.1875,1.888675,4.973417,5.413429,6.597646,5.415455,9.005942,0.03542555,0.08200994,1.332105,-0.135158,0.06523916,1.406028,-0.0162231,0.4874294,1.714913,0.02366245,0.01363217,1.302726,-0.1182317,0.0449913,1.388333,-0.01530631,0.007411622,1.714675,-0.01388397,-0.320997,1.698058,-0.1815227,0.2151097,1.663388,-0.09263875,-0.3153643,1.654238,-0.2707639,0.07108751,1.503089,0.1238182,0.07534821,1.445726,NA,NA,NotTracked,NotTracked,
0.02929688,-0.8984375,-0.3632813,-0.2539063,0.7875977,0.534668,-7,-8,-5,-5,-7,-14,7,-5,-3,-4,-2,-18,-32,-11,42,17,3.3125,3.3125,3.3125,-0.3125,-0.3125,-0.3125,1.895522,4.97069,5.406666,6.59413,5.405564,9.002447,0.02346141,0.07602062,1.319732,-0.01123808,0.07333375,1.336626,-0.01614549,0.4871998,1.715078,0.02345221,0.01654585,1.300938,-0.07800582,0.06827393,1.365571,-0.01515714,0.007283489,1.715547,-0.01384759,-0.3209623,1.698208,-0.1815634,0.2147868,1.663297,-0.09262028,-0.3153605,1.654245,-0.2706336,0.0705655,1.503087,0.1257323,0.07400735,1.448245,NA,NA,NotTracked,NotTracked,
0.01953125,-0.9145508,-0.3745117,-0.2543945,0.8066406,0.534668,-3,2,-1,-4,-2,-2,-9,-1,16,1,-2,0,-14,-41,-37,5,1.6875,1.6875,1.6875,-1.25,-1.25,-1.25,1.896238,4.968116,5.404742,6.592621,5.396488,9.002836,0.02386356,0.07487374,1.321323,-0.01346485,0.06923142,1.337841,-0.01604886,0.4870929,1.715166,0.02405163,0.01796871,1.30085,-0.0288917,0.0340843,1.3265,-0.01508925,0.007338312,1.716192,-0.01377378,-0.320684,1.698646,-0.1815473,0.2144553,1.663228,-0.0924957,-0.3151595,1.654442,-0.2708016,0.07019094,1.503173,0.1268353,0.07329021,1.449857,NA,NA,NotTracked,NotTracked,
0.02587891,-0.9399414,-0.3818359,-0.2714844,0.8208008,0.5517578,2,2,-1,3,9,3,4,1,-4,1,-2,-17,-4,5,-20,-21,4.4375,4.4375,4.4375,-3.625,-3.625,-3.625,1.908638,4.944144,5.396471,6.569393,5.375969,8.997942,0.02456612,0.06941223,1.322384,-0.0139537,0.06540821,1.339477,-0.01602507,0.4869875,1.715188,0.02325121,0.01430034,1.301994,-0.08144619,0.05966166,1.367765,-0.01494224,0.007393017,1.71686,-0.01347868,-0.3201469,1.699305,-0.1814938,0.2142173,1.663216,-0.09217118,-0.3147396,1.654729,-0.2702108,0.06858832,1.504156,0.1271047,0.07185399,1.450867,NA,NA,NotTracked,NotTracked,
0.04931641,-0.9462891,-0.3857422,-0.2407227,0.815918,0.5776367,-1,2,-1,-4,-7,-4,4,-3,-10,3,6,64,68,-6,5,-8,4.75,4.75,4.75,-2.25,-2.25,-2.25,1.916852,4.92499,5.390288,6.562498,5.361841,8.996779,0.02364763,0.06439143,1.324415,-0.01539209,0.06057171,1.34171,-0.01590142,0.4868261,1.714858,0.02237801,0.0101571,1.306766,-0.05340817,0.03617042,1.34855,-0.01489064,0.007589223,1.717348,-0.01325454,-0.3193472,1.700308,-0.1803841,0.2130163,1.664484,-0.09186011,-0.3140647,1.655028,-0.2689143,0.06822699,1.504501,0.1242631,0.06670358,1.448968,NA,NA,NotTracked,NotTracked,
0.03710938,-0.9526367,-0.387207,-0.2075195,0.8295898,0.5776367,-1,-1,-2,1,-3,0,-17,1,15,-4,-6,-18,-22,-6,10,12,5.3125,5.3125,5.3125,-3.5,-3.5,-3.5,1.919036,4.920677,5.388185,6.553639,5.350582,8.994662,0.02428509,0.06176043,1.324197,-0.01019074,0.06070371,1.338626,-0.01575486,0.4866364,1.713911,0.02386243,0.007294408,1.308397,-0.07637623,0.05341725,1.365867,-0.01489633,0.00760949,1.717406,-0.01327695,-0.3192919,1.700704,-0.1800165,0.2121539,1.664794,-0.09184404,-0.3139932,1.655177,-0.2690116,0.06702829,1.505422,0.1262528,0.06517365,1.451449,NA,NA,NotTracked,NotTracked,
0.04638672,-0.9550781,-0.3691406,-0.125,0.8144531,0.5410156,-2,-2,-2,-6,-5,-2,-13,-6,-1,-7,-4,-19,-11,-5,-8,4,4.4375,4.4375,4.4375,-12.0625,-12.0625,-12.0625,1.924967,4.913267,5.385344,6.541757,5.345659,8.993325,0.03701339,0.06342819,1.336851,-0.0610433,0.05226893,1.37643,-0.01560476,0.4867499,1.712345,0.022479,-0.01121292,1.3175,-0.04068734,0.03532755,1.373546,-0.01491413,0.007591425,1.717409,-0.01340069,-0.3194982,1.701167,-0.1798674,0.211769,1.66494,-0.09195786,-0.314124,1.65551,-0.2686998,0.06591929,1.506177,0.1273963,0.05824339,1.458705,NA,NA,NotTracked,NotTracked,
