ALX,ALY,ALZ,ARX,ARY,ARZ,EMG0L,EMG1L,EMG2L,EMG3L,EMG4L,EMG5L,EMG6L,EMG7L,EMG0R,EMG1R,EMG2R,EMG3R,EMG4R,EMG5R,EMG6R,EMG7R,GLX,GLY,GLZ,GRX,GRY,GRZ,ORL,OPL,OYL,ORR,OPR,OYR,LHNX,LHNY,LHNZ,RHNX,RHNY,RHNZ,HX,HY,HZ,LTX,LTY,LTZ,RTX,RTY,RTZ,SpineMidX,SpineMidY,SpineMidZ,SpineBaseX,SpineBaseY,SpineBaseZ,ShoulderLeftX,ShoulderLeftY,ShoulderLeftZ,ShoulderRightX,ShoulderRightY,ShoulderRightZ,ElbowLeftX,ElbowLeftY,ElbowLeftZ,ElbowRightX,ElbowRightY,ElbowRightZ,Myo_Pose_left,Myo_Pose_Right,Kinect_pose_left,Kinect_pose_right
0.9516602,-0.2553711,0.1147461,0.9389648,0.144043,0.2285156,3,-1,-1,-3,-1,-1,-2,-2,0,-1,-1,0,-1,-3,-2,-2,1,1,1,-1.5625,-1.5625,-1.5625,3.173726,2.950671,6.07754,5.825678,2.95429,9.015379,-0.1551376,-0.3687264,1.585911,0.1360309,-0.3799174,1.586382,-0.007844908,0.4905616,1.658024,-0.1983783,-0.3898889,1.592383,0.1783909,-0.4086028,1.592968,-0.007898803,0.00458806,1.691951,-0.008797648,-0.3319353,1.68809,-0.1871603,0.1961309,1.665528,-0.09085766,-0.3235892,1.646212,-0.2140276,-0.04961242,1.658325,0.1922503,-0.05884007,1.683364,NA,NA,NotTracked,Unknown,
0.9624023,-0.2641602,0.1132813,0.9428711,0.1308594,0.2373047,1,0,0,-2,-2,-1,-2,1,-1,-1,-2,-1,-1,-1,-2,1,-1.625,-1.625,-1.625,-0.625,-0.625,-0.625,3.169951,2.950857,6.078454,5.824905,2.954733,9.014544,-0.1533182,-0.3774546,1.584,0.1356927,-0.3796256,1.585873,-0.007972197,0.4904178,1.658296,-0.1979473,-0.3789935,1.590478,0.1781675,-0.409784,1.593539,-0.007954582,0.00454795,1.692009,-0.008857249,-0.3319708,1.688109,-0.1871398,0.1959046,1.665781,-0.09092391,-0.3236089,1.646237,-0.2140733,-0.04919183,1.65856,0.1921172,-0.05895565,1.683617,NA,NA,NotTracked,Unknown,
0.9545898,-0.2583008,0.1132813,0.9443359,0.1420898,0.2348633,2,-1,-1,-2,-2,-3,-3,-1,0,-1,-1,-3,-1,-2,-6,-1,-1.5,-1.5,-1.5,-0.75,-0.75,-0.75,3.166064,2.952022,6.079634,5.825756,2.954807,9.013773,-0.1536641,-0.3769978,1.584566,0.1360233,-0.3794465,1.58646,-0.008056566,0.4903611,1.658604,-0.199904,-0.3891091,1.597114,0.1778381,-0.4103004,1.591859,-0.007963409,0.004506161,1.692171,-0.008863616,-0.331905,1.688131,-0.1871456,0.1957089,1.666016,-0.09090843,-0.3235835,1.646264,-0.2142763,-0.0482276,1.658962,0.1920481,-0.0590284,1.683902,NA,NA,NotTracked,Unknown,
0.9599609,-0.2509766,0.1103516,0.9433594,0.1391602,0.2353516,-1,1,-2,-2,-2,-3,-2,-1,-2,0,-2,1,-2,0,-1,1,0.5,0.5,0.5,-0.75,-0.75,-0.75,3.165302,2.951508,6.080305,5.825756,2.954807,9.013773,-0.1534853,-0.3768435,1.584125,0.1355056,-0.3794375,1.585757,-0.008146744,0.4902218,1.658824,-0.1976598,-0.3983834,1.594891,0.1778579,-0.4112055,1.593063,-0.008056661,0.004373176,1.692476,-0.008951199,-0.3319996,1.688223,-0.1871569,0.1955719,1.666249,-0.09098869,-0.3237132,1.646416,-0.2141805,-0.04796501,1.659167,0.1921176,-0.0586558,1.684216,NA,NA,NotTracked,Unknown,
0.9614258,-0.2548828,0.112793,0.9414063,0.1381836,0.2304688,1,-3,-1,-2,-1,-1,-2,-2,0,-1,-1,2,0,-8,-8,0,0.3125,0.3125,0.3125,-2.0625,-2.0625,-2.0625,3.165477,2.951339,6.079978,5.824582,2.954563,9.011834,-0.1547336,-0.3666095,1.586096,0.1355507,-0.3796546,1.586652,-0.008145313,0.4901282,1.658906,-0.1990935,-0.3890994,1.595495,0.1778012,-0.4102462,1.592484,-0.008099234,0.004319691,1.69269,-0.008977863,-0.3320397,1.68827,-0.1870445,0.1952386,1.666582,-0.09101599,-0.3237417,1.646484,-0.2141406,-0.04826722,1.659313,0.1920578,-0.05888975,1.684432,NA,NA,NotTracked,Unknown,
0.9545898,-0.2539063,0.1113281,0.9404297,0.1381836,0.2402344,-1,-1,-2,1,0,2,1,3,-3,-5,-1,-3,0,-5,-9,-1,-0.6875,-0.6875,-0.6875,-0.3125,-0.3125,-0.3125,3.165545,2.951769,6.080025,5.823792,2.954817,9.010747,-0.1530505,-0.376727,1.585319,0.1361762,-0.3791796,1.587702,-0.008143444,0.4899091,1.659094,-0.1989804,-0.3984801,1.598539,0.1778258,-0.4109039,1.592848,-0.008055098,0.004286553,1.692882,-0.00890432,-0.3319984,1.688382,-0.1869929,0.1950811,1.666741,-0.09091994,-0.3237082,1.646579,-0.2140993,-0.04781141,1.659499,0.1920501,-0.05904515,1.684744,NA,NA,NotTracked,Unknown,
0.9589844,-0.2553711,0.112793,0.9404297,0.1459961,0.2441406,-3,0,-2,-1,-2,0,-2,-1,0,-1,-1,-1,0,1,-10,-1,-1.5,-1.5,-1.5,-1.125,-1.125,-1.125,3.164879,2.951352,6.077592,5.825544,2.955611,9.008382,-0.1531306,-0.3737948,1.58471,0.1362522,-0.3797221,1.587066,-0.008109204,0.489791,1.659227,-0.1974517,-0.394473,1.595432,0.1783687,-0.4090714,1.593683,-0.008037271,0.004268714,1.69305,-0.008866886,-0.3319205,1.688501,-0.1870616,0.1949169,1.666888,-0.09084957,-0.3236602,1.646676,-0.2137442,-0.04895975,1.659545,0.1919872,-0.05921202,1.685014,NA,NA,NotTracked,Unknown,
0.9970703,-0.3344727,0.07910156,0.9453125,0.1381836,0.2363281,0,-1,-8,0,-6,-2,0,0,-2,0,0,0,-1,2,1,-3,-1.0625,-1.0625,-1.0625,-3.875,-3.875,-3.875,3.150627,2.951946,6.089416,5.823064,2.958345,9.005583,-0.1523264,-0.3750273,1.582444,0.1358675,-0.3792955,1.58745,-0.008116197,0.489616,1.659538,-0.198276,-0.3860847,1.595547,0.177296,-0.4092193,1.591292,-0.008019815,0.004202807,1.693195,-0.008794593,-0.3319247,1.688597,-0.1870038,0.194846,1.666996,-0.09075162,-0.323634,1.646777,-0.2135318,-0.05000493,1.659589,0.1920132,-0.05930483,1.685229,NA,NA,NotTracked,Unknown,
1.063477,-0.3383789,0.03076172,0.9321289,0.1538086,0.2368164,3,1,-3,-35,-87,-15,4,8,-1,0,-1,-2,-3,5,-14,-1,82.3125,82.3125,82.3125,-2,-2,-2,3.172659,3.011887,6.162293,5.824044,2.960052,9.003708,-0.1462941,-0.3419171,1.560426,0.1365044,-0.3788898,1.587712,-0.008081594,0.4892932,1.660184,-0.1873125,-0.3494991,1.5678,0.1775849,-0.4114986,1.59184,-0.007829085,0.004194867,1.693395,-0.008579187,-0.3318816,1.688626,-0.1868846,0.1947591,1.667154,-0.09058551,-0.3235715,1.646788,-0.2147814,-0.04790327,1.660817,0.1920561,-0.0596071,1.685523,NA,NA,NotTracked,Unknown,
1.046387,-0.78125,0.3725586,0.9711914,0.1518555,0.2617188,-1,18,0,-21,-87,2,-2,-3,0,-2,-24,-10,1,-2,-5,0,-34.25,-34.25,-34.25,0.4375,0.4375,0.4375,3.160305,3.276285,6.177498,5.82569,2.96738,9.001425,-0.1049757,-0.2918992,1.515709,0.1361536,-0.3805445,1.587222,-0.007887647,0.4889636,1.66142,-0.1454015,-0.3715206,1.56,0.1782238,-0.4089647,1.593043,-0.007703982,0.004072973,1.693652,-0.008319329,-0.3321279,1.688571,-0.1863934,0.1950964,1.667824,-0.09043668,-0.3242322,1.6469,-0.223875,-0.03976379,1.661204,0.1921069,-0.05979066,1.685739,NA,NA,Unknown,Unknown,
0.9775391,-0.9536133,0.3847656,0.9711914,0.1518555,0.2617188,3,25,24,24,14,-12,-6,-2,0,-2,-24,-10,1,-2,-5,0,3.75,3.75,3.75,0.4375,0.4375,0.4375,3.18156,3.390432,6.155325,5.82569,2.96738,9.001425,-0.07374109,-0.2077038,1.467307,0.135714,-0.3800331,1.584849,-0.007763855,0.488659,1.662926,-0.07274197,-0.2807707,1.500333,0.1765071,-0.4138009,1.591094,-0.007815666,0.00393731,1.694749,-0.008821997,-0.3322623,1.689771,-0.1853699,0.196086,1.668918,-0.09074075,-0.3243618,1.647989,-0.2368106,-0.02553841,1.654085,0.1923652,-0.059338,1.686157,NA,NA,Unknown,Unknown,
0.5610352,-0.8183594,0.5751953,1.414063,0.1289063,0.4013672,-5,-36,-14,-4,-3,-6,11,-3,0,-45,-128,-121,-10,1,2,2,19.4375,19.4375,19.4375,35.625,35.625,35.625,3.308353,4.104012,6.085904,5.838949,3.168263,9.05617,-0.05517741,-0.09969193,1.39122,0.1279353,-0.3707741,1.573694,-0.00789762,0.4883566,1.664735,0.003875212,-0.1404716,1.4565,0.1650437,-0.4066515,1.580583,-0.008741753,0.004139625,1.696565,-0.01115533,-0.3315273,1.691525,-0.1845171,0.1992772,1.668234,-0.09283356,-0.3230258,1.650032,-0.2473388,-0.01498044,1.636789,0.1940809,-0.05852874,1.688898,NA,NA,Unknown,Unknown,
0.2216797,-0.8540039,0.3916016,1.087402,0.7983398,0.9140625,3,-10,1,6,18,-2,-10,4,-6,25,-44,-23,-11,-9,-8,-14,-39,-39,-39,69.75,69.75,69.75,3.240246,4.816458,6.049782,5.96872,3.703441,9.151989,-0.04226597,-0.0001966188,1.361422,0.09874894,-0.2983817,1.540439,-0.008265515,0.4882039,1.667076,0.03729203,-0.0004349588,1.401,0.127212,-0.3515343,1.546,-0.00940292,0.004769047,1.697771,-0.01287396,-0.3300804,1.692501,-0.1809392,0.2015857,1.670995,-0.09410502,-0.3215225,1.6509,-0.2989632,-0.02149539,1.598488,0.1999461,-0.05489761,1.696329,NA,NA,Unknown,Unknown,
0.06689453,-0.7338867,0.4194336,0.2133789,0.4506836,0.878418,-1,0,-2,-18,-7,-6,10,-1,43,-37,-20,-10,5,-2,0,3,-36.25,-36.25,-36.25,-64.9375,-64.9375,-64.9375,3.18272,5.095791,6.024125,5.896053,4.324827,9.170638,-0.03528405,0.06950785,1.341709,0.04339233,-0.1646281,1.519468,-0.008460768,0.4885304,1.669266,0.02958111,0.06710535,1.348555,0.1081876,-0.2365386,1.5645,-0.01035581,0.005683687,1.701853,-0.01333496,-0.328081,1.694286,-0.1811976,0.2052417,1.668151,-0.09383193,-0.3195571,1.652432,-0.2959217,-0.01405697,1.573529,0.207131,-0.03464979,1.709384,NA,NA,Unknown,Unknown,
-0.02050781,-0.7890625,0.4223633,-0.4145508,0.472168,0.4609375,-1,1,1,-9,-7,4,6,-2,-3,-16,4,-21,3,-4,-3,-10,-45.5,-45.5,-45.5,-17.4375,-17.4375,-17.4375,3.11041,5.246661,5.985942,5.856281,5.03915,9.248908,-0.02935981,0.1085073,1.333366,0.02868157,-0.01199788,1.520413,-0.007688029,0.488592,1.672112,-0.01022537,0.03563968,1.422167,-0.03001528,-0.06547242,1.529196,-0.01080523,0.005555029,1.705729,-0.01337193,-0.3281123,1.695034,-0.1807753,0.2091164,1.665772,-0.09376892,-0.3194736,1.652575,-0.281635,0.005185693,1.527885,0.211311,-0.02234585,1.698639,NA,NA,Unknown,Closed,
-0.05859375,-0.8393555,0.4350586,-0.3945313,0.2255859,0.527832,-1,-5,4,-10,1,-2,19,0,24,-8,-18,-58,-34,-4,0,2,-31.5625,-31.5625,-31.5625,-35.75,-35.75,-35.75,3.072642,5.305147,5.944163,5.835969,5.496879,9.342656,-0.02354304,0.142756,1.323508,0.01740105,-0.01613114,1.568165,-0.005772059,0.4888445,1.676376,0.001084042,0.1146671,1.31245,0.01874146,-0.09109622,1.535743,-0.01029249,0.004995346,1.706299,-0.01371959,-0.3294249,1.696323,-0.1813841,0.2127639,1.664277,-0.09397017,-0.3206709,1.653046,-0.2832682,0.01827935,1.517864,0.2006317,-0.03083945,1.662427,NA,NA,Unknown,Unknown,
-0.05859375,-0.8393555,0.4350586,-0.3945313,0.2255859,0.527832,-1,-5,4,-10,1,-2,19,0,24,-8,-18,-58,-34,-4,0,2,-31.5625,-31.5625,-31.5625,-35.75,-35.75,-35.75,3.072642,5.305147,5.944163,5.835969,5.496879,9.342656,-0.006098148,0.1696759,1.32281,-0.009357297,-0.04278788,1.561556,-0.00550525,0.4905412,1.679878,0.05728837,0.1615269,1.320222,0.01224108,-0.1112732,1.530665,-0.01088493,0.004618698,1.70671,-0.01425989,-0.3342192,1.69742,-0.182126,0.2167376,1.663299,-0.09514987,-0.3254713,1.654623,-0.2791044,0.01581607,1.510959,0.1769589,-0.03064935,1.62553,NA,NA,Unknown,Unknown,
-0.190918,-0.859375,0.2841797,-0.4443359,0.4584961,0.5112305,0,-7,7,6,0,-19,8,7,33,14,-13,-10,-5,4,4,8,-12.875,-12.875,-12.875,-28.0625,-28.0625,-28.0625,2.963142,5.448498,5.765358,6.266046,6.539595,9.981046,0.005537057,0.1919793,1.327389,-0.02618086,-0.03285064,1.557149,-0.005962607,0.4950883,1.685366,0.0537742,0.1746596,1.326182,-0.01635375,-0.07412728,1.52775,-0.01281116,0.005270497,1.705735,-0.01502982,-0.3378944,1.697802,-0.1823601,0.2193297,1.662883,-0.09665863,-0.3288607,1.656729,-0.2225098,0.05910931,1.47744,0.159168,-0.01683912,1.599431,NA,NA,Lasso,Unknown,
-0.2363281,-0.8857422,0.2749023,-0.6147461,0.4726563,0.3774414,-4,-9,4,-16,-5,0,-22,-4,-75,-36,8,10,10,5,4,1,-10,-10,-10,-22,-22,-22,2.941132,5.475424,5.724562,6.345448,6.553797,0.1274735,0.01751067,0.2102214,1.335294,-0.1268053,0.1005275,1.434516,-0.006044546,0.4983222,1.689057,0.02601288,0.1767505,1.329039,-0.1499611,0.07638402,1.449,-0.01474082,0.007543958,1.703422,-0.01608785,-0.3390526,1.697659,-0.1828733,0.2213142,1.662605,-0.09809269,-0.3298705,1.657687,-0.2213597,0.06176221,1.477593,0.1414246,-0.01436715,1.585518,NA,NA,NotTracked,Unknown,
-0.2602539,-0.9150391,0.2431641,-0.6826172,0.4208984,0.2714844,-2,0,1,16,1,12,9,-18,34,-30,-29,-8,2,-3,-7,-16,-7.125,-7.125,-7.125,-17.75,-17.75,-17.75,2.890306,5.545283,5.65323,6.227975,6.517482,0.0217244,0.02320692,0.2241911,1.343536,-0.1329774,0.1004886,1.441509,-0.00663547,0.5006663,1.692096,0.05829066,0.2017634,1.344462,-0.135355,0.09466913,1.423818,-0.015632,0.009555938,1.701895,-0.0175001,-0.3393103,1.697153,-0.1837129,0.2241274,1.663028,-0.09967792,-0.3297612,1.65763,-0.2195743,0.06721841,1.476706,0.1390853,-0.01464204,1.583984,NA,NA,NotTracked,NotTracked,
-0.2958984,-0.8676758,0.2080078,-1.001465,0.3754883,0.2675781,3,1,-6,11,1,5,-5,7,27,-55,-23,0,1,1,-3,1,-0.875,-0.875,-0.875,-25,-25,-25,2.880832,5.580628,5.629354,5.910621,6.420795,9.656579,0.01517785,0.2300101,1.352645,-0.1363678,0.1000697,1.453333,-0.006885668,0.5102175,1.692781,0.02611166,0.1950478,1.343476,-0.1468729,0.08402144,1.4446,-0.01624938,0.01226611,1.699836,-0.01957375,-0.3402326,1.696529,-0.1831072,0.2210366,1.662495,-0.1020854,-0.3304923,1.6568,-0.218666,0.06997639,1.478168,0.1349721,-0.01725268,1.582403,NA,NA,NotTracked,NotTracked,
-0.3359375,-0.8696289,0.152832,-0.8041992,0.3867188,0.5678711,-3,-11,-4,-4,-6,2,-1,-10,44,23,15,10,-36,-15,-1,11,8.3125,8.3125,8.3125,-1.8125,-1.8125,-1.8125,2.879957,5.601703,5.617011,5.636518,6.189568,9.293586,0.03925849,0.2485803,1.364883,-0.1393554,0.09959479,1.447977,-0.007572292,0.5198916,1.693805,0.05461156,0.2189997,1.343781,-0.1488552,0.08422042,1.40437,-0.01643863,0.01539986,1.69742,-0.02229639,-0.3415179,1.696007,-0.1835597,0.2227693,1.66328,-0.1050092,-0.3312172,1.655227,-0.2180929,0.07216216,1.479072,0.1258335,-0.02164375,1.575892,NA,NA,Unknown,Unknown,
-0.4594727,-0.8544922,0.2275391,-0.07617188,0.6352539,0.8544922,-7,-9,-6,-22,-3,-2,6,-7,-103,-12,13,-6,-24,-13,-6,-12,12.0625,12.0625,12.0625,-61.3125,-61.3125,-61.3125,2.890733,5.619691,5.59922,5.549851,5.953566,9.134641,0.01018435,0.2087944,1.363077,-0.1446033,0.09595384,1.442266,-0.007603121,0.5207425,1.695651,0.0322438,0.1448512,1.406227,-0.1642892,0.07638524,1.425,-0.01653222,0.01592804,1.696976,-0.02357746,-0.3419511,1.695852,-0.1844299,0.224765,1.66415,-0.1062958,-0.331424,1.654798,-0.2174562,0.0727475,1.480223,0.116479,-0.02037784,1.565011,NA,NA,NotTracked,Unknown,
0.08447266,-1.418945,0.8198242,-0.3105469,0.1831055,0.7773438,-6,-1,-6,-7,-1,-2,6,-1,-2,-46,-10,11,-1,2,3,0,24.5625,24.5625,24.5625,3.1875,3.1875,3.1875,2.893386,5.511758,5.657694,5.519015,5.941076,9.14104,0.001302756,0.1944581,1.359801,-0.06144715,0.1592003,1.376118,-0.007287389,0.5197072,1.698454,0.03272279,0.1320551,1.413638,-0.01248314,0.195474,1.311794,-0.01669084,0.01590097,1.69705,-0.02423588,-0.3421577,1.695799,-0.1845652,0.2255215,1.664597,-0.1069178,-0.331582,1.654658,-0.2177726,0.07214756,1.481054,0.1143572,-0.02095441,1.562234,NA,NA,NotTracked,NotTracked,
-0.5029297,-0.8447266,0.2524414,-0.6274414,0.1518555,0.909668,2,-1,-4,-18,-4,-8,-2,-1,31,45,50,2,7,3,2,9,-24.375,-24.375,-24.375,122.375,122.375,122.375,2.929113,5.511905,5.666188,5.688276,5.922288,9.149776,-0.002633682,0.1915128,1.364755,-0.05822011,0.159567,1.376741,-0.006578205,0.51655,1.700094,0.0280811,0.1353473,1.416923,-0.01227635,0.1981758,1.313676,-0.01714003,0.01572957,1.697548,-0.02457786,-0.3421736,1.695662,-0.1845611,0.2258851,1.664871,-0.1072261,-0.3314795,1.654448,-0.2180757,0.0712568,1.481845,0.1132335,-0.02137012,1.562705,NA,NA,NotTracked,NotTracked,
-0.4140625,-1.010254,0.1928711,-0.9926758,0.7919922,0.5625,-1,-1,-7,-43,-8,-18,7,2,11,-26,-13,11,30,4,-16,-21,19.0625,19.0625,19.0625,185.5625,185.5625,185.5625,2.908496,5.508147,5.660929,6.017968,5.967713,9.197395,-0.01717848,0.1885531,1.35388,0.003225919,0.2099053,1.345954,-0.006757729,0.5116873,1.701793,0.006188971,0.1578323,1.345846,0.05286057,0.2283864,1.333357,-0.01844132,0.01441932,1.698779,-0.02510188,-0.3424978,1.695752,-0.1845526,0.2258885,1.665008,-0.1077068,-0.331716,1.65489,-0.2191521,0.06940576,1.483626,0.1151706,-0.02275475,1.565325,NA,NA,NotTracked,NotTracked,
-0.2763672,-1.07959,0.2192383,-0.7880859,1.133301,0.543457,-2,-4,3,44,2,-14,6,1,13,12,-10,-11,31,-1,5,-9,-51.125,-51.125,-51.125,153.875,153.875,153.875,2.8374,5.490342,5.665424,6.382573,6.106675,9.298166,-0.01930019,0.1845885,1.349406,0.005789701,0.2028725,1.340762,-0.008458403,0.5111765,1.702472,0.01403263,0.1559548,1.335833,0.0625153,0.2213857,1.330333,-0.01910837,0.01402409,1.699097,-0.02557543,-0.3427462,1.695796,-0.1846038,0.2259208,1.665061,-0.1083338,-0.3320872,1.655869,-0.2192068,0.06893294,1.482568,0.1272613,-0.01326071,1.567156,NA,NA,NotTracked,NotTracked,
-0.362793,-1.093262,0.1201172,-0.9282227,0.5400391,0.2836914,1,-3,-9,-19,-6,-10,0,17,16,25,5,5,3,7,-19,-7,-75.25,-75.25,-75.25,144.625,144.625,144.625,2.719848,5.497065,5.651685,6.87981,6.331622,9.661603,0.01962688,0.2005094,1.350441,-0.01427844,0.2041873,1.349714,-0.01209756,0.5106596,1.704973,0.05723492,0.1776357,1.332471,0.03265978,0.22875,1.328556,-0.01991849,0.0131513,1.699387,-0.0259056,-0.3434511,1.696174,-0.1846929,0.2259629,1.665116,-0.1089354,-0.3334155,1.658764,-0.2220852,0.06878049,1.480568,0.1487707,0.008935212,1.554491,NA,NA,NotTracked,NotTracked,
-0.3828125,-1.007813,0.1279297,-0.8193359,0.4921875,0.2861328,-2,-4,2,5,1,13,10,2,-2,-17,-5,-8,-32,25,62,26,-63,-63,-63,123.125,123.125,123.125,2.59514,5.530349,5.591496,7.281963,6.447899,9.886414,0.02802041,0.2090132,1.354361,0.01977724,0.20662,1.35589,-0.01642299,0.510145,1.707669,0.08338374,0.1922094,1.3482,0.07301454,0.2307381,1.352267,-0.02046634,0.0123688,1.699351,-0.02600935,-0.3439515,1.696377,-0.1846078,0.2252161,1.664754,-0.1093455,-0.3344807,1.66101,-0.2254835,0.07023072,1.480644,0.1627334,0.03285753,1.52479,NA,NA,NotTracked,NotTracked,
-0.4506836,-0.972168,-0.006347656,-0.8837891,0.6357422,0.1591797,-4,1,0,12,-1,5,-15,-23,3,-9,-6,12,49,-95,40,-20,-38.5625,-38.5625,-38.5625,86.3125,86.3125,86.3125,2.48323,5.567171,5.513799,7.599815,6.502725,0.05481443,0.005400345,0.2112394,1.357547,0.02134068,0.2159542,1.358016,-0.02059718,0.5083644,1.709556,0.02125807,0.1844085,1.337533,0.06897242,0.233514,1.348667,-0.02107245,0.01183358,1.699503,-0.0259687,-0.3439206,1.696488,-0.184614,0.2245368,1.664552,-0.1094262,-0.3345714,1.661794,-0.2387186,0.07877279,1.481219,0.1702221,0.07473985,1.496318,NA,NA,NotTracked,NotTracked,
-0.3876953,-0.8681641,-0.1049805,-0.9370117,0.4609375,-0.159668,-3,3,7,19,0,-20,-2,0,-13,-9,0,0,-46,81,-18,13,-56.5,-56.5,-56.5,29.75,29.75,29.75,2.388978,5.597055,5.441016,7.743119,6.529968,0.1120165,0.0433354,0.2311619,1.357877,0.002779353,0.3310935,1.277814,-0.02500898,0.5068806,1.70905,0.07280277,0.2126149,1.3293,0.03618623,0.3508958,1.274865,-0.02169845,0.01069612,1.699648,-0.02595338,-0.3438983,1.696508,-0.1839496,0.2222108,1.663688,-0.1094854,-0.33463,1.66171,-0.2394028,0.08870116,1.474086,0.157942,0.1444803,1.455442,NA,NA,NotTracked,NotTracked,
-0.265625,-0.9155273,-0.1020508,-0.6958008,0.2910156,-0.340332,11,2,-3,-15,-9,2,-10,-10,1,8,14,35,44,34,127,4,-84.0625,-84.0625,-84.0625,-3.625,-3.625,-3.625,2.242211,5.600233,5.388235,7.613782,6.515926,9.946463,0.03982284,0.2385098,1.357926,0.008797016,0.3726013,1.429939,-0.02872324,0.5093722,1.711889,0.08439153,0.2276326,1.3286,0.004316061,0.3456356,1.460421,-0.02165793,0.01019806,1.69991,-0.02552373,-0.3430268,1.696643,-0.1821386,0.2193941,1.662544,-0.1093491,-0.3339771,1.661242,-0.2436474,0.09736997,1.471432,0.1542673,0.1661951,1.448105,NA,NA,NotTracked,NotTracked,
-0.2973633,-0.7954102,-0.2412109,-0.4111328,0.3598633,0.1679688,-4,-3,-4,-17,-2,-16,-33,-5,-7,3,4,23,-31,-55,-54,-13,-118.875,-118.875,-118.875,10.9375,10.9375,10.9375,2.03981,5.571548,5.31623,7.342407,6.349738,9.585218,0.004328369,0.2186266,1.372435,0.02245792,0.3318303,1.363176,-0.02992235,0.5094669,1.714187,0.03139692,0.2200429,1.3955,0.0516387,0.3241641,1.411,-0.02177571,0.01128018,1.701789,-0.02513366,-0.3407729,1.696848,-0.1774888,0.2163638,1.664094,-0.1095023,-0.3315948,1.660104,-0.2473279,0.1051471,1.469623,0.1486786,0.188941,1.447009,NA,NA,NotTracked,NotTracked,
-0.1333008,-1.02832,-0.3339844,-0.2700195,0.7045898,0.2197266,-5,1,1,8,-8,12,6,3,-4,-4,-7,29,8,-3,-64,19,-101,-101,-101,-14.5625,-14.5625,-14.5625,1.776819,5.456048,5.306942,7.099199,5.921897,9.197593,0.007352568,0.2453193,1.322578,0.01965261,0.2650545,1.318586,-0.03253138,0.5325491,1.710977,0.05127036,0.2225718,1.333077,0.05670134,0.3064933,1.3247,-0.02233959,0.02364727,1.703807,-0.02373109,-0.3374984,1.696864,-0.1761294,0.2167068,1.667168,-0.1085541,-0.3293472,1.659926,-0.2506314,0.111043,1.467778,0.1444789,0.1921208,1.451514,NA,NA,NotTracked,NotTracked,
-0.2216797,-0.7119141,-0.4960938,-0.3891602,0.8276367,0.3964844,10,4,5,16,28,10,22,2,-20,-6,-2,-4,-20,55,-17,-10,-35.625,-35.625,-35.625,-6.8125,-6.8125,-6.8125,1.720062,5.319205,5.30831,7.027705,5.707394,9.104196,0.02633877,0.2061671,1.32757,-0.1706857,0.1417482,1.394117,-0.03234442,0.5333512,1.714107,0.07390116,0.1761702,1.368353,-0.1750357,0.1598825,1.36876,-0.02317033,0.02730929,1.703507,-0.02374752,-0.3330755,1.696685,-0.1814059,0.2447789,1.680802,-0.1083355,-0.325171,1.659997,-0.2538174,0.1156035,1.465111,0.1396661,0.182919,1.452796,NA,NA,NotTracked,NotTracked,
-0.1889648,-0.8183594,-0.4858398,-0.4418945,1.012207,0.3637695,1,2,-2,-28,-2,-7,-2,0,2,-7,-3,3,2,-37,-32,18,-20.125,-20.125,-20.125,-5.3125,-5.3125,-5.3125,1.641545,5.155847,5.304025,6.990298,5.571422,9.054589,0.03263777,0.177521,1.323705,-0.2482874,0.1235957,1.427401,-0.03061977,0.517334,1.719831,0.09034353,0.1454304,1.3665,-0.1948516,0.09069605,1.480857,-0.02284251,0.0228214,1.704262,-0.02366718,-0.3333896,1.69664,-0.182059,0.2362969,1.673292,-0.1080023,-0.3260053,1.660935,-0.2591413,0.1201504,1.465414,0.132856,0.1641142,1.436997,NA,NA,NotTracked,NotTracked,
-0.1157227,-0.9492188,-0.480957,-0.4072266,0.9692383,0.4067383,0,3,0,-2,2,-16,38,6,0,-1,-2,10,26,-3,45,7,-4.5625,-4.5625,-4.5625,-15.8125,-15.8125,-15.8125,1.632417,5.090251,5.301538,6.946007,5.48878,9.021787,0.03301949,0.1570111,1.322819,-0.2343826,0.1196896,1.418193,-0.02838433,0.5073181,1.721528,0.09186473,0.1356676,1.367369,-0.1934705,0.08538418,1.4805,-0.02192031,0.01810266,1.705826,-0.02323603,-0.3338154,1.696836,-0.1820088,0.2322112,1.669308,-0.1069162,-0.3268095,1.661937,-0.2633275,0.118963,1.462949,0.135768,0.1486348,1.437932,NA,NA,NotTracked,NotTracked,
-0.08837891,-0.9169922,-0.527832,-0.3505859,0.9301758,0.3999023,1,0,-3,-10,1,17,36,6,8,5,-1,-20,-14,-3,-20,30,19.5,19.5,19.5,-10.125,-10.125,-10.125,1.649357,5.023057,5.308565,6.912839,5.469502,9.001563,0.03261558,0.1454586,1.322748,-0.2341243,0.1147866,1.420302,-0.02662901,0.4966225,1.723557,0.02467843,0.08136754,1.293043,-0.1975534,0.07748795,1.47075,-0.02079019,0.01550354,1.708626,-0.02104157,-0.3319563,1.698014,-0.1817725,0.2293506,1.667004,-0.1033729,-0.3252106,1.663228,-0.2659596,0.1165311,1.460817,0.1367726,0.1402841,1.438101,NA,NA,NotTracked,NotTracked,
-0.04443359,-0.9033203,-0.5859375,-0.2993164,0.8847656,0.3950195,0,3,9,37,3,7,4,8,27,6,0,-26,-30,7,85,17,9.9375,9.9375,9.9375,-12.375,-12.375,-12.375,1.663759,5.020931,5.312279,6.886917,5.459791,8.995358,0.03150953,0.1417498,1.322025,-0.2335427,0.1113394,1.421251,-0.02572493,0.4931785,1.724033,0.08759139,0.1227869,1.370578,-0.1933387,0.07513039,1.454125,-0.02037246,0.01371282,1.711055,-0.01998712,-0.3304312,1.699155,-0.181625,0.2275665,1.665765,-0.1017263,-0.32393,1.663995,-0.2676471,0.1138976,1.462861,0.1370946,0.1341273,1.438278,NA,NA,NotTracked,NotTracked,
-0.006347656,-0.8896484,-0.5385742,-0.3051758,0.9189453,0.3740234,16,3,-3,7,1,0,-28,-21,-28,-6,-5,-12,-22,-41,-71,-15,9.0625,9.0625,9.0625,-8.5,-8.5,-8.5,1.672127,5.025183,5.313703,6.873828,5.45477,8.99687,0.03118194,0.1405661,1.323192,-0.2366898,0.1103871,1.424802,-0.02495142,0.4921767,1.723749,0.02012062,0.07396176,1.2952,-0.1950154,0.07403236,1.4818,-0.02005869,0.01282536,1.712333,-0.0191759,-0.3294905,1.699767,-0.1814029,0.2264268,1.664981,-0.100532,-0.3230987,1.664156,-0.2704844,0.1117057,1.464397,0.1365204,0.1300217,1.439325,NA,NA,NotTracked,NotTracked,
-0.01074219,-0.8608398,-0.550293,-0.340332,0.9257813,0.3686523,-13,-2,-1,-46,5,2,13,8,-56,-4,3,10,32,52,33,-19,6.625,6.625,6.625,-0.6875,-0.6875,-0.6875,1.679803,5.036028,5.319853,6.867128,5.46036,8.99781,0.02632873,0.1375098,1.322399,-0.183278,0.1109357,1.402413,-0.02440527,0.4912881,1.723498,0.01991758,0.07272974,1.297106,-0.1918319,0.07452571,1.454984,-0.01991187,0.01218765,1.713311,-0.0187016,-0.328876,1.700398,-0.1812973,0.2258243,1.664674,-0.09997723,-0.3226318,1.664365,-0.2708634,0.1111896,1.466025,0.1391142,0.1283178,1.443235,NA,NA,NotTracked,NotTracked,
-0.03417969,-0.84375,-0.5053711,-0.2788086,0.8574219,0.3964844,-10,-3,-1,-1,-7,-6,3,-5,-57,-4,-2,-1,-2,-30,-26,-23,4.8125,4.8125,4.8125,-0.875,-0.875,-0.875,1.685982,5.033301,5.323905,6.855648,5.462132,8.994216,0.02414698,0.1357501,1.322334,-0.2319428,0.1092909,1.422185,-0.02402559,0.4909499,1.723389,0.01819313,0.07066585,1.297409,-0.1914533,0.07312077,1.463429,-0.01980059,0.01185204,1.713808,-0.01836029,-0.3284858,1.70088,-0.181255,0.2253477,1.664484,-0.09951082,-0.3223118,1.664523,-0.2712041,0.1104771,1.466298,0.1385018,0.1260995,1.443887,NA,NA,NotTracked,NotTracked,
-0.008789063,-0.8579102,-0.4936523,-0.3154297,0.8896484,0.3740234,2,-3,6,67,8,1,27,8,3,6,7,12,15,39,66,-17,-10.4375,-10.4375,-10.4375,1.75,1.75,1.75,1.677522,5.027112,5.324669,6.863091,5.461119,8.99776,0.02453489,0.1350076,1.323892,-0.2404954,0.1085943,1.427696,-0.02374564,0.4906088,1.723139,0.08500284,0.1194687,1.37412,-0.1983492,0.0737651,1.454727,-0.0196731,0.01148476,1.714435,-0.01813951,-0.3282436,1.701422,-0.1811979,0.2251453,1.664442,-0.09918912,-0.3221291,1.664805,-0.2720273,0.1113065,1.47059,0.1339401,0.1237707,1.440159,NA,NA,NotTracked,NotTracked,
-0.03222656,-0.8989258,-0.4760742,-0.3007813,0.8881836,0.3793945,-3,0,1,-3,-9,-5,18,-3,18,1,-2,-64,-69,0,13,-19,-2.8125,-2.8125,-2.8125,-1.1875,-1.1875,-1.1875,1.676631,5.023232,5.320995,6.866675,5.461067,8.994388,0.02457915,0.1345237,1.324981,-0.2421965,0.1078182,1.431201,-0.02354395,0.4904337,1.722938,0.0198295,0.06789893,1.302993,-0.1921207,0.07206667,1.4908,-0.01965513,0.009566559,1.716894,-0.01794508,-0.3279021,1.701989,-0.1810794,0.2247907,1.664421,-0.09890595,-0.3218045,1.665115,-0.2722946,0.1108015,1.470347,0.1322726,0.1226385,1.439305,NA,NA,NotTracked,NotTracked,
-0.04345703,-0.8867188,-0.4838867,-0.3134766,0.8754883,0.4052734,0,1,-1,1,4,-2,9,0,1,0,2,-16,-37,27,13,28,6.4375,6.4375,6.4375,-3,-3,-3,1.680626,5.024773,5.319234,6.863336,5.461405,8.993282,0.02608751,0.1319053,1.325948,-0.241101,0.1065717,1.429185,-0.02336014,0.4901547,1.722772,0.01982206,0.06789046,1.303429,-0.2580021,0.1498336,1.45525,-0.01967599,0.008349109,1.718338,-0.01780812,-0.3276747,1.70273,-0.1809902,0.2243724,1.664322,-0.09870467,-0.3216615,1.665561,-0.2726224,0.1126123,1.473503,0.1318114,0.1219853,1.439291,NA,NA,NotTracked,NotTracked,
