ALX,ALY,ALZ,ARX,ARY,ARZ,EMG0L,EMG1L,EMG2L,EMG3L,EMG4L,EMG5L,EMG6L,EMG7L,EMG0R,EMG1R,EMG2R,EMG3R,EMG4R,EMG5R,EMG6R,EMG7R,GLX,GLY,GLZ,GRX,GRY,GRZ,ORL,OPL,OYL,ORR,OPR,OYR,LHNX,LHNY,LHNZ,RHNX,RHNY,RHNZ,HX,HY,HZ,LTX,LTY,LTZ,RTX,RTY,RTZ,SpineMidX,SpineMidY,SpineMidZ,SpineBaseX,SpineBaseY,SpineBaseZ,ShoulderLeftX,ShoulderLeftY,ShoulderLeftZ,ShoulderRightX,ShoulderRightY,ShoulderRightZ,ElbowLeftX,ElbowLeftY,ElbowLeftZ,ElbowRightX,ElbowRightY,ElbowRightZ,Myo_Pose_left,Myo_Pose_Right,Kinect_pose_left,Kinect_pose_right
0.9550781,-0.2651367,0.1181641,0.9458008,0.1176758,0.2333984,0,-1,-3,-2,-2,0,0,-1,0,0,-1,0,2,6,4,-1,2.0625,2.0625,2.0625,-0.1875,-0.1875,-0.1875,3.219256,2.97042,6.094871,5.744163,2.92877,7.994541,-0.1591446,-0.3628885,1.578531,0.1439524,-0.3377903,1.589434,-0.01176579,0.4866423,1.663959,-0.1301706,-0.3662159,1.54214,0.1004514,-0.315039,1.563978,-0.009718912,0.002520594,1.69218,-0.01079168,-0.3327505,1.68631,-0.1879449,0.1962602,1.667324,-0.09273121,-0.3248835,1.644348,-0.2136977,-0.05316743,1.660548,0.1826692,-0.06430425,1.669063,NA,NA,NotTracked,NotTracked,
0.9550781,-0.2612305,0.1206055,0.9453125,0.1098633,0.2324219,3,2,-2,-1,-1,-1,-3,-3,-1,0,-1,-5,-4,-2,-3,-2,0.875,0.875,0.875,0.0625,0.0625,0.0625,3.220221,2.970351,6.095197,5.744163,2.92877,7.994541,-0.1587828,-0.3655936,1.577945,0.1443827,-0.3385351,1.589249,-0.01175866,0.4866452,1.66401,-0.1226672,-0.3304959,1.569932,0.09952664,-0.3300033,1.563334,-0.009732333,0.002501956,1.692216,-0.01078209,-0.3327865,1.686339,-0.1880372,0.196138,1.667448,-0.09270668,-0.3249383,1.644407,-0.2137498,-0.05251,1.660719,0.182704,-0.06427188,1.669112,NA,NA,NotTracked,NotTracked,
0.9521484,-0.2539063,0.125,0.9453125,0.1123047,0.2314453,-5,-2,-1,-1,-1,-1,-2,-2,0,-2,-2,0,-2,6,-13,-1,-0.0625,-0.0625,-0.0625,-0.625,-0.625,-0.625,3.220221,2.970351,6.095197,5.745964,2.928804,7.9951,-0.1584242,-0.3652973,1.578331,0.1447538,-0.3347776,1.590886,-0.01174175,0.4866815,1.664278,-0.1307089,-0.3659611,1.543299,0.1010234,-0.3143187,1.564694,-0.009743667,0.002515861,1.69232,-0.01071585,-0.3328073,1.686424,-0.188032,0.1960377,1.66754,-0.09262969,-0.324975,1.64451,-0.2135542,-0.05329992,1.660666,0.1827452,-0.06426507,1.669261,NA,NA,NotTracked,NotTracked,
0.9580078,-0.2661133,0.1230469,0.9492188,0.1171875,0.2329102,-2,0,-1,-1,1,-1,-1,0,0,-2,-3,-1,4,-7,-6,-1,-1.3125,-1.3125,-1.3125,2.25,2.25,2.25,3.218012,2.970189,6.096529,5.746445,2.929244,7.996185,-0.1580951,-0.3651433,1.579784,0.1452092,-0.3351565,1.591254,-0.01171452,0.4867791,1.664681,-0.1327794,-0.3683785,1.540779,0.1019987,-0.3084697,1.566442,-0.009724079,0.002547227,1.692537,-0.01067621,-0.3328034,1.686586,-0.1879748,0.1960561,1.667829,-0.09257614,-0.3249382,1.644712,-0.2132075,-0.0523431,1.661248,0.182846,-0.06421901,1.6696,NA,NA,NotTracked,NotTracked,
0.9580078,-0.2661133,0.1230469,0.9487305,0.1201172,0.2285156,-1,1,-2,-4,-2,0,-2,0,1,0,1,-1,-1,14,-3,-1,-1.3125,-1.3125,-1.3125,0.5,0.5,0.5,3.218012,2.970189,6.096529,5.746445,2.929244,7.996185,-0.1578629,-0.3646796,1.579094,0.145462,-0.334467,1.591501,-0.01167028,0.4867683,1.664808,-0.121773,-0.3297788,1.573298,0.09955868,-0.3314557,1.5644,-0.009773338,0.002567005,1.692871,-0.01067607,-0.3328131,1.686809,-0.1880064,0.1960028,1.668149,-0.09255766,-0.3249514,1.644898,-0.2129773,-0.05335714,1.661536,0.1829247,-0.06419585,1.669875,NA,NA,NotTracked,NotTracked,
0.9599609,-0.2675781,0.1230469,0.9443359,0.1142578,0.2290039,-2,-2,-3,1,-3,0,0,2,-1,0,2,-2,-1,1,1,-1,0.4375,0.4375,0.4375,-0.625,-0.625,-0.625,3.219548,2.969552,6.09787,5.747792,2.928637,7.995365,-0.1579092,-0.3653068,1.579355,0.1360775,-0.3658037,1.585746,-0.01159818,0.4867319,1.664933,-0.132954,-0.3697192,1.54135,0.09572896,-0.3225292,1.560858,-0.009722412,0.002488308,1.692941,-0.01061432,-0.3328893,1.686888,-0.1879378,0.1958667,1.668236,-0.09249652,-0.3250369,1.644966,-0.2128317,-0.05383501,1.661577,0.1830299,-0.06442719,1.670062,NA,NA,NotTracked,Unknown,
0.9560547,-0.2597656,0.1186523,0.9423828,0.1210938,0.2333984,-1,0,0,0,-1,1,-2,-5,-2,0,-2,-5,-3,-16,-10,-4,0.75,0.75,0.75,1.25,1.25,1.25,3.219368,2.969706,6.098198,5.748605,2.929336,7.99543,-0.1573792,-0.364547,1.579302,0.1403168,-0.3600748,1.585389,-0.01151232,0.4867109,1.665146,-0.1326181,-0.3694648,1.54137,0.09829665,-0.331444,1.560133,-0.009606862,0.002468966,1.693047,-0.0105026,-0.3329358,1.68698,-0.1878559,0.1957467,1.668433,-0.09237441,-0.3250831,1.64515,-0.2132552,-0.05266155,1.662115,0.1831007,-0.06454647,1.670185,NA,NA,NotTracked,NotTracked,
0.9599609,-0.2724609,0.1254883,0.9536133,0.1132813,0.2353516,-1,-2,-2,-4,-2,-1,-1,0,-3,-2,0,-1,3,1,-15,-2,-1.625,-1.625,-1.625,-2.5625,-2.5625,-2.5625,3.215093,2.970095,6.100204,5.746551,2.931292,7.994941,-0.1567703,-0.3643924,1.580047,0.1408792,-0.3606316,1.58727,-0.01128446,0.4867959,1.665683,-0.1295119,-0.3687833,1.544305,0.1035309,-0.3731372,1.561244,-0.009458981,0.002477107,1.693376,-0.01042966,-0.3329824,1.687291,-0.1877125,0.1957474,1.668762,-0.09229532,-0.3251265,1.645508,-0.2128147,-0.0535043,1.662406,0.1832902,-0.06455009,1.670783,NA,NA,NotTracked,NotTracked,
0.9619141,-0.2822266,0.1147461,1.018555,0.109375,0.2167969,4,-5,-2,-5,-3,0,-3,-3,12,-2,-3,5,-1,-1,3,-4,-0.75,-0.75,-0.75,-6.75,-6.75,-6.75,3.213581,2.970273,6.101857,5.735493,2.94875,7.997488,-0.1579525,-0.3637595,1.579209,0.1443058,-0.3391886,1.590328,-0.01098201,0.4868166,1.666196,-0.1318018,-0.3694216,1.540941,0.1011661,-0.3124031,1.565725,-0.009343753,0.002488055,1.693583,-0.0102987,-0.3329639,1.687417,-0.1875346,0.1956233,1.669127,-0.09215245,-0.3251288,1.645693,-0.2126202,-0.05214093,1.662913,0.1834657,-0.06462235,1.671317,NA,NA,NotTracked,Unknown,
0.9619141,-0.2822266,0.1147461,1.057617,0.08984375,0.2050781,-1,-2,0,-9,-16,-12,-6,-11,0,-36,10,36,2,1,-1,0,-0.75,-0.75,-0.75,1.125,1.125,1.125,3.213581,2.970273,6.101857,5.731034,2.966451,8.002692,-0.1558431,-0.3564249,1.568805,0.1386219,-0.3567812,1.579453,-0.01062973,0.4866759,1.667168,-0.1212701,-0.3196075,1.572032,0.09785381,-0.3527178,1.557719,-0.009130987,0.002462345,1.693885,-0.01006356,-0.332967,1.687459,-0.1872592,0.195604,1.66969,-0.09193978,-0.3251443,1.645741,-0.2125764,-0.05220968,1.662971,0.1842456,-0.06434272,1.672904,NA,NA,NotTracked,Unknown,
1.034668,-0.3149414,0.07568359,1.32959,0.3232422,0.6821289,2,0,4,-5,2,2,-9,-6,-19,-16,-106,-92,-15,-5,-6,-14,42.0625,42.0625,42.0625,120.5,120.5,120.5,3.215854,3.045506,6.16933,5.819639,3.352872,8.097694,-0.147832,-0.3382724,1.545859,0.122444,-0.3328826,1.551401,-0.01030536,0.4866964,1.668771,-0.1236866,-0.341785,1.500059,0.104348,-0.3319833,1.514538,-0.008935837,0.002508159,1.694179,-0.009962332,-0.3329763,1.687407,-0.1871042,0.1955136,1.670099,-0.09188216,-0.3251471,1.64571,-0.2129398,-0.05016362,1.663631,0.1883063,-0.06108625,1.685186,NA,NA,NotTracked,Unknown,
0.9663086,-0.4838867,0.2792969,0.6806641,0.6079102,1.035156,-3,0,-1,3,24,-1,-7,-4,17,-2,1,16,1,-4,-1,-3,22.5625,22.5625,22.5625,-87.5,-87.5,-87.5,3.276403,3.174826,6.147849,5.835741,3.995887,8.138409,-0.1404648,-0.28627,1.540114,0.06564433,-0.2635773,1.522141,-0.009841962,0.4868856,1.670309,-0.09163784,-0.2228531,1.5363,0.05039246,-0.2143903,1.484084,-0.008655562,0.002388127,1.694663,-0.009682002,-0.3334325,1.687776,-0.1865805,0.1956739,1.67061,-0.09160075,-0.3255152,1.646014,-0.2150034,-0.04517291,1.664566,0.193037,-0.05245727,1.697677,NA,NA,Unknown,Unknown,
0.7504883,-0.6484375,0.496582,-0.02392578,0.3076172,0.7084961,-3,-10,0,-6,-6,-2,-7,-6,-1,20,-17,13,-11,0,-3,-1,-20.125,-20.125,-20.125,49.4375,49.4375,49.4375,3.390455,3.633509,6.069633,5.762766,4.586078,8.215783,-0.1232782,-0.238317,1.497464,0.03973157,-0.1149034,1.489217,-0.009134448,0.4870123,1.67183,-0.08214436,-0.2453712,1.529516,0.07184599,-0.09180325,1.419622,-0.007672779,0.002441206,1.69661,-0.009130689,-0.3331429,1.690293,-0.1848579,0.1965051,1.671124,-0.09058611,-0.3258186,1.648899,-0.2203152,-0.03673375,1.663328,0.1969211,-0.03696778,1.704801,NA,NA,NotTracked,Unknown,
0.4912109,-0.7275391,0.4423828,-0.2719727,0.4853516,0.6806641,1,4,-4,-7,4,2,3,1,3,31,-7,-2,0,0,9,-1,-37.75,-37.75,-37.75,-3,-3,-3,3.363169,3.917476,6.016565,5.871984,5.322237,8.377603,-0.1037209,-0.1913585,1.450187,0.02542051,0.02524737,1.462799,-0.007270384,0.4876983,1.675496,-0.05200608,-0.2102708,1.400333,0.05645203,0.03307428,1.402523,-0.008281845,0.005927714,1.702302,-0.009193749,-0.3310324,1.694555,-0.1822672,0.1980001,1.671483,-0.08985068,-0.3237492,1.652306,-0.221541,-0.02750121,1.657164,0.2019416,-0.02633834,1.662408,NA,NA,Unknown,Closed,
0.4404297,-0.7368164,0.4169922,-0.1723633,0.2075195,0.8388672,-2,-4,-3,-21,-6,-6,-19,-33,-46,-21,-50,-4,-8,-4,-1,0,-25.75,-25.75,-25.75,26.1875,26.1875,26.1875,3.346175,4.081107,5.989442,5.924611,5.62355,8.516794,-0.09001608,-0.1524502,1.396083,0.02527577,0.1400776,1.480545,-0.004904539,0.4880179,1.680106,-0.0474861,-0.1293839,1.3855,0.04868106,0.1487404,1.423837,-0.007925631,0.005217094,1.703925,-0.00945663,-0.3313176,1.696321,-0.1802632,0.1991711,1.671136,-0.08972377,-0.3235645,1.653332,-0.2196547,-0.02102286,1.642294,0.2005866,-0.02530636,1.640382,NA,NA,Unknown,Closed,
0.5263672,-0.8452148,0.5141602,-0.4233398,0.4296875,0.5756836,3,0,9,15,-2,-2,6,-10,27,-28,9,-32,-11,-2,-4,-7,-14.25,-14.25,-14.25,10.25,10.25,10.25,3.326204,4.314944,5.942134,6.141093,6.123969,8.776356,-0.07424816,-0.1144515,1.361647,0.02993458,0.2220516,1.505336,-0.004348841,0.4914352,1.687145,-0.05657095,-0.08915564,1.319143,0.05570114,0.2330976,1.46373,-0.00923452,0.006124539,1.705255,-0.01086779,-0.3328244,1.697206,-0.1760555,0.2031708,1.671269,-0.0914524,-0.3244815,1.6552,-0.2219123,-0.01363911,1.621483,0.186168,-0.01619377,1.615988,NA,NA,Unknown,Unknown,
0.5356445,-0.8168945,0.484375,-0.5844727,0.456543,0.3500977,-5,0,9,-29,5,-2,-4,0,43,-27,-17,0,4,-3,7,13,-14.875,-14.875,-14.875,0.5,0.5,0.5,3.323995,4.45643,5.917371,6.335958,6.41314,9.04957,-0.03806839,-0.06810173,1.316143,0.0390965,0.2701924,1.527199,-0.006016755,0.4982099,1.695085,-0.041519,-0.04146338,1.285353,0.00821958,0.2350659,1.5878,-0.01095168,0.006404386,1.705698,-0.01201333,-0.3338389,1.697802,-0.172301,0.2067235,1.671426,-0.09342125,-0.3252561,1.657759,-0.221968,-0.004826446,1.600313,0.1705734,-0.004467444,1.576018,NA,NA,Unknown,Unknown,
0.3754883,-0.890625,0.4897461,-0.7041016,0.4492188,0.4003906,-6,-4,1,3,0,5,-3,-3,-6,-1,4,-4,-16,-8,0,1,-23.625,-23.625,-23.625,-15.375,-15.375,-15.375,3.290643,4.605452,5.89876,6.437399,6.493166,9.193766,-0.01577885,-0.01617237,1.29458,0.03558148,0.2911295,1.553654,-0.007088278,0.5004863,1.699833,-0.03094488,0.01234472,1.264706,0.001254793,0.2490262,1.611756,-0.01227889,0.007011317,1.706158,-0.01280392,-0.3335674,1.698003,-0.1693786,0.2089908,1.670929,-0.09456277,-0.324606,1.659386,-0.217345,0.008859691,1.566498,0.1663407,-0.0008247294,1.565741,NA,NA,Unknown,Unknown,
0.2871094,-0.8408203,0.4389648,-0.8051758,0.4707031,0.3886719,1,2,-5,2,-5,-29,2,4,16,47,1,16,-1,1,4,4,-30.5625,-30.5625,-30.5625,-22.8125,-22.8125,-22.8125,3.219978,4.824068,5.87147,6.476158,6.534008,9.291016,-0.02561244,0.02530828,1.287365,0.03564877,0.2957066,1.559714,-0.0072101,0.5025849,1.703934,-0.0246629,0.05874157,1.254471,0.0005625315,0.2604289,1.615179,-0.01286171,0.007627287,1.706436,-0.01337876,-0.3326867,1.698001,-0.1677073,0.210397,1.670378,-0.09492582,-0.3234169,1.660396,-0.2153757,0.02022092,1.546596,0.1637956,0.001753473,1.558574,NA,NA,Unknown,Unknown,
0.1083984,-0.8061523,0.3847656,-0.8574219,0.4526367,0.3095703,-2,-3,1,19,-5,-22,-5,-4,40,25,-15,-14,-9,-5,3,16,-29.3125,-29.3125,-29.3125,-20.0625,-20.0625,-20.0625,3.18354,4.924784,5.844392,6.53119,6.589946,9.418019,-0.003653512,0.06521383,1.279564,0.03465651,0.2955266,1.566769,-0.006495495,0.5041213,1.707849,-0.02536505,0.09334794,1.251889,-0.0008036918,0.25435,1.614026,-0.01326296,0.008078205,1.706673,-0.01371221,-0.3323517,1.697859,-0.1656787,0.2117912,1.669692,-0.09505133,-0.3231119,1.660321,-0.2144943,0.03172615,1.53073,0.1633567,0.002859802,1.556919,NA,NA,Unknown,Unknown,
0.1230469,-0.8535156,0.4511719,-0.8574219,0.4526367,0.3095703,10,5,8,59,-6,-10,20,0,40,25,-15,-14,-9,-5,3,16,-29.5625,-29.5625,-29.5625,-20.0625,-20.0625,-20.0625,3.170114,4.952049,5.833843,6.53119,6.589946,9.418019,-0.003997022,0.09616413,1.28187,0.03462004,0.2950227,1.569126,-0.0045154,0.5053657,1.712017,-0.02030892,0.1266007,1.2572,-0.0009368361,0.2532113,1.615635,-0.01373394,0.00877496,1.70708,-0.01412634,-0.3319292,1.697777,-0.1642111,0.2135657,1.669229,-0.09535579,-0.3225617,1.660398,-0.2165317,0.03958681,1.523442,0.1602558,0.005332084,1.557928,NA,NA,Unknown,NotTracked,
-0.04296875,-0.9550781,0.3525391,-0.8574219,0.4433594,0.3320313,9,30,-1,34,-2,-2,-16,-21,0,1,-9,28,17,-1,-2,-2,-25.0625,-25.0625,-25.0625,-4.5625,-4.5625,-4.5625,3.093764,5.11355,5.754752,6.578392,6.649671,9.512334,0.001339519,0.1229905,1.288476,0.03451844,0.3131726,1.563157,-0.002589738,0.5073811,1.716229,-0.01611076,0.1546734,1.261824,-0.001651704,0.3057427,1.581231,-0.01388898,0.009001283,1.70722,-0.0145712,-0.3324816,1.697424,-0.1634232,0.2154497,1.668908,-0.09587026,-0.3230884,1.660082,-0.2135397,0.04884955,1.507819,0.1517519,0.006880601,1.55525,NA,NA,Unknown,Unknown,
-0.08496094,-0.925293,0.3183594,-0.8154297,0.4038086,0.3198242,-1,-1,-1,-12,8,3,5,6,-21,2,-9,-6,-14,-2,-1,-5,-36.8125,-36.8125,-36.8125,-0.875,-0.875,-0.875,3.037066,5.185243,5.719332,6.574584,6.676181,9.515358,0.005739922,0.1474152,1.294823,0.03557689,0.3145146,1.561757,-0.001711685,0.5089079,1.719881,-0.01207513,0.1773588,1.267955,-0.004813559,0.3190434,1.6072,-0.01423626,0.009154543,1.70745,-0.01613333,-0.3359474,1.696864,-0.1631561,0.2177967,1.669127,-0.09823082,-0.3272053,1.661007,-0.2168254,0.04957991,1.500972,0.1491262,0.005735471,1.554876,NA,NA,Unknown,Unknown,
-0.1142578,-0.8891602,0.2900391,-0.8115234,0.3706055,0.2539063,-2,6,-3,6,-5,-10,13,11,-6,20,49,3,-18,0,1,-4,-27.375,-27.375,-27.375,-13.75,-13.75,-13.75,2.971972,5.252992,5.666555,6.555131,6.687468,9.510399,0.01655212,0.1692924,1.300078,0.0366678,0.3167115,1.56125,-0.000746823,0.5104839,1.723344,-0.0129308,0.1881915,1.272647,-0.002766452,0.3024511,1.606167,-0.01464341,0.009276002,1.707565,-0.01806043,-0.3400363,1.696031,-0.1631376,0.2195346,1.669024,-0.1011721,-0.3314062,1.662817,-0.2120717,0.06018384,1.481543,0.1471043,0.00435467,1.551922,NA,NA,Unknown,NotTracked,
-0.1196289,-0.9194336,0.2949219,-0.7680664,0.3759766,0.1601563,3,2,-13,-4,-6,-10,-8,-8,11,24,5,13,15,1,-1,-3,-22.375,-22.375,-22.375,-21.1875,-21.1875,-21.1875,2.924426,5.286597,5.604684,6.415575,6.673279,9.380067,0.02582026,0.1853813,1.312205,0.03673461,0.320386,1.551455,-8.402304E-06,0.5115521,1.726082,-0.006084005,0.2039433,1.282788,-0.005409874,0.3407376,1.599821,-0.01538415,0.009805033,1.70767,-0.01929775,-0.3417245,1.695474,-0.1635791,0.2217034,1.669433,-0.102586,-0.3329339,1.663624,-0.2126359,0.06441478,1.478822,0.1440384,0.001757973,1.55175,NA,NA,Unknown,Unknown,
-0.1118164,-0.9174805,0.3193359,-0.9589844,0.328125,0.1049805,-9,0,-2,2,-2,1,-6,-6,-24,5,30,16,-21,-4,3,7,-24.9375,-24.9375,-24.9375,-38.375,-38.375,-38.375,2.895146,5.314387,5.554907,6.176179,6.624804,9.140513,0.02844812,0.1997513,1.334746,0.01181375,0.3278524,1.517169,7.769772E-05,0.5129402,1.728513,0.002505147,0.2280565,1.308555,-0.01005306,0.3426449,1.608,-0.01603276,0.01077719,1.707664,-0.0204423,-0.3430971,1.694566,-0.1636333,0.2221133,1.669523,-0.1036825,-0.3335057,1.663647,-0.2139013,0.07015737,1.47868,0.1366796,-0.01004553,1.553213,NA,NA,Unknown,Unknown,
-0.1762695,-0.909668,0.2387695,-0.956543,0.34375,0.371582,3,-18,4,-8,5,21,-45,3,-1,8,-1,42,49,-8,-5,-9,-14,-14,-14,-20,-20,-20,2.867219,5.352321,5.497508,5.726134,6.427513,8.647932,0.01834212,0.2258324,1.375018,0.02916033,0.2794081,1.398434,0.0002076565,0.5152271,1.730665,0.01115532,0.30491,1.402308,0.02404777,0.3385482,1.426,-0.01640546,0.01307922,1.707496,-0.02100737,-0.3431772,1.694177,-0.1644094,0.2237556,1.670434,-0.1045609,-0.3331816,1.662773,-0.2170368,0.07541492,1.485593,0.1249369,-0.006385887,1.553515,NA,NA,NotTracked,NotTracked,
-0.5166016,-0.5,-1.254883,-1.147461,1.082031,-0.06787109,-6,-4,9,-13,1,-14,-12,2,4,-4,5,2,7,19,3,13,105.125,105.125,105.125,-188,-188,-188,2.896765,5.50675,5.330715,5.411117,6.111769,8.321891,0.0344223,0.212012,1.370516,0.02256918,0.2357925,1.354904,0.0008076633,0.5179605,1.731827,0.008759386,0.2801093,1.343765,0.04876595,0.2830945,1.35875,-0.01632119,0.01485276,1.707333,-0.02138575,-0.3428758,1.693842,-0.1649303,0.2247237,1.67128,-0.1050647,-0.3323075,1.661527,-0.2170957,0.07315957,1.490073,0.1132962,-0.004274979,1.546654,NA,NA,NotTracked,NotTracked,
-0.4936523,-0.5209961,-0.3056641,-0.4624023,0.2104492,1.039063,27,-3,1,-22,-7,-20,-24,4,-9,13,-6,15,5,-3,-2,6,60.4375,60.4375,60.4375,34.75,34.75,34.75,2.966544,5.380054,5.416095,5.479972,6.067265,8.306196,0.02910517,0.1994777,1.364903,0.02451533,0.2348202,1.351919,0.0009782003,0.5179338,1.732596,0.002855718,0.2329632,1.321699,0.04519124,0.293406,1.361875,-0.01648517,0.01504284,1.707359,-0.02182417,-0.3428617,1.693626,-0.1652391,0.2251356,1.671667,-0.1053592,-0.3320659,1.661153,-0.2174078,0.07285264,1.490523,0.1100511,-0.004200929,1.543934,NA,NA,NotTracked,NotTracked,
-0.2636719,-1.088867,0.1938477,-1.032715,-0.006347656,0.6606445,-1,-5,-8,-21,-13,-28,-9,6,-53,-28,-3,1,-7,7,18,1,0.0625,0.0625,0.0625,123.0625,123.0625,123.0625,2.943642,5.340145,5.452406,5.641842,6.247895,8.355591,0.01697921,0.1894118,1.358778,0.03869005,0.2525494,1.384565,0.001136179,0.5179701,1.732822,0.0007431585,0.1988067,1.307943,0.07999735,0.2564168,1.395579,-0.01678965,0.0148043,1.707188,-0.02249594,-0.3443105,1.693308,-0.1652838,0.2251259,1.671836,-0.1060938,-0.3334123,1.661461,-0.219344,0.07041258,1.493181,0.1108625,-0.003445641,1.544612,NA,NA,NotTracked,NotTracked,
-0.2182617,-1.04541,0.2626953,-0.9521484,0.5893555,0.3388672,3,14,0,-18,-5,19,-12,-10,-20,10,2,-7,-8,2,5,-16,-8.0625,-8.0625,-8.0625,132.3125,132.3125,132.3125,2.93613,5.314651,5.459802,6.04138,6.43312,8.541553,0.01768989,0.1715696,1.345559,0.03226479,0.1784401,1.345207,-0.0002243049,0.5115023,1.733189,0.04526404,0.1449376,1.347375,0.08553032,0.2021183,1.334294,-0.0171822,0.01226076,1.708211,-0.02347716,-0.3457378,1.69359,-0.1653074,0.2250085,1.671992,-0.1071713,-0.33486,1.662938,-0.2201256,0.06899906,1.494576,0.1171085,-0.006267784,1.549848,NA,NA,NotTracked,NotTracked,
-0.1914063,-1.020508,0.2900391,-1.112305,0.4848633,0.1191406,-2,-1,12,82,3,-2,-36,-19,-43,-13,-14,-11,20,3,-53,-25,-20.875,-20.875,-20.875,149.0625,149.0625,149.0625,2.919401,5.304816,5.459172,6.47873,6.551009,8.82412,0.002874952,0.1620305,1.349581,0.04580262,0.1803422,1.349755,-0.002107893,0.5085607,1.732581,0.04726801,0.1403277,1.345818,0.09111278,0.2012372,1.345857,-0.01734116,0.01074511,1.708671,-0.02396121,-0.3463368,1.69386,-0.1653975,0.2249221,1.672198,-0.1078874,-0.3358225,1.66523,-0.2206414,0.06884476,1.495059,0.1275781,-0.00957795,1.543188,NA,NA,NotTracked,NotTracked,
-0.2016602,-1.004883,0.2133789,-1.098633,0.6899414,0.1918945,-14,7,12,13,7,-12,-12,7,2,0,11,21,-16,-9,6,-7,-27.1875,-27.1875,-27.1875,112.75,112.75,112.75,2.864656,5.305132,5.43524,7.004454,6.57624,9.101115,0.002419242,0.1635116,1.35739,0.03642099,0.1759101,1.357354,-0.003932669,0.5083243,1.732402,0.04297356,0.1408081,1.347142,0.09308995,0.1961887,1.352136,-0.01766569,0.01011935,1.7087,-0.02402698,-0.3470506,1.694149,-0.1654951,0.2249425,1.672749,-0.1079925,-0.3368629,1.666386,-0.2211388,0.06874213,1.495699,0.1416605,-0.0034701,1.536141,NA,NA,NotTracked,NotTracked,
-0.2543945,-0.9985352,0.1533203,-0.9189453,0.6333008,0.2910156,-3,9,3,10,8,46,3,-15,33,5,0,1,0,78,104,12,-28.9375,-28.9375,-28.9375,116.0625,116.0625,116.0625,2.795071,5.35365,5.408964,7.251916,6.548144,9.169602,0.01771704,0.1740802,1.36382,0.02702239,0.356011,1.530285,-0.00832911,0.5099113,1.732025,0.02835594,0.141535,1.351786,-0.008558207,0.3739135,1.581875,-0.01963369,0.007412767,1.709979,-0.02399112,-0.3485145,1.694698,-0.1656536,0.2247901,1.673249,-0.1081395,-0.3385708,1.667595,-0.221578,0.06834953,1.496294,0.155733,0.04603251,1.48297,NA,NA,NotTracked,NotTracked,
-0.2333984,-1.000977,0.07373047,-1.240723,0.5776367,0.05859375,2,-6,-15,-22,-4,-20,-4,-3,-79,-11,-7,-11,5,50,-39,11,-42.5,-42.5,-42.5,80.4375,80.4375,80.4375,2.734849,5.408415,5.398229,7.457214,6.560525,9.227684,0.05366573,0.1891125,1.376006,0.01148368,0.4024254,1.479388,-0.0164529,0.5118462,1.730027,0.09832069,0.1520284,1.433031,-0.02154545,0.3839752,1.496786,-0.02079138,0.006339553,1.710875,-0.02413055,-0.3486893,1.695002,-0.1660064,0.2247739,1.673942,-0.1084989,-0.3391125,1.668567,-0.2219786,0.06899318,1.496095,0.1089408,0.157867,1.444358,NA,NA,NotTracked,Open,
-0.3032227,-1.036133,0.04003906,-0.8642578,0.2924805,-0.1386719,-4,-3,-7,-30,7,13,-35,-29,36,0,-4,-15,-4,-95,-85,-8,-66.75,-66.75,-66.75,33.75,33.75,33.75,2.622017,5.470163,5.381158,7.29951,6.524304,8.893178,0.02126056,0.1914568,1.371672,0.01118895,0.391872,1.42332,-0.02300528,0.5121143,1.732219,0.03630636,0.1618002,1.344481,-0.03175236,0.3928426,1.42384,-0.02065157,0.006515256,1.711198,-0.02399733,-0.3474392,1.695287,-0.1660764,0.2245267,1.674243,-0.1084625,-0.3380493,1.668623,-0.2245398,0.0731182,1.495248,0.1168117,0.1766265,1.449931,NA,NA,Unknown,Closed,
-0.2558594,-0.9287109,-0.05029297,-0.2739258,0.1401367,0.2324219,4,0,-3,-30,-10,11,9,-10,2,0,3,12,17,-29,-107,-23,-103.375,-103.375,-103.375,81.5,81.5,81.5,2.464323,5.52094,5.340388,7.083292,6.239642,8.500843,0.02898009,0.1988033,1.371729,0.01844679,0.3757256,1.341182,-0.02465836,0.511143,1.733786,0.03307728,0.1764107,1.333833,-0.0441007,0.3849126,1.321,-0.02007355,0.007559019,1.711515,-0.02393763,-0.3442613,1.694754,-0.165109,0.223035,1.674747,-0.1094435,-0.3340179,1.666439,-0.2274119,0.0878234,1.49136,0.1206033,0.2063235,1.446471,NA,NA,NotTracked,NotTracked,
-0.2158203,-0.8408203,-0.171875,-0.1088867,0.3344727,0.184082,1,-8,-18,-57,-22,-25,-6,1,-20,2,2,-14,-20,-20,-7,-33,-100.75,-100.75,-100.75,21.6875,21.6875,21.6875,2.202304,5.5417,5.235074,7.003379,5.817295,8.237147,0.04449709,0.219192,1.385366,0.003245726,0.3226329,1.250168,-0.02716408,0.5161251,1.734515,0.05702942,0.2983275,1.394667,0.02587632,0.3505709,1.2375,-0.01979987,0.008155898,1.712351,-0.02410757,-0.3401153,1.69499,-0.163363,0.2205802,1.674973,-0.1101563,-0.3292243,1.663537,-0.236856,0.09538528,1.491031,0.1146764,0.237147,1.437051,NA,NA,NotTracked,NotTracked,
-0.1616211,-0.9379883,-0.2895508,0.2089844,0.605957,0.2270508,0,-5,-5,25,-4,4,64,-1,14,11,1,-14,-4,23,66,26,-97.25,-97.25,-97.25,33.75,33.75,33.75,1.903007,5.43625,5.106619,6.974171,5.257275,8.009111,0.06124733,0.2278384,1.371333,0.006951394,0.2407948,1.2275,-0.02847185,0.5225556,1.73527,0.08034181,0.2238525,1.425333,-0.002996296,0.2883309,1.22,-0.01978114,0.01696437,1.711942,-0.02363797,-0.3381079,1.695304,-0.1627406,0.2196182,1.675257,-0.1099922,-0.3277468,1.663246,-0.2454375,0.1073146,1.486857,0.1114138,0.237711,1.424899,NA,NA,NotTracked,NotTracked,
-0.2392578,-0.8076172,-0.4155273,0.1928711,0.8515625,0.3374023,-9,-3,-3,-20,0,-1,-12,-6,-31,-10,-7,-30,-31,-22,-61,-25,-66.75,-66.75,-66.75,13.3125,13.3125,13.3125,1.775626,5.323269,5.046082,6.97318,4.968503,7.919822,0.02835816,0.1920049,1.236333,-0.01015098,0.2142948,1.02986,-0.02561117,0.5306202,1.736323,0.03450134,0.1182556,1.210375,-0.01328037,0.2524242,1.013057,-0.01904708,0.02522679,1.711485,-0.02267813,-0.3346765,1.695802,-0.1652659,0.2236714,1.681108,-0.1088817,-0.324895,1.664588,-0.2473819,0.1150194,1.484988,0.119081,0.2183673,1.369996,NA,NA,NotTracked,NotTracked,
-0.2236328,-0.8657227,-0.3955078,0.1704102,1.072754,0.5571289,-6,2,10,91,26,36,-38,-10,1,-5,-5,9,17,-76,-47,-1,-51.375,-51.375,-51.375,-30.3125,-30.3125,-30.3125,1.678982,5.19798,5.014328,6.918941,4.8324,7.899907,0.03940787,0.1512768,1.244101,-0.04656869,0.1279901,1.085618,-0.02075905,0.5249379,1.737959,0.01425304,0.1002861,1.209119,-0.0497164,0.1727021,1.077262,-0.01887767,0.02471643,1.712175,-0.02215917,-0.3338986,1.696285,-0.1651676,0.2241278,1.680978,-0.1078639,-0.3243046,1.666288,-0.2572474,0.1237416,1.482085,0.09194674,0.1612934,1.383435,NA,NA,NotTracked,NotTracked,
-0.1508789,-0.9125977,-0.4125977,0.1577148,1.166016,0.4863281,-9,-1,4,27,-4,-20,-9,-10,14,5,3,26,49,-18,-1,32,-26.3125,-26.3125,-26.3125,7.875,7.875,7.875,1.648309,5.092931,5.014706,6.903016,4.774819,7.906291,0.03493941,0.1342433,1.248121,-0.04696329,0.1257672,1.087475,-0.01727355,0.5175005,1.739053,0.09286987,0.1857914,1.317364,-0.04982744,0.1720777,1.077796,-0.01842022,0.02271543,1.713962,-0.02161084,-0.3336087,1.696858,-0.1648999,0.22462,1.680376,-0.1069057,-0.324229,1.666879,-0.2635921,0.1293593,1.481574,0.0916233,0.1587131,1.384769,NA,NA,NotTracked,NotTracked,
-0.1342773,-0.9584961,-0.4492188,0.1103516,1.160156,0.4472656,2,1,4,-15,-18,-24,-5,-12,-9,-5,-5,-10,-42,13,-42,-10,-19.0625,-19.0625,-19.0625,-15.9375,-15.9375,-15.9375,1.64211,5.069743,5.014091,6.895031,4.770295,7.915935,-0.04394694,0.1459094,1.368126,-0.04896908,0.1179501,1.093371,-0.01606952,0.5149974,1.739421,-0.03898028,0.1378776,1.36318,-0.05206908,0.1629061,1.08499,-0.01809304,0.02063823,1.71523,-0.02132534,-0.3343355,1.697525,-0.1646956,0.2252515,1.679798,-0.1063223,-0.3251439,1.668561,-0.2696432,0.1316591,1.480638,0.08982693,0.1525365,1.390529,NA,NA,Unknown,Unknown,
-0.02539063,-0.8632813,-0.5634766,0.06103516,1.050781,0.3535156,-7,-4,-6,2,-7,-14,-10,-4,16,7,4,3,34,11,49,-1,6.25,6.25,6.25,10.6875,10.6875,10.6875,1.636247,5.026869,4.995091,6.896934,4.806194,7.951769,-0.02498762,0.1437767,1.351226,-0.09155536,0.05603065,1.039855,-0.01513316,0.5135518,1.738978,0.05340058,0.08957778,1.247,-0.09358591,0.1023155,1.031437,-0.01805864,0.01937732,1.715859,-0.02124217,-0.3349954,1.697959,-0.1645636,0.2260768,1.679244,-0.1063037,-0.3260301,1.669719,-0.2714125,0.1319914,1.480376,0.07400952,0.1278873,1.402463,NA,NA,NotTracked,Unknown,
0.01464844,-0.862793,-0.5654297,0.09179688,0.8886719,0.3325195,3,1,-6,-58,-13,-45,-8,9,5,-6,-3,5,-31,-28,-32,-3,1.9375,1.9375,1.9375,29.1875,29.1875,29.1875,1.629149,5.028363,4.999888,6.900811,4.845663,7.981283,0.02266112,0.1429919,1.263501,-0.09247131,0.05649135,1.039422,-0.01459526,0.5131676,1.738711,-0.02165109,0.09173798,1.229393,-0.09368321,0.1023645,1.03139,-0.0181213,0.01897821,1.716039,-0.02133703,-0.3352639,1.698093,-0.1644763,0.2265585,1.678872,-0.1064782,-0.3264381,1.670336,-0.2720125,0.1325304,1.480585,0.07345581,0.1285224,1.401834,NA,NA,NotTracked,NotTracked,
