ALX,ALY,ALZ,ARX,ARY,ARZ,EMG0L,EMG1L,EMG2L,EMG3L,EMG4L,EMG5L,EMG6L,EMG7L,EMG0R,EMG1R,EMG2R,EMG3R,EMG4R,EMG5R,EMG6R,EMG7R,GLX,GLY,GLZ,GRX,GRY,GRZ,ORL,OPL,OYL,ORR,OPR,OYR,LHNX,LHNY,LHNZ,RHNX,RHNY,RHNZ,HX,HY,HZ,LTX,LTY,LTZ,RTX,RTY,RTZ,SpineMidX,SpineMidY,SpineMidZ,SpineBaseX,SpineBaseY,SpineBaseZ,ShoulderLeftX,ShoulderLeftY,ShoulderLeftZ,ShoulderRightX,ShoulderRightY,ShoulderRightZ,ElbowLeftX,ElbowLeftY,ElbowLeftZ,ElbowRightX,ElbowRightY,ElbowRightZ,Myo_Pose_left,Myo_Pose_Right,Kinect_pose_left,Kinect_pose_right
0.9550781,-0.2578125,0.1264648,0.9394531,0.1337891,0.2631836,-2,1,-3,-1,-1,-1,-1,-3,-29,-10,-5,-6,-11,-72,-10,-7,-0.8125,-0.8125,-0.8125,-0.6875,-0.6875,-0.6875,3.108013,2.962817,4.021926,5.784675,2.978011,6.056974,-0.1266422,-0.3655223,1.503965,0.2077393,-0.3616065,1.496586,0.05460889,0.4846707,1.548877,-0.1737439,-0.3642505,1.522429,0.1612699,-0.350936,1.465515,0.04880977,0.003523317,1.592722,0.04248812,-0.3300148,1.593282,-0.1270467,0.2031301,1.57787,-0.0411059,-0.3223478,1.552979,-0.1615127,-0.05793192,1.590879,0.2442307,-0.0566747,1.605627,NA,NA,NotTracked,NotTracked,
0.9560547,-0.2714844,0.1181641,0.9365234,0.137207,0.2587891,-2,-20,-2,-1,-2,2,-4,-3,-15,-1,0,0,-3,3,-6,-1,-1.625,-1.625,-1.625,0.1875,0.1875,0.1875,3.105865,2.961747,4.020784,5.784127,2.978891,6.057721,-0.1268319,-0.3631454,1.503672,0.2079434,-0.3613111,1.496727,0.0548164,0.4846453,1.54918,-0.1733905,-0.3733798,1.519727,0.1585073,-0.3747113,1.463826,0.04888859,0.003489083,1.592809,0.04249388,-0.3300125,1.593331,-0.1270416,0.2030694,1.57806,-0.04110776,-0.3223258,1.553047,-0.1614615,-0.05809274,1.590966,0.2442888,-0.05668762,1.605585,NA,NA,NotTracked,NotTracked,
0.9550781,-0.2573242,0.1210938,0.9433594,0.1386719,0.2587891,-4,-1,1,-2,-2,-4,1,-5,0,1,0,1,5,4,2,-2,-1.1875,-1.1875,-1.1875,-1.1875,-1.1875,-1.1875,3.101243,2.961553,4.024748,5.783707,2.979126,6.057267,-0.1256691,-0.3739594,1.502032,0.2079749,-0.3611062,1.497084,0.05496291,0.48468,1.549288,-0.1725508,-0.3660685,1.51518,0.1623073,-0.3456238,1.46665,0.04905479,0.003496369,1.592996,0.04249158,-0.3300024,1.593488,-0.1269192,0.2031702,1.578157,-0.04109587,-0.3223125,1.553231,-0.1614496,-0.05832462,1.591062,0.2443061,-0.05665605,1.605544,NA,NA,NotTracked,NotTracked,
0.9550781,-0.2480469,0.1191406,0.940918,0.1435547,0.2543945,-4,0,-2,-1,0,-2,0,-4,-11,-2,1,-4,-1,15,4,0,-0.3125,-0.3125,-0.3125,2,2,2,3.102321,2.961011,4.024139,5.785516,2.978584,6.057498,-0.1256587,-0.3732915,1.501062,0.2077485,-0.3612972,1.496456,0.05508304,0.4847104,1.549358,-0.1709741,-0.3713268,1.506881,0.1588725,-0.3699971,1.463345,0.04909013,0.003510064,1.593003,0.04248512,-0.3299882,1.59352,-0.1269203,0.2031809,1.578172,-0.04110283,-0.3223005,1.55326,-0.161368,-0.05837749,1.591053,0.2444162,-0.05670519,1.605399,NA,NA,NotTracked,NotTracked,
0.9624023,-0.2539063,0.1132813,0.9306641,0.1123047,0.2543945,0,-3,0,0,-1,0,0,-3,1,-2,-1,-2,-5,-3,-3,-1,-1.25,-1.25,-1.25,-1,-1,-1,3.104347,2.95963,4.019426,5.783082,2.979089,6.058418,-0.1258492,-0.3738887,1.500622,0.2078752,-0.3623351,1.496141,0.05522514,0.4846366,1.549435,-0.1712355,-0.3680815,1.50943,0.159937,-0.3707403,1.463333,0.0491019,0.003493411,1.593003,0.04248372,-0.3300042,1.593507,-0.1268701,0.2031808,1.578107,-0.04110687,-0.3223141,1.553266,-0.1613869,-0.0584369,1.59099,0.2444564,-0.05680023,1.605134,NA,NA,NotTracked,NotTracked,
0.9560547,-0.2651367,0.1201172,0.9702148,0.1542969,0.269043,-2,-4,-17,-3,-1,-1,-1,4,-22,-1,3,-13,-5,2,-3,-2,-1.375,-1.375,-1.375,2.8125,2.8125,2.8125,3.105395,2.959927,4.017843,5.782048,2.980365,6.063177,-0.1247976,-0.374609,1.499847,0.2079606,-0.3621649,1.495534,0.05528044,0.4846308,1.549476,-0.1703039,-0.3728705,1.501708,0.1599903,-0.3734769,1.462156,0.04910773,0.003468201,1.593027,0.04247638,-0.3300341,1.593517,-0.1268327,0.203137,1.578086,-0.04112149,-0.322337,1.5533,-0.1613492,-0.05845331,1.590975,0.2445101,-0.05681097,1.605052,NA,NA,NotTracked,NotTracked,
1.10791,-0.2983398,0.05664063,1.112305,0.05273438,0.2104492,1,-2,1,3,0,2,-3,1,-4,-15,9,-17,-5,-2,0,-1,0.9375,0.9375,0.9375,35.625,35.625,35.625,3.116501,2.970072,4.005957,5.77676,3.026782,6.102622,-0.1240591,-0.3733626,1.497762,0.2067414,-0.3609159,1.494122,0.05532116,0.4846531,1.549536,-0.1686034,-0.3689485,1.494954,0.1594314,-0.3732295,1.461069,0.04912619,0.00347565,1.593053,0.04253882,-0.3300282,1.59347,-0.1268159,0.2031428,1.578123,-0.04108898,-0.3223388,1.553286,-0.1613553,-0.05852063,1.591083,0.2446741,-0.05663105,1.60508,NA,NA,NotTracked,NotTracked,
1.241699,-0.07617188,-0.08984375,1.175781,0.4414063,0.659668,3,1,2,-4,1,-4,8,2,18,8,29,12,1,0,2,3,-21.3125,-21.3125,-21.3125,-2.4375,-2.4375,-2.4375,3.237182,3.077544,3.879421,5.862521,3.316621,6.165133,-0.108833,-0.3466598,1.473336,0.1913414,-0.3373422,1.47024,0.05535536,0.484711,1.549748,-0.1470591,-0.3844221,1.48175,0.1596105,-0.3318373,1.411321,0.0492584,0.003545499,1.592915,0.04268572,-0.329886,1.593076,-0.1267663,0.2032437,1.578151,-0.04102976,-0.3221382,1.55287,-0.1635803,-0.0522774,1.597416,0.2465457,-0.05353491,1.609535,NA,NA,NotTracked,NotTracked,
0.9506836,-0.8081055,0.5317383,0.8071289,0.203125,0.8032227,1,-1,0,0,-6,1,10,-1,-5,11,-5,-6,-3,-2,0,-7,101.5,101.5,101.5,-107.5625,-107.5625,-107.5625,3.411872,3.459385,3.749886,5.685334,3.636711,6.186121,-0.07920517,-0.2811263,1.458896,0.1737013,-0.2900517,1.460192,0.05534879,0.4847162,1.549719,-0.1111555,-0.3586809,1.490457,0.1997466,-0.2294733,1.374167,0.0493066,0.00357811,1.592664,0.04272201,-0.3298235,1.592885,-0.126447,0.2036053,1.57822,-0.04108414,-0.3219845,1.552639,-0.1667941,-0.03670167,1.612511,0.2496373,-0.04405903,1.623691,NA,NA,Unknown,NotTracked,
0.6464844,-0.4501953,0.534668,0.387207,0.3427734,0.6318359,2,0,0,14,7,-2,6,-3,7,-8,-3,-2,-7,3,1,-8,109.6875,109.6875,109.6875,-128.4375,-128.4375,-128.4375,3.574153,3.693486,3.71373,5.422536,4.111166,6.206551,-0.07283128,-0.1949485,1.440103,0.1631174,-0.212942,1.434175,0.05532075,0.4847078,1.549581,-0.05432045,-0.2725538,1.456413,0.2398266,-0.1474072,1.363,0.04930364,0.003590192,1.592631,0.04270185,-0.3297845,1.592924,-0.1261149,0.20452,1.578989,-0.04109341,-0.321919,1.552648,-0.1680387,-0.02401206,1.620699,0.2525122,-0.03537186,1.631402,NA,NA,Unknown,Unknown,
0.3564453,-0.6542969,0.4707031,0.1831055,-0.05517578,0.7578125,1,-2,0,2,4,-1,15,2,-9,-6,-8,-1,-4,-1,-7,-6,57.625,57.625,57.625,-46.5625,-46.5625,-46.5625,3.684974,4.028343,3.704901,5.282362,4.397515,6.172842,-0.1046048,-0.1242926,1.36795,0.2167886,-0.114054,1.370413,0.05537483,0.4845854,1.549256,-0.02747162,-0.1400426,1.430625,0.264079,-0.08995904,1.323444,0.04929266,0.00371952,1.592681,0.04269176,-0.3292996,1.5934,-0.1252516,0.2057441,1.579678,-0.04112004,-0.3212512,1.553244,-0.1674465,-0.002363858,1.632513,0.2507448,-0.02570917,1.635971,NA,NA,Unknown,Unknown,
0.2685547,-0.4116211,0.46875,0.2304688,0.206543,0.7822266,0,-6,1,0,0,-7,-18,-1,5,18,3,-3,-6,2,1,5,46,46,46,-11.3125,-11.3125,-11.3125,3.821002,4.381625,3.739647,5.289004,4.56971,6.139186,-0.1258782,-0.07468422,1.337657,0.2255428,-0.07061493,1.346125,0.05541303,0.4845406,1.549179,-0.04790315,-0.08664479,1.3532,0.2805991,-0.04706478,1.315375,0.04933963,0.003817492,1.592818,0.04285303,-0.3287971,1.59412,-0.1241677,0.2072768,1.580238,-0.04101333,-0.3206484,1.554001,-0.1653822,-0.001315313,1.632364,0.2484021,-0.01440242,1.639457,NA,NA,Unknown,Unknown,
0.2905273,-0.5786133,0.6376953,0.2275391,0.1772461,0.8886719,-2,-3,-3,-5,-6,3,-12,-9,2,5,3,2,-8,2,-6,-1,8.125,8.125,8.125,7.5,7.5,7.5,3.827577,4.544427,3.769551,5.285999,4.662144,6.139388,-0.1301043,-0.05461462,1.330165,0.2276223,-0.05460649,1.359949,0.05548892,0.4845112,1.549116,-0.1899788,-0.03329009,1.305643,0.2804863,-0.02938457,1.324667,0.04933895,0.00401448,1.593039,0.04282775,-0.3284172,1.594671,-0.1230324,0.208596,1.580164,-0.04109863,-0.3201626,1.554693,-0.1634697,5.291479E-05,1.632933,0.2475853,-0.01096577,1.642134,NA,NA,Unknown,Unknown,
0.2568359,-0.6015625,0.6733398,0.1582031,0.1704102,0.9404297,4,1,-2,-4,0,1,15,14,-15,-16,-2,1,-1,-12,-5,0,-3.375,-3.375,-3.375,-0.5625,-0.5625,-0.5625,3.835802,4.578975,3.762775,5.285367,4.671484,6.161139,-0.1299106,-0.05095532,1.330174,0.2249695,-0.05268998,1.35892,0.05552889,0.4845041,1.549132,-0.1906777,-0.03121896,1.303089,0.27924,-0.02579081,1.315889,0.04938129,0.004156646,1.593261,0.04279219,-0.3281325,1.595089,-0.1222522,0.2095791,1.580224,-0.04116261,-0.3197481,1.555204,-0.1789955,-0.003732902,1.621052,0.2472958,-0.01052412,1.643539,NA,NA,Unknown,Unknown,
0.284668,-0.6176758,0.7504883,0.2646484,0.2055664,0.9760742,-1,-4,-6,-2,-3,-1,-14,-9,9,7,3,0,-5,36,9,4,-4.125,-4.125,-4.125,10.9375,10.9375,10.9375,3.841324,4.565091,3.741038,5.296767,4.648132,6.177123,-0.1316937,-0.05500759,1.339455,0.2218942,-0.05592107,1.36077,0.05566138,0.4845467,1.549268,-0.1865391,-0.03625671,1.312042,0.2711267,-0.03115327,1.322556,0.04943374,0.004196902,1.593447,0.04271724,-0.3279665,1.595379,-0.1217575,0.2099667,1.58027,-0.04124569,-0.3195179,1.555553,-0.1831527,-0.004333132,1.621824,0.247488,-0.01060077,1.643923,NA,NA,Unknown,Unknown,
0.284668,-0.5908203,0.777832,0.2470703,0.1982422,0.9731445,4,-9,-4,4,0,-6,-9,-2,10,-9,6,2,4,5,0,0,5.4375,5.4375,5.4375,-3.6875,-3.6875,-3.6875,3.857821,4.544806,3.731444,5.298485,4.621743,6.183946,-0.1346386,-0.06029836,1.339975,0.2308463,-0.0580813,1.358859,0.05585939,0.4845859,1.549585,-0.1895965,-0.03917312,1.306895,0.275308,-0.03443164,1.317256,0.04960379,0.004262467,1.593802,0.04280112,-0.327856,1.595755,-0.1213907,0.210287,1.580496,-0.04117217,-0.3193951,1.555973,-0.1866562,-0.004079137,1.62288,0.2476453,-0.01064342,1.644331,NA,NA,Unknown,Unknown,
0.2788086,-0.6425781,0.753418,0.2597656,0.1777344,0.972168,-10,-5,-7,-13,-9,6,-12,-21,-13,-7,-12,-6,10,-21,-1,-4,4.75,4.75,4.75,-4,-4,-4,3.866918,4.531116,3.730113,5.293106,4.579622,6.174678,-0.1352102,-0.06205137,1.343591,0.2297735,-0.05971069,1.353227,0.05603688,0.4845984,1.549769,-0.1564773,-0.06718262,1.319143,0.2776787,-0.0359231,1.316032,0.04967422,0.004345438,1.593995,0.04283044,-0.3277493,1.595993,-0.121039,0.210627,1.58062,-0.04117784,-0.3192731,1.55628,-0.1870457,-0.004213577,1.625252,0.2604809,-0.01025485,1.640118,NA,NA,Unknown,Unknown,
0.2578125,-0.6103516,0.7080078,0.2670898,0.1655273,1.001465,-1,0,2,2,1,-4,7,4,5,12,7,5,0,-2,-6,-2,-1.125,-1.125,-1.125,-6.25,-6.25,-6.25,3.869522,4.517973,3.732414,5.285795,4.555528,6.178346,-0.1307383,-0.06823596,1.350469,0.2302026,-0.06826439,1.349588,0.05618181,0.4845954,1.549864,-0.1833723,-0.04979783,1.31297,0.2806253,-0.04490162,1.304143,0.04975229,0.004486423,1.594108,0.04284908,-0.3275831,1.596179,-0.1207762,0.2108082,1.580765,-0.0411813,-0.3191153,1.556439,-0.1866432,0.0005690609,1.631523,0.2680131,-0.008945532,1.639519,NA,NA,Unknown,Unknown,
0.2329102,-0.6074219,0.703125,0.07617188,0.2265625,1.147461,-1,13,8,10,2,-3,5,5,-2,-8,2,-1,-3,10,2,-10,8.125,8.125,8.125,9.1875,9.1875,9.1875,3.87325,4.503064,3.731991,5.265179,4.557052,6.243416,-0.1280831,-0.07687649,1.349425,0.2215118,-0.07524606,1.353748,0.05642327,0.4847443,1.550108,-0.1842824,-0.05890713,1.30942,0.2689885,-0.05493907,1.31075,0.04992157,0.004622613,1.594303,0.04293856,-0.3274251,1.596408,-0.1206267,0.2108971,1.580864,-0.04111327,-0.318927,1.556692,-0.1708655,0.003952596,1.631921,0.2593229,-0.01013018,1.641043,NA,NA,Unknown,Open,
0.1069336,-0.7050781,0.8461914,0.1987305,0.3632813,1.125,-7,-2,-1,-13,-9,-12,-23,-16,-32,-4,-1,-3,-2,3,2,1,-6.9375,-6.9375,-6.9375,26.375,26.375,26.375,3.8948,4.500413,3.690893,5.306729,4.685503,6.2974,-0.115172,-0.06846423,1.349289,0.2181679,-0.06407905,1.349778,0.05681578,0.4848085,1.550492,-0.1683805,-0.04925314,1.311,0.2569269,-0.04288806,1.303111,0.05003459,0.00471163,1.594488,0.04294526,-0.3272732,1.596662,-0.1204698,0.2109431,1.581004,-0.04112286,-0.3186754,1.557084,-0.1638143,0.001902322,1.630726,0.2562929,-0.01111089,1.639737,NA,NA,Unknown,Unknown,
0.2036133,-0.7626953,0.8037109,0.4267578,0.3510742,0.8310547,-1,-2,-2,-3,-6,7,-3,0,21,-57,-21,-9,-6,3,-3,-7,-19,-19,-19,17.5625,17.5625,17.5625,3.847973,4.632168,3.662889,5.371787,4.766877,6.224513,-0.1159455,-0.04245335,1.319589,0.2145008,-0.04417761,1.332241,0.05721348,0.4846218,1.550887,-0.1714295,-0.02401012,1.295571,0.2650399,-0.01847769,1.2939,0.0501368,0.00476204,1.594869,0.04302569,-0.3271941,1.597008,-0.1201689,0.211006,1.581101,-0.04107439,-0.318575,1.557454,-0.1613788,-5.720555E-05,1.626095,0.2492935,-0.01476449,1.631453,NA,NA,Unknown,Unknown,
0.4296875,-0.6503906,0.5229492,0.5200195,0.2944336,0.7543945,2,4,1,-5,-2,-5,-9,-1,-4,3,-6,-4,-6,-18,1,1,2,2,2,27.5625,27.5625,27.5625,3.782708,4.734473,3.790793,5.421113,4.774258,6.125653,-0.1404297,-0.02512498,1.303874,0.2380058,-0.02979776,1.319809,0.05762933,0.4845703,1.551051,-0.1337215,-0.01652965,1.237,0.2937602,-0.001323689,1.295357,0.05041205,0.00479754,1.595364,0.04312075,-0.3271675,1.597365,-0.1198428,0.2114216,1.581146,-0.04097053,-0.31856,1.557805,-0.1628208,-3.097526E-05,1.623723,0.2488768,-0.01517277,1.630458,NA,NA,Unknown,Unknown,
0.4912109,-0.574707,0.6049805,0.5029297,-0.02294922,0.9370117,-1,1,5,9,-2,8,-9,-8,8,9,4,1,-7,-4,-1,4,-20.5625,-20.5625,-20.5625,10.5,10.5,10.5,3.733146,4.705,3.93053,5.458376,4.663747,5.971529,-0.1753598,-0.03003516,1.310764,0.2754007,-0.03103643,1.322234,0.05792648,0.4845842,1.551199,-0.2367373,-0.003844782,1.292286,0.3246469,-0.004461659,1.3,0.05059284,0.004917105,1.595616,0.04328134,-0.327181,1.597802,-0.1196675,0.2117468,1.581234,-0.04082759,-0.3185762,1.558213,-0.1788088,0.003868536,1.622045,0.2484098,-0.01456882,1.632943,NA,NA,Unknown,Unknown,
0.3540039,-0.4697266,0.9428711,0.06835938,-0.0859375,1.216797,1,0,-4,4,-3,3,9,1,8,7,0,-5,-8,21,2,-1,15.8125,15.8125,15.8125,-17.875,-17.875,-17.875,3.763168,4.560622,4.026796,5.376901,4.524897,6.005541,-0.1969186,-0.05006109,1.339602,0.2816724,-0.05174283,1.353728,0.0581466,0.4846915,1.551349,-0.2528184,-0.02662699,1.308091,0.3277108,-0.02703288,1.327417,0.05069317,0.005012179,1.59585,0.04342657,-0.3270529,1.598241,-0.1192799,0.2126802,1.581272,-0.04073819,-0.3185132,1.55847,-0.1697573,0.006546134,1.634474,0.2561184,-0.009652996,1.661338,NA,NA,Unknown,Unknown,
0.05371094,-0.6313477,0.9760742,-0.2485352,0.1044922,1.169922,-6,-1,-4,-19,-5,-5,18,-4,-14,-9,-1,12,31,3,0,2,7.25,7.25,7.25,-21.625,-21.625,-21.625,3.820534,4.469254,3.969587,5.312068,4.527088,6.09262,-0.1775071,-0.06811269,1.359872,0.2536075,-0.06456997,1.369941,0.05824912,0.484785,1.551201,-0.2311205,-0.04982218,1.3208,0.3056713,-0.04143125,1.307,0.050837,0.005191702,1.595701,0.04346368,-0.3267869,1.598272,-0.1190865,0.2134289,1.581123,-0.04068654,-0.3182274,1.558448,-0.1720769,0.006289792,1.640581,0.263221,-0.007759266,1.661569,NA,NA,Unknown,Unknown,
-0.1669922,-0.6943359,0.7587891,-0.1630859,0.5112305,1.037598,1,-3,2,7,-3,-4,-29,-15,16,-20,1,4,2,-2,0,1,-0.1875,-0.1875,-0.1875,0.875,0.875,0.875,3.887534,4.483486,3.802543,5.25624,4.683241,6.278149,-0.1417198,-0.06929054,1.357697,0.1755048,-0.07212521,1.325023,0.05828992,0.4849193,1.551205,-0.1918538,-0.04959662,1.317917,0.1992616,-0.0717089,1.297,0.05100042,0.005442448,1.595648,0.04370128,-0.3263745,1.598473,-0.1190144,0.2138364,1.580972,-0.04046611,-0.3178265,1.558591,-0.1664917,0.008550969,1.638425,0.2558936,-0.003874122,1.65594,NA,NA,Unknown,Unknown,
0.04052734,-0.8696289,0.7143555,0.2709961,0.512207,1.057129,-2,-4,-3,-12,-6,-7,-7,-14,-20,5,14,2,3,-1,1,-9,-10.1875,-10.1875,-10.1875,14.6875,14.6875,14.6875,3.891369,4.58987,3.676267,5.311986,4.807374,6.305743,-0.1174096,-0.05291036,1.331527,0.2032424,-0.04069666,1.342389,0.05838273,0.4849997,1.551203,-0.1719175,-0.03407631,1.2958,0.252096,-0.01659036,1.310375,0.05109702,0.00561376,1.595628,0.04384954,-0.3260958,1.598554,-0.1185288,0.2142543,1.58046,-0.04031464,-0.3175097,1.558654,-0.1623248,0.005492985,1.630855,0.2502624,-0.00871695,1.645645,NA,NA,Unknown,Unknown,
0.5214844,-0.7641602,0.5708008,0.6137695,0.2436523,0.7617188,1,2,3,9,4,-4,2,-2,12,-8,-6,0,1,1,-1,5,-15.0625,-15.0625,-15.0625,23.5625,23.5625,23.5625,3.827707,4.697659,3.676219,5.413857,4.787483,6.17779,-0.1158,-0.03432482,1.310067,0.2097207,-0.0332041,1.329022,0.0586013,0.4850303,1.551254,-0.1758198,-0.01457009,1.287167,0.2636413,-0.003025435,1.294,0.05114936,0.005763886,1.595816,0.04399993,-0.3259725,1.598761,-0.118406,0.214245,1.580268,-0.04015735,-0.3173653,1.558802,-0.1614342,0.00108154,1.617064,0.2496974,-0.01505908,1.625342,NA,NA,Unknown,Unknown,
0.5541992,-0.6591797,0.6040039,0.5415039,0.09521484,0.8364258,1,-3,0,30,10,2,-2,-1,11,-4,-2,-9,-11,-7,2,3,-25.125,-25.125,-25.125,14.75,14.75,14.75,3.786045,4.702133,3.719284,5.435913,4.727375,6.116633,-0.1385159,-0.03012432,1.302296,0.2414976,-0.03027983,1.318491,0.05889474,0.4850399,1.551323,-0.1968901,-0.006897932,1.285692,0.2962084,-0.002009258,1.291818,0.05121772,0.005790042,1.595955,0.044082,-0.3260145,1.598915,-0.1184489,0.2141827,1.580057,-0.04008285,-0.3173892,1.55895,-0.1661571,0.001103817,1.613239,0.2494532,-0.01544201,1.624795,NA,NA,Unknown,Unknown,
0.4550781,-0.4902344,0.7231445,0.3876953,-0.009277344,1.005371,0,12,2,0,2,-6,11,4,24,5,-2,-9,6,-4,-3,-3,-6.375,-6.375,-6.375,6.375,6.375,6.375,3.74962,4.625687,3.838367,5.436829,4.599042,6.062398,-0.1670579,-0.04399299,1.320088,0.2643851,-0.0475557,1.337781,0.05904815,0.4850945,1.551307,-0.2210836,-0.01955978,1.294111,0.3114735,-0.01924784,1.303308,0.05122888,0.005776021,1.596053,0.0440716,-0.3261018,1.599066,-0.1184686,0.2142192,1.579788,-0.04008267,-0.3174624,1.559084,-0.1681581,0.00387942,1.621094,0.257391,-0.008838862,1.645387,NA,NA,Unknown,Unknown,
0.2841797,-0.6020508,0.953125,-0.01269531,0.06884766,1.204102,-1,-6,-2,-7,-6,20,-21,-8,7,-5,-5,-9,17,2,-1,-3,14.3125,14.3125,14.3125,-22.5625,-22.5625,-22.5625,3.788096,4.484328,3.867641,5.354188,4.45844,6.117663,-0.1721365,-0.06464244,1.354916,0.2575983,-0.07710294,1.366599,0.05916048,0.4851782,1.551171,-0.2223404,-0.04506688,1.313867,0.3100846,-0.0484526,1.326111,0.05135139,0.005850551,1.59583,0.04410524,-0.3260789,1.599062,-0.1186215,0.2143548,1.579517,-0.04005995,-0.3174539,1.559063,-0.1737481,0.008498459,1.630136,0.2637696,-0.007568114,1.650939,NA,NA,Unknown,Unknown,
0.009277344,-0.6665039,0.8251953,-0.1694336,0.3793945,1.109375,-9,-3,4,10,15,18,-13,-11,6,-6,-2,18,19,4,-7,-11,-7.5,-7.5,-7.5,-0.5625,-0.5625,-0.5625,3.842732,4.422888,3.75154,5.263239,4.516221,6.300627,-0.1427129,-0.07792938,1.368109,0.2270273,-0.09069765,1.381255,0.05924515,0.4853862,1.551022,-0.1938201,-0.05731918,1.3108,0.280253,-0.06622125,1.3335,0.05154509,0.006170265,1.595302,0.04418596,-0.3258008,1.598852,-0.1188232,0.2145021,1.579172,-0.03998147,-0.3172048,1.558825,-0.1784036,0.01121893,1.633261,0.2613558,-0.006895008,1.649921,NA,NA,Unknown,Unknown,
-0.06787109,-0.8017578,0.7250977,0.02978516,0.4824219,1.11377,-2,-9,-1,8,-3,-2,2,1,22,-7,1,-8,-10,-4,4,15,-20.6875,-20.6875,-20.6875,20.25,20.25,20.25,3.859761,4.460886,3.582421,5.278127,4.602936,6.378276,-0.09901787,-0.07633112,1.363218,0.1903878,-0.08077472,1.376733,0.05933516,0.485657,1.551041,-0.1559743,-0.05323664,1.317417,0.2469573,-0.05611163,1.332,0.05162739,0.006367615,1.595073,0.04427955,-0.3255913,1.598787,-0.1189036,0.2144761,1.578874,-0.03988342,-0.3169985,1.558793,-0.1755829,0.009156622,1.629774,0.2598414,-0.006663112,1.647232,NA,NA,Unknown,Unknown,
0.1923828,-0.8310547,0.7553711,0.543457,0.4047852,1.000977,-12,-4,1,-17,-6,1,-3,-19,11,-8,-2,-9,-4,-15,3,-3,-25.625,-25.625,-25.625,21.3125,21.3125,21.3125,3.83336,4.566759,3.482745,5.360672,4.746051,6.396486,-0.07302584,-0.06235293,1.364104,0.1794022,-0.06138087,1.369971,0.05948141,0.4858102,1.551171,-0.1435418,-0.03332994,1.301455,0.2337551,-0.03492782,1.316846,0.05165134,0.006373152,1.595074,0.04432774,-0.3256276,1.598748,-0.1181052,0.2131157,1.577732,-0.03985605,-0.3170099,1.558784,-0.1739487,0.004015393,1.617764,0.2557524,-0.03705113,1.576515,NA,NA,Unknown,Unknown,
0.4882813,-0.6982422,0.6518555,0.5571289,0.2304688,0.7856445,-9,-3,-2,0,1,-4,-2,-7,11,2,20,3,1,2,-6,-2,-5.8125,-5.8125,-5.8125,12.9375,12.9375,12.9375,3.79262,4.694071,3.537027,5.424623,4.783578,6.251532,-0.1016356,-0.03107165,1.311964,0.2067839,-0.03530671,1.324357,0.05972539,0.4859057,1.551562,-0.1595415,-0.006405117,1.288084,0.2557784,-0.008583561,1.2861,0.05165654,0.006354798,1.595184,0.04431002,-0.3256358,1.598768,-0.1182298,0.212929,1.577477,-0.0398617,-0.3170074,1.558787,-0.1737174,-0.0007518032,1.599424,0.2513521,-0.01686824,1.619404,NA,NA,Open,Unknown,
0.4243164,-0.5917969,0.6269531,0.4384766,0.07421875,0.8266602,-7,-1,-4,1,-3,-1,5,-7,-19,-9,-4,-4,2,-6,-14,-10,5.5,5.5,5.5,-6.625,-6.625,-6.625,3.770859,4.748785,3.672862,5.436121,4.7445,6.102266,-0.1335581,-0.01661708,1.299905,0.2375585,-0.02712674,1.316416,0.0599466,0.4859846,1.55191,-0.1950562,0.01041897,1.284546,0.2966599,0.00512416,1.293222,0.0516705,0.006323731,1.595284,0.04421853,-0.3257359,1.598744,-0.1178411,0.2125724,1.577201,-0.03995309,-0.3171049,1.558699,-0.174363,-0.001188721,1.597289,0.2487202,-0.0156716,1.625901,NA,NA,Unknown,Unknown,
0.3398438,-0.5234375,0.7270508,0.2353516,-0.02099609,1.033691,0,5,3,-4,2,-4,-7,8,1,-9,-4,-9,12,15,8,6,26,26,26,-9.9375,-9.9375,-9.9375,3.782855,4.7456,3.842607,5.417865,4.650865,6.000309,-0.1675604,-0.0228825,1.308381,0.2765947,-0.03516687,1.338282,0.06002932,0.486101,1.551966,-0.2316163,0.004003596,1.291,0.321145,-0.008467112,1.309143,0.05163148,0.006335844,1.595256,0.04404772,-0.3258196,1.598653,-0.1181799,0.2129647,1.577107,-0.04015438,-0.3171444,1.558527,-0.1721865,0.002492163,1.614117,0.2488333,-0.01417883,1.631463,NA,NA,Unknown,Unknown,
0.25,-0.5424805,0.8652344,-0.03857422,-0.008789063,1.142578,-4,2,-9,1,3,11,-2,-8,3,5,-2,2,0,-5,4,7,18.4375,18.4375,18.4375,-27.25,-27.25,-27.25,3.831769,4.641203,3.977116,5.308767,4.546953,6.026625,-0.1844431,-0.03960019,1.337114,0.2744163,-0.06075198,1.364654,0.06005188,0.4862531,1.551877,-0.2370044,-0.0199492,1.313364,0.325218,-0.03568212,1.3313,0.0515408,0.006400497,1.595066,0.04365637,-0.3258148,1.598404,-0.1183285,0.2135965,1.577089,-0.04064292,-0.3172074,1.558193,-0.1713518,0.007470815,1.628575,0.247867,-0.01766987,1.663302,NA,NA,Unknown,Unknown,
0.09814453,-0.5805664,0.8725586,-0.00390625,0.28125,1.055176,3,-1,-1,42,1,0,-11,-1,9,19,5,-4,-9,12,-7,-7,4,4,4,-24.6875,-24.6875,-24.6875,3.875637,4.555773,3.926082,5.241713,4.548985,6.119389,-0.1674125,-0.05744016,1.357143,0.2535842,-0.07513117,1.374778,0.06000842,0.486381,1.551272,-0.2215922,-0.03792297,1.3065,0.3051831,-0.0516197,1.336111,0.05138865,0.006486036,1.594435,0.04324103,-0.3257411,1.597855,-0.118308,0.2141061,1.57694,-0.04109191,-0.3170614,1.557684,-0.1707934,0.01038362,1.635167,0.2505635,-0.01159867,1.658903,NA,NA,Unknown,Unknown,
0.06787109,-0.6811523,0.7617188,0.2280273,0.3774414,1.004395,-5,0,-3,-9,-1,-15,10,12,29,0,-6,3,-1,-8,-7,-12,11.0625,11.0625,11.0625,-20.9375,-20.9375,-20.9375,3.921507,4.520965,3.826526,5.216888,4.588008,6.168881,-0.1472888,-0.06621502,1.356577,0.2308835,-0.07684969,1.37745,0.05997318,0.4864734,1.55056,-0.1991998,-0.0471818,1.316625,0.2857308,-0.0522225,1.3284,0.05138056,0.006587872,1.593891,0.04310827,-0.325623,1.597608,-0.1182714,0.2142947,1.576802,-0.04125002,-0.3168682,1.557405,-0.1624474,0.008091544,1.634974,0.2476812,-0.008425155,1.651976,NA,NA,Unknown,Unknown,
0.2299805,-0.7758789,0.7236328,0.3911133,0.309082,0.9902344,2,-2,0,-20,-1,2,4,-3,0,-6,13,8,24,24,2,5,9.9375,9.9375,9.9375,-9.375,-9.375,-9.375,3.940344,4.525568,3.767574,5.210938,4.60755,6.177884,-0.1367072,-0.06569596,1.355714,0.2211985,-0.07323972,1.374414,0.06009257,0.4863907,1.549522,-0.1877125,-0.04684145,1.3175,0.2736938,-0.05505339,1.3258,0.05138152,0.006558824,1.593294,0.0428808,-0.3256294,1.597181,-0.1172998,0.2139232,1.575871,-0.04145354,-0.3168409,1.557141,-0.1595339,0.007283043,1.633009,0.2454599,-0.006770812,1.647073,NA,NA,Unknown,Unknown,
0.3398438,-0.7324219,0.699707,0.3637695,0.1547852,0.987793,-2,2,-3,-1,-2,6,3,-8,-16,-6,2,-3,-6,-10,-1,-1,-9.5625,-9.5625,-9.5625,5.4375,5.4375,5.4375,3.92819,4.525427,3.735495,5.215596,4.609963,6.193741,-0.128452,-0.06370182,1.354551,0.2209478,-0.07019207,1.36486,0.06032578,0.4864492,1.548599,-0.1846463,-0.04415799,1.315445,0.271923,-0.04905818,1.3206,0.05126459,0.00659188,1.592651,0.04275127,-0.3256105,1.596769,-0.1167633,0.2136123,1.575064,-0.04160649,-0.3167599,1.556744,-0.1586425,0.006762307,1.631858,0.2448615,-0.007971987,1.64446,NA,NA,Unknown,Unknown,
0.2973633,-0.5644531,0.7602539,0.2646484,0.1113281,0.9785156,3,-1,-3,-8,-4,10,-13,5,7,-5,-1,3,3,-4,-1,0,-10.6875,-10.6875,-10.6875,4.1875,4.1875,4.1875,3.907143,4.529563,3.709468,5.22501,4.611728,6.201966,-0.1212706,-0.06575552,1.351396,0.2217529,-0.0672337,1.367631,0.06050629,0.486429,1.547738,-0.1820864,-0.04426867,1.30925,0.2713783,-0.04645541,1.325305,0.05117772,0.006613225,1.591936,0.04260707,-0.3256791,1.596132,-0.1161344,0.212972,1.574554,-0.04178546,-0.316754,1.556205,-0.1582332,0.006011335,1.630926,0.2441872,-0.008637112,1.642996,NA,NA,Unknown,Unknown,
0.3237305,-0.5610352,0.7880859,0.2578125,0.109375,0.9912109,0,3,-3,1,3,-10,-2,-3,-5,-5,-3,1,3,10,-1,0,-9.4375,-9.4375,-9.4375,0.125,0.125,0.125,3.898064,4.522295,3.706039,5.226778,4.608982,6.201352,-0.1238133,-0.06697962,1.350719,0.2208716,-0.06905985,1.363973,0.06074105,0.4863967,1.54713,-0.182776,-0.04495716,1.31221,0.2737892,-0.04689161,1.324556,0.05114825,0.006676118,1.591358,0.04244143,-0.3256471,1.59554,-0.1161934,0.2128981,1.574123,-0.04199446,-0.3166753,1.555554,-0.1592373,0.005523786,1.628864,0.2441982,-0.008903913,1.642617,NA,NA,Unknown,Unknown,
0.3120117,-0.5771484,0.746582,0.2563477,0.1367188,0.9858398,-2,14,-2,-14,-4,-8,-1,-6,-8,2,-1,-4,-5,5,-7,-10,0.125,0.125,0.125,2,2,2,3.900292,4.508545,3.704565,5.230098,4.602549,6.199986,-0.1313224,-0.06582398,1.355707,0.2231939,-0.06888305,1.36446,0.0609097,0.4863818,1.546199,-0.1869794,-0.04462036,1.31536,0.2740614,-0.04860222,1.324522,0.05116318,0.006635055,1.590638,0.04246924,-0.3256692,1.59505,-0.1159274,0.2127071,1.573553,-0.04198357,-0.3166984,1.555083,-0.1600471,0.0053604,1.627733,0.2443379,-0.008620292,1.641854,NA,NA,Unknown,Unknown,
