ALX,ALY,ALZ,ARX,ARY,ARZ,EMG0L,EMG1L,EMG2L,EMG3L,EMG4L,EMG5L,EMG6L,EMG7L,EMG0R,EMG1R,EMG2R,EMG3R,EMG4R,EMG5R,EMG6R,EMG7R,GLX,GLY,GLZ,GRX,GRY,GRZ,ORL,OPL,OYL,ORR,OPR,OYR,LHNX,LHNY,LHNZ,RHNX,RHNY,RHNZ,HX,HY,HZ,LTX,LTY,LTZ,RTX,RTY,RTZ,SpineMidX,SpineMidY,SpineMidZ,SpineBaseX,SpineBaseY,SpineBaseZ,ShoulderLeftX,ShoulderLeftY,ShoulderLeftZ,ShoulderRightX,ShoulderRightY,ShoulderRightZ,ElbowLeftX,ElbowLeftY,ElbowLeftZ,ElbowRightX,ElbowRightY,ElbowRightZ,Myo_Pose_left,Myo_Pose_Right,Kinect_pose_left,Kinect_pose_right
0.9677734,-0.2480469,0.1040039,0.9365234,0.1376953,0.2578125,-2,-2,0,-1,-2,2,-2,-1,-1,-1,-2,-1,0,-2,-9,0,-1.75,-1.75,-1.75,-0.625,-0.625,-0.625,3.080222,2.91872,3.313855,5.773345,2.97739,6.651688,-0.1227293,-0.3702505,1.508555,0.2019034,-0.306175,1.500698,0.04243009,0.4820481,1.5482,-0.07686274,-0.351347,1.485766,0.2374641,-0.2954048,1.489947,0.03753028,0.002900792,1.594233,0.03216495,-0.3307217,1.595367,-0.1391114,0.1994605,1.573846,-0.05119698,-0.3219723,1.555103,-0.1702034,-0.05803487,1.574068,0.2324706,-0.0583456,1.58753,NA,NA,NotTracked,NotTracked,
0.9628906,-0.2407227,0.09472656,0.9428711,0.1352539,0.2539063,-1,-5,0,0,0,-4,-1,-1,0,0,0,-5,-2,32,6,-4,-0.375,-0.375,-0.375,-0.5625,-0.5625,-0.5625,3.075331,2.917688,3.317739,5.774216,2.97722,6.650124,-0.123916,-0.3680054,1.509489,0.2022974,-0.3044159,1.50143,0.04243327,0.4820072,1.548422,-0.07873549,-0.3583169,1.482289,0.2406255,-0.2865908,1.4926,0.03741151,0.00299024,1.594105,0.03222498,-0.3307515,1.595454,-0.1391372,0.1993831,1.574147,-0.05115226,-0.3220172,1.555171,-0.1700799,-0.05869473,1.574162,0.2325342,-0.05830855,1.587738,NA,NA,NotTracked,NotTracked,
0.9633789,-0.237793,0.105957,0.9355469,0.140625,0.2509766,0,0,-3,-1,-1,0,0,-2,0,-2,0,2,-1,-14,-38,-2,-0.4375,-0.4375,-0.4375,-0.875,-0.875,-0.875,3.071279,2.916748,3.319704,5.772905,2.977831,6.649275,-0.1212759,-0.3776747,1.50758,0.2020718,-0.3051911,1.500839,0.04246471,0.4819755,1.548536,-0.07575761,-0.3577851,1.484255,0.2390297,-0.2948054,1.49352,0.03740617,0.003083581,1.593881,0.03227266,-0.3307585,1.595506,-0.1390897,0.199379,1.574243,-0.0511151,-0.3220229,1.555199,-0.169923,-0.0590336,1.5743,0.2325433,-0.05846303,1.587881,NA,NA,NotTracked,NotTracked,
0.9741211,-0.2387695,0.09667969,0.9433594,0.1386719,0.2675781,-3,-5,11,-1,-1,-3,1,-1,-1,-2,-1,0,-4,-25,-3,0,0.3125,0.3125,0.3125,-0.6875,-0.6875,-0.6875,3.06808,2.915824,3.326463,5.773169,2.977566,6.649446,-0.1215126,-0.374824,1.508679,0.202003,-0.306983,1.501141,0.04257515,0.4819472,1.548956,-0.07591719,-0.3546176,1.485128,0.2325447,-0.3151242,1.48525,0.03744332,0.003098349,1.593955,0.03227884,-0.3307689,1.595613,-0.1389522,0.1993057,1.57441,-0.05108691,-0.3220387,1.555327,-0.169632,-0.05948323,1.574596,0.2326055,-0.0583899,1.588205,NA,NA,NotTracked,NotTracked,
0.9541016,-0.2495117,0.09033203,0.934082,0.1386719,0.262207,-2,2,-2,-1,0,1,-1,-2,-3,0,-1,-2,-3,14,5,-2,-3.0625,-3.0625,-3.0625,-0.5,-0.5,-0.5,3.059613,2.915013,3.330087,5.769197,2.980429,6.651752,-0.1241306,-0.3677616,1.51013,0.2027469,-0.3058888,1.502592,0.04274083,0.4819373,1.549451,-0.07902653,-0.3595514,1.482281,0.2396952,-0.2942221,1.495479,0.03752088,0.003196555,1.5942,0.03229491,-0.3306614,1.595927,-0.1387929,0.199409,1.574919,-0.05102594,-0.3219318,1.555612,-0.1695401,-0.0596422,1.574713,0.232692,-0.0582898,1.588691,NA,NA,NotTracked,NotTracked,
0.9648438,-0.2368164,0.1088867,0.9526367,0.1479492,0.2631836,0,-3,-1,1,-1,0,-2,-4,-26,-3,-1,-10,2,0,2,-3,-3.3125,-3.3125,-3.3125,0.625,0.625,0.625,3.062616,2.915536,3.325377,5.769743,2.980858,6.65084,-0.1218983,-0.3717417,1.509681,0.2020846,-0.3057193,1.50189,0.04294624,0.4819231,1.550017,-0.07486519,-0.36686,1.485906,0.2386782,-0.2943606,1.492037,0.03756237,0.003235133,1.594425,0.03228398,-0.3306312,1.596207,-0.1387093,0.1994458,1.575286,-0.05102424,-0.3218818,1.555913,-0.1694669,-0.0598715,1.57491,0.2327247,-0.05830604,1.58886,NA,NA,NotTracked,NotTracked,
0.9985352,-0.2607422,0.07421875,1.090332,0.1201172,0.2695313,-1,-1,-6,-5,-4,-9,-1,-1,9,13,-41,-50,-6,-5,0,11,-2.375,-2.375,-2.375,19.875,19.875,19.875,3.05035,2.918849,3.329808,5.759985,3.008069,6.683392,-0.1219095,-0.3720512,1.508509,0.202701,-0.3051223,1.501289,0.04311117,0.4818667,1.550773,-0.07694385,-0.3608528,1.482976,0.2409447,-0.287288,1.493729,0.03791254,0.003074645,1.595473,0.03228953,-0.3306258,1.596382,-0.1386387,0.1995159,1.575813,-0.05100638,-0.3218842,1.556067,-0.169339,-0.06011746,1.575134,0.2328911,-0.05820471,1.589437,NA,NA,NotTracked,NotTracked,
1.133789,-0.1308594,0.02929688,1.09082,0.2602539,0.15625,-8,1,0,-15,-107,-15,-22,-7,-7,-2,9,2,-1,-2,-3,-8,48.875,48.875,48.875,-60.625,-60.625,-60.625,3.2009,3.019328,3.276121,5.809102,3.103779,6.593939,-0.1214068,-0.3596978,1.493426,0.2018393,-0.3047029,1.492491,0.04318877,0.4819172,1.551431,-0.08402487,-0.3508017,1.449823,0.2234602,-0.3471301,1.486333,0.03778852,0.003485073,1.59449,0.03265753,-0.3305548,1.596295,-0.138596,0.1995171,1.576193,-0.05072219,-0.3218456,1.55592,-0.170109,-0.06041082,1.577816,0.2337092,-0.05744505,1.591371,NA,NA,NotTracked,NotTracked,
1.121094,-0.5678711,0.4829102,1.069336,0.1635742,0.6694336,2,-1,-2,-2,-17,9,-1,-4,8,2,2,-1,-1,-4,-2,3,148.375,148.375,148.375,-145.3125,-145.3125,-145.3125,3.415645,3.226017,3.230336,5.606333,3.319139,6.601206,-0.1026752,-0.314612,1.462361,0.2003343,-0.2802919,1.48302,0.04327705,0.4819621,1.551756,-0.1063806,-0.2925061,1.386412,0.2015403,-0.2878488,1.402187,0.0380266,0.003475823,1.594769,0.03293585,-0.3305807,1.596531,-0.1385975,0.1997066,1.576524,-0.05050453,-0.3219097,1.556171,-0.1740925,-0.04872113,1.593459,0.2353797,-0.05388793,1.602361,NA,NA,Unknown,NotTracked,
0.7885742,-0.4326172,0.6674805,0.5473633,0.2304688,0.5297852,0,0,0,2,11,-1,12,8,-19,-10,-2,-4,-4,-13,0,33,172.875,172.875,172.875,-195.875,-195.875,-195.875,3.768225,3.533278,3.169021,5.206501,3.770527,6.543118,-0.08882547,-0.2697767,1.432278,0.1768923,-0.2768937,1.420658,0.04327884,0.4820234,1.551835,-0.1499566,-0.2360425,1.299625,0.2520241,-0.237122,1.341923,0.03829262,0.003391188,1.595135,0.03308478,-0.3306212,1.596565,-0.138312,0.2002728,1.577385,-0.05038868,-0.3220024,1.556215,-0.1739076,-0.03984689,1.604502,0.2347993,-0.04845383,1.614003,NA,NA,Unknown,Unknown,
0.7885742,-0.4326172,0.6674805,0.4814453,0.1352539,0.7607422,-3,3,5,-6,-25,-3,35,13,-2,8,6,2,-11,-25,-11,3,172.875,172.875,172.875,-20.875,-20.875,-20.875,3.768225,3.533278,3.169021,5.139852,4.048105,6.446569,-0.1034496,-0.2052095,1.406191,0.2171389,-0.2037149,1.364829,0.0432983,0.4820336,1.551808,-0.1731145,-0.169453,1.347128,0.2791131,-0.1799089,1.335923,0.03844561,0.003564602,1.595101,0.03335482,-0.3304159,1.596935,-0.1378925,0.2010944,1.578514,-0.05005468,-0.3218794,1.556505,-0.1713528,-0.02558189,1.614362,0.2317166,-0.04337304,1.618457,NA,NA,Unknown,Unknown,
0.5605469,-0.503418,0.4794922,0.2753906,0.1118164,0.7646484,0,-1,2,5,1,-3,-29,-8,-25,-12,-5,-4,-12,14,0,-9,46.1875,46.1875,46.1875,-9.1875,-9.1875,-9.1875,3.871889,3.9586,3.282835,5.142013,4.252551,6.407367,-0.136684,-0.1520207,1.359307,0.2268016,-0.1480155,1.366766,0.04332868,0.4820215,1.551706,-0.193287,-0.1260689,1.320278,0.2941559,-0.1299153,1.324,0.03875502,0.003521834,1.596018,0.03364178,-0.3298044,1.598125,-0.1374606,0.2020005,1.579212,-0.04972246,-0.3214418,1.557571,-0.1696179,-0.02231284,1.61562,0.2291475,-0.03806133,1.620995,NA,NA,Unknown,Unknown,
0.5605469,-0.503418,0.4794922,0.4106445,0.1748047,0.8452148,-13,-6,-2,-12,-7,-2,12,-39,-50,-16,1,3,18,22,21,6,46.1875,46.1875,46.1875,26.4375,26.4375,26.4375,3.871889,3.9586,3.282835,5.190038,4.37982,6.416734,-0.1477816,-0.1211981,1.343388,0.2347218,-0.1206389,1.368289,0.04342568,0.4818572,1.551756,-0.2043489,-0.1002628,1.293636,0.2774736,-0.1092985,1.335546,0.03901396,0.003602383,1.59716,0.03421051,-0.3292872,1.599359,-0.136941,0.202823,1.579642,-0.04917951,-0.3210572,1.558577,-0.1491474,-0.04463342,1.592462,0.2279057,-0.03321474,1.622108,NA,NA,Unknown,Unknown,
0.5605469,-0.503418,0.4794922,0.3803711,0.01904297,0.96875,-4,-5,-4,-4,-3,-10,-5,-22,39,16,3,3,6,-4,-10,-8,46.1875,46.1875,46.1875,9.125,9.125,9.125,3.871889,3.9586,3.282835,5.187144,4.421262,6.429588,-0.1508291,-0.1092928,1.34676,0.2513185,-0.1073704,1.342298,0.04353867,0.4817658,1.551845,-0.2074257,-0.09100047,1.29025,0.2894725,-0.09726774,1.297539,0.03908589,0.003599499,1.598029,0.03439487,-0.3290845,1.600049,-0.1367722,0.203216,1.579805,-0.0489537,-0.3208029,1.559297,-0.1691671,-0.01005297,1.622727,0.2274029,-0.02979955,1.622417,NA,NA,Lasso,Unknown,
0.3676758,-0.5454102,0.7436523,0.3569336,0.1552734,0.8916016,-6,2,1,9,7,2,11,-8,-8,-2,-5,-2,-17,-3,-3,2,-10.875,-10.875,-10.875,1.125,1.125,1.125,3.868227,4.379204,3.347909,5.203095,4.435484,6.419474,-0.1496122,-0.1086791,1.344424,0.2450829,-0.1022895,1.353351,0.04378351,0.4818279,1.552502,-0.2073743,-0.0898329,1.294856,0.2816904,-0.09067233,1.3099,0.03928642,0.003713797,1.599184,0.03458081,-0.328849,1.601089,-0.1364176,0.203862,1.580262,-0.04875599,-0.3205424,1.560187,-0.1696119,-0.00948226,1.622526,0.2273895,-0.02755315,1.622448,NA,NA,Unknown,Unknown,
0.390625,-0.6166992,0.7275391,0.3344727,0.125,0.9672852,5,0,-2,-4,0,0,-4,5,1,-1,0,2,-28,-15,-2,3,0.625,0.625,0.625,0.25,0.25,0.25,3.874808,4.376138,3.361247,5.202628,4.442164,6.414136,-0.1494536,-0.1100676,1.345816,0.2370703,-0.1023074,1.345155,0.04393994,0.4818543,1.552862,-0.2056312,-0.09316461,1.296666,0.2770533,-0.09366573,1.317083,0.03941888,0.003755026,1.599555,0.03468771,-0.3287892,1.601314,-0.1362657,0.2040848,1.58044,-0.04863203,-0.3204504,1.560406,-0.1697301,-0.009275148,1.62251,0.2272079,-0.02601008,1.622128,NA,NA,Lasso,Unknown,
0.3950195,-0.6376953,0.7211914,0.371582,0.09960938,0.9477539,-1,-1,-5,-8,-5,1,30,4,-6,8,3,3,-7,6,-4,0,3.9375,3.9375,3.9375,-1.3125,-1.3125,-1.3125,3.875575,4.374099,3.362774,5.211681,4.434165,6.403441,-0.1476008,-0.1125908,1.34737,0.2448387,-0.1022128,1.341969,0.04404096,0.4818533,1.553349,-0.2040982,-0.09376289,1.296944,0.283394,-0.09276016,1.305187,0.03952862,0.003739435,1.599883,0.03469531,-0.3287489,1.601573,-0.136063,0.2043698,1.580756,-0.04860708,-0.3204354,1.560642,-0.1696255,-0.009096734,1.622424,0.2272936,-0.02532525,1.62196,NA,NA,Lasso,Unknown,
0.4404297,-0.5527344,0.737793,0.487793,0.04736328,0.9296875,3,-1,0,-5,0,-10,6,-2,11,-7,-9,-7,0,8,-8,-4,3.625,3.625,3.625,6.0625,6.0625,6.0625,3.886853,4.349624,3.350755,5.205495,4.398469,6.421288,-0.141922,-0.116204,1.353297,0.2392148,-0.1052753,1.351888,0.04409824,0.4819467,1.553723,-0.1980978,-0.09746746,1.305,0.2801858,-0.09442005,1.314175,0.03960652,0.003727291,1.600156,0.03474567,-0.3287245,1.6018,-0.1358208,0.2047937,1.581142,-0.04854176,-0.320392,1.560915,-0.1695198,-0.008665232,1.622773,0.2275575,-0.02441348,1.622259,NA,NA,Unknown,Unknown,
0.4472656,-0.5712891,0.7924805,-0.03320313,0.2089844,1.191406,-2,0,-6,-3,7,-13,-5,3,-15,-19,-6,-2,4,9,-4,-6,-4,-4,-4,12.1875,12.1875,12.1875,3.901875,4.331071,3.332206,5.187543,4.429703,6.536527,-0.1314723,-0.1192329,1.360089,0.2248634,-0.1075896,1.344865,0.04422091,0.4820415,1.55428,-0.1917747,-0.09883238,1.303818,0.2739679,-0.09443066,1.303403,0.03973407,0.003746286,1.600366,0.03476183,-0.3286584,1.601953,-0.1355029,0.2051645,1.581552,-0.04851902,-0.3203011,1.561126,-0.1694541,-0.008027595,1.623942,0.2279481,-0.02385854,1.622461,NA,NA,Unknown,Unknown,
0.02832031,-0.7045898,0.7304688,-0.1787109,0.2856445,1.089844,-2,0,-5,6,2,17,0,3,-2,0,-2,-8,-13,-10,-3,6,-34.6875,-34.6875,-34.6875,27.375,27.375,27.375,3.905718,4.36806,3.230341,5.198632,4.520752,6.60408,-0.112454,-0.1079494,1.358444,0.2078851,-0.09489959,1.342125,0.04455511,0.4823177,1.555074,-0.1675323,-0.08784885,1.308125,0.2503379,-0.08240189,1.298833,0.0398149,0.003936529,1.600688,0.03480374,-0.3283982,1.602348,-0.1350706,0.2057137,1.581849,-0.04845589,-0.3199715,1.561686,-0.1696265,-0.007401453,1.624174,0.2291286,-0.02203409,1.622145,NA,NA,Unknown,Unknown,
0.2719727,-0.8339844,0.6933594,0.4311523,0.3945313,0.918457,-14,-12,-5,-19,1,-4,-7,-16,-3,-12,-17,-5,-6,-3,-1,-2,-19.5625,-19.5625,-19.5625,4.375,4.375,4.375,3.837172,4.546342,3.189013,5.289181,4.693109,6.569799,-0.1209731,-0.0815037,1.328579,0.2041433,-0.0765539,1.307011,0.04499384,0.4823458,1.555925,-0.1700754,-0.06346989,1.280538,0.244035,-0.06383675,1.281,0.04018958,0.003900177,1.601906,0.03492723,-0.328559,1.603431,-0.1343328,0.2057608,1.581929,-0.04840148,-0.3200931,1.562986,-0.1702104,-0.009447532,1.615957,0.230263,-0.02365304,1.615893,NA,NA,Unknown,Unknown,
0.5791016,-0.6845703,0.5854492,0.8305664,0.2299805,0.6513672,-6,-2,-3,0,-2,1,3,-18,-12,0,2,-6,-4,-5,-5,-12,-25.5,-25.5,-25.5,9.125,9.125,9.125,3.785778,4.593571,3.245872,5.33767,4.663091,6.444047,-0.1465885,-0.06474286,1.293476,0.2313795,-0.06332479,1.278761,0.04554793,0.4822114,1.556853,-0.1986703,-0.04013304,1.2642,0.2812478,-0.04521918,1.248333,0.04042189,0.00357818,1.603184,0.03500195,-0.329004,1.604805,-0.1333762,0.205828,1.581924,-0.04841348,-0.3204256,1.564389,-0.1878343,-0.00932438,1.596838,0.2365423,-0.02587647,1.600414,NA,NA,Unknown,Unknown,
0.7773438,-0.3481445,0.5727539,0.565918,-0.1459961,0.9526367,3,6,9,9,11,-2,13,23,21,7,5,1,9,-9,2,0,-5.625,-5.625,-5.625,10.625,10.625,10.625,3.726225,4.54252,3.394886,5.336451,4.53117,6.370661,-0.1722989,-0.06797335,1.315393,0.2570171,-0.06867282,1.291685,0.04610739,0.4823591,1.557782,-0.2209567,-0.04512445,1.279429,0.3052206,-0.0522607,1.262214,0.04062285,0.003343971,1.603884,0.03509996,-0.3292894,1.605471,-0.1330401,0.2058146,1.581746,-0.04835108,-0.320726,1.565182,-0.1891422,-0.008582298,1.598523,0.2358788,-0.02624174,1.599368,NA,NA,Unknown,Unknown,
0.4311523,-0.3974609,0.8540039,-0.046875,-0.03662109,1.229004,-3,-12,-11,3,1,-3,-9,-1,-34,-6,0,16,36,7,16,5,18.9375,18.9375,18.9375,-4.375,-4.375,-4.375,3.759766,4.435848,3.442343,5.252108,4.442622,6.478601,-0.1754956,-0.09354819,1.338249,0.2539771,-0.08857026,1.321489,0.04650441,0.4825794,1.558084,-0.2310111,-0.06805523,1.289182,0.3049507,-0.07098728,1.280909,0.04073815,0.003376384,1.603967,0.03514981,-0.3292946,1.605582,-0.1327998,0.2060497,1.581714,-0.04831404,-0.3207354,1.565333,-0.1948734,-0.005661403,1.610273,0.2436503,-0.02390266,1.609785,NA,NA,Unknown,Unknown,
0.05419922,-0.7109375,0.871582,-0.3447266,0.3666992,1.177246,4,4,-4,1,-1,1,15,10,-39,-23,-10,1,-1,5,-5,3,10.6875,10.6875,10.6875,9.9375,9.9375,9.9375,3.837899,4.316471,3.368776,5.213763,4.526782,6.637356,-0.1496808,-0.1148437,1.35736,0.22323,-0.09774254,1.348595,0.04667889,0.4827838,1.558297,-0.2096286,-0.08781768,1.308,0.2718314,-0.08277269,1.303692,0.04092964,0.003522635,1.603923,0.03526893,-0.3290777,1.605626,-0.1325801,0.2064379,1.581812,-0.04818109,-0.3204885,1.565402,-0.1814414,-0.00416277,1.622656,0.2406878,-0.02203684,1.619829,NA,NA,Lasso,Unknown,
-0.2084961,-0.8911133,0.7895508,0.1264648,0.6162109,1.133789,6,-2,1,7,-2,4,28,5,1,9,3,0,1,0,-7,-11,1.375,1.375,1.375,9.625,9.625,9.625,3.876386,4.368421,3.269477,5.262632,4.669642,6.711535,-0.1312763,-0.1072794,1.357694,0.1940702,-0.08593249,1.34088,0.0467133,0.4827947,1.55829,-0.1841684,-0.08583258,1.31477,0.236704,-0.0740779,1.303308,0.04109941,0.003616989,1.603833,0.03543783,-0.3289979,1.605519,-0.1324267,0.2064958,1.581867,-0.04799356,-0.3203868,1.565397,-0.1778431,-0.004087978,1.625427,0.240801,-0.02171336,1.621269,NA,NA,Unknown,Unknown,
0.4155273,-0.8930664,0.6337891,0.5029297,0.4306641,0.9018555,1,-2,-5,-1,-10,-3,-12,-11,16,5,-6,-4,-9,11,-4,-5,-33.625,-33.625,-33.625,24.25,24.25,24.25,3.819468,4.527805,3.229006,5.32962,4.757663,6.663681,-0.1314095,-0.08288131,1.325322,0.1943872,-0.06210294,1.300036,0.04683449,0.4827177,1.558355,-0.1852887,-0.06135486,1.276222,0.242494,-0.04471878,1.262273,0.04120738,0.003526044,1.603913,0.03549885,-0.3290399,1.605525,-0.1321243,0.2063884,1.581871,-0.04795831,-0.3204317,1.565416,-0.1752365,-0.007550807,1.615413,0.2668858,-0.02097434,1.599654,NA,NA,Unknown,Unknown,
0.6894531,-0.5717773,0.5380859,0.7138672,0.09960938,0.6679688,-2,-10,-4,-12,-10,-10,-6,-7,-15,0,6,-2,2,-20,11,-5,-14.625,-14.625,-14.625,0.25,0.25,0.25,3.75932,4.57774,3.267219,5.390438,4.711362,6.512449,-0.1428344,-0.06732886,1.304021,0.2174472,-0.04904611,1.279055,0.04702662,0.4826807,1.558469,-0.191117,-0.04141463,1.270923,0.2673488,-0.02821715,1.2465,0.04130839,0.003351305,1.604144,0.03561856,-0.3292788,1.605775,-0.1318263,0.2062497,1.581746,-0.04786805,-0.3207096,1.565696,-0.1901681,-0.007922112,1.596225,0.2419941,-0.02562438,1.60002,NA,NA,Unknown,Unknown,
0.6679688,-0.4169922,0.581543,0.4926758,-0.1079102,0.918457,2,-3,-2,-9,-9,-14,10,-2,4,12,-1,-1,-3,2,0,7,-0.1875,-0.1875,-0.1875,3.4375,3.4375,3.4375,3.732981,4.555892,3.351595,5.37414,4.607432,6.423679,-0.1674807,-0.06960595,1.315831,0.2465293,-0.05551374,1.287754,0.04719691,0.4826229,1.558457,-0.2173886,-0.04494699,1.270445,0.2959209,-0.03475528,1.258167,0.04138907,0.003245905,1.604235,0.03569959,-0.3294411,1.605904,-0.1316927,0.206256,1.581505,-0.04779306,-0.3208817,1.565874,-0.1934775,-0.006652822,1.597516,0.2423437,-0.02615722,1.596822,NA,NA,Unknown,Unknown,
0.4223633,-0.4296875,0.8344727,-0.05957031,-0.02880859,1.217773,-10,-9,7,-7,-1,13,9,-4,11,3,1,25,-3,12,-4,4,18.5625,18.5625,18.5625,-6.9375,-6.9375,-6.9375,3.771364,4.465581,3.408751,5.300673,4.473449,6.480388,-0.1677161,-0.09623779,1.333362,0.247747,-0.08218668,1.325793,0.04723938,0.4826009,1.558389,-0.223528,-0.0712183,1.289692,0.2971515,-0.06195614,1.290667,0.04146686,0.003204723,1.604222,0.03576321,-0.3294858,1.605921,-0.1316908,0.2062604,1.581488,-0.0477378,-0.3209342,1.565896,-0.1974517,-0.006396955,1.605097,0.2456303,-0.02319401,1.614045,NA,NA,Lasso,Unknown,
0.08740234,-0.6733398,0.8935547,-0.2558594,0.2939453,1.208496,-9,-54,-4,38,2,7,-11,-11,-8,10,-3,6,5,-1,0,-12,6.625,6.625,6.625,-7.4375,-7.4375,-7.4375,3.85418,4.351525,3.318576,5.23805,4.492204,6.623483,-0.1432696,-0.1180905,1.343398,0.2231827,-0.1051592,1.346799,0.04726494,0.4826138,1.558201,-0.1994823,-0.08965491,1.297364,0.2763945,-0.08640693,1.304615,0.04149729,0.003258592,1.603975,0.0358198,-0.3294064,1.605762,-0.1317911,0.2061967,1.581449,-0.04765892,-0.3208379,1.565676,-0.1863731,-0.004702303,1.616035,0.2462275,-0.02121508,1.622336,NA,NA,Open,Unknown,
0.03759766,-0.8413086,0.7509766,0.121582,0.5083008,1.161133,6,5,1,10,-9,-18,3,14,53,1,3,2,2,7,3,-2,-15.3125,-15.3125,-15.3125,17.4375,17.4375,17.4375,3.889688,4.413432,3.130988,5.253272,4.594867,6.733409,-0.1095116,-0.1131743,1.353726,0.1893233,-0.1036515,1.347991,0.04723417,0.4825341,1.557737,-0.1678524,-0.08956799,1.295455,0.2435125,-0.08701699,1.29675,0.04153632,0.003330039,1.603683,0.03585115,-0.3291826,1.605502,-0.1317709,0.2061571,1.581277,-0.04760361,-0.3205325,1.565345,-0.1825533,-0.005351579,1.617283,0.2429979,-0.02131885,1.623329,NA,NA,Unknown,Unknown,
0.3969727,-0.9023438,0.6816406,0.5024414,0.480957,1.023926,5,12,-1,-7,-4,-2,1,-2,-14,-18,-7,-12,-1,2,-6,-6,-21.75,-21.75,-21.75,3.9375,3.9375,3.9375,3.846642,4.517109,3.079892,5.303712,4.688739,6.729201,-0.1046883,-0.08905236,1.327232,0.1764615,-0.08305243,1.325076,0.04723348,0.4824507,1.557575,-0.1530638,-0.06921964,1.277778,0.2150454,-0.0697602,1.298462,0.04152886,0.003328534,1.603656,0.03587018,-0.3291818,1.605436,-0.1315643,0.2059772,1.580808,-0.04758082,-0.32052,1.565287,-0.1781279,-0.009639334,1.603792,0.2253008,-0.04982389,1.548279,NA,NA,Unknown,Unknown,
0.5551758,-0.7856445,0.5761719,0.6235352,0.2490234,0.7456055,8,-2,-5,-11,-5,-12,-6,2,13,-3,-9,2,-1,11,3,4,-8.5,-8.5,-8.5,8.8125,8.8125,8.8125,3.812548,4.571105,3.109885,5.367736,4.736885,6.591362,-0.118886,-0.06551832,1.299857,0.1996553,-0.05522189,1.289317,0.0472771,0.4824355,1.557568,-0.1706018,-0.0424115,1.265545,0.2489956,-0.03618311,1.247667,0.04153465,0.003298787,1.603668,0.03588501,-0.3292076,1.605392,-0.1312724,0.2058043,1.580314,-0.04757994,-0.3205558,1.565183,-0.17825,-0.01151383,1.593234,0.2761361,-0.02017583,1.587526,NA,NA,Unknown,Unknown,
0.5258789,-0.5517578,0.5830078,0.5830078,0.02294922,0.7915039,1,3,1,-10,-1,17,8,3,-19,19,20,-7,-1,-8,-5,-7,2.75,2.75,2.75,-5.9375,-5.9375,-5.9375,3.754239,4.629592,3.273093,5.375784,4.699557,6.449644,-0.155021,-0.05384811,1.293944,0.2309116,-0.04628996,1.282996,0.04734153,0.4823543,1.557633,-0.2056639,-0.0276632,1.266,0.2836156,-0.02340357,1.2553,0.0416104,0.00319576,1.60375,0.03595753,-0.3293191,1.605381,-0.131076,0.2057729,1.579959,-0.04750777,-0.3206694,1.565118,-0.1844935,-0.01035647,1.590379,0.2411526,-0.02680433,1.592673,NA,NA,Unknown,Unknown,
0.4707031,-0.4331055,0.6884766,0.4536133,-0.1376953,0.9853516,-5,-18,-7,1,-1,-5,-11,-2,12,-4,-6,-24,-26,-28,-5,4,18.5,18.5,18.5,-19.375,-19.375,-19.375,3.753914,4.603013,3.429191,5.339802,4.597505,6.366708,-0.1879063,-0.06101408,1.318026,0.2640703,-0.05460589,1.313297,0.04738284,0.4823277,1.557659,-0.2359248,-0.03550398,1.2884,0.3177309,-0.03270711,1.2785,0.04161128,0.003166302,1.603729,0.03593842,-0.3293632,1.605295,-0.1312066,0.2060031,1.579993,-0.04752774,-0.3207465,1.565036,-0.1856076,-0.007647916,1.603179,0.2299115,-0.03038311,1.625421,NA,NA,Unknown,Unknown,
0.2670898,-0.4467773,0.8535156,-0.2167969,0.02490234,1.177734,-5,-5,0,6,15,44,10,12,13,-20,-9,4,-38,-9,-8,-7,14.75,14.75,14.75,-20.5625,-20.5625,-20.5625,3.795545,4.488494,3.528632,5.242214,4.50059,6.422901,-0.1918502,-0.08150064,1.345261,0.2597177,-0.08160569,1.34786,0.04736103,0.4823637,1.557649,-0.2476835,-0.05757447,1.303,0.3131017,-0.05865761,1.309636,0.04155771,0.00326446,1.603448,0.0358171,-0.3292568,1.604964,-0.1315535,0.2065016,1.58047,-0.04765285,-0.3206846,1.564778,-0.1860434,-0.004170447,1.618241,0.2345524,-0.02625778,1.634246,NA,NA,Unknown,Lasso,
0.08203125,-0.6625977,0.8300781,-0.3295898,0.3105469,1.146484,-4,-13,-1,-12,-5,-18,-14,-3,19,6,-2,-4,-4,-1,6,10,20.125,20.125,20.125,-7,-7,-7,3.876965,4.403424,3.447406,5.182474,4.548503,6.551227,-0.1702586,-0.1022414,1.34906,0.2312805,-0.09632206,1.361681,0.04733282,0.4825212,1.557578,-0.229202,-0.07565805,1.296556,0.2876348,-0.0754441,1.32,0.04167969,0.003599164,1.602833,0.03577649,-0.328807,1.604379,-0.1317364,0.2069536,1.581053,-0.04769725,-0.3202872,1.564181,-0.1814239,-0.003996787,1.627714,0.2409193,-0.02294364,1.641194,NA,NA,Unknown,Unknown,
-0.04296875,-0.7314453,0.8051758,0.1347656,0.3754883,1.100098,7,2,-7,-11,1,15,15,-5,7,-27,-8,-1,-3,1,5,15,-6.375,-6.375,-6.375,13.8125,13.8125,13.8125,3.911691,4.417725,3.348021,5.190788,4.653493,6.668392,-0.1327264,-0.1031564,1.359039,0.1976878,-0.09043741,1.36165,0.04730657,0.4826359,1.557464,-0.183528,-0.08102351,1.320563,0.2455433,-0.07710446,1.331,0.04167112,0.003817857,1.602306,0.03565229,-0.3285148,1.603968,-0.1316831,0.2072473,1.581128,-0.04783814,-0.3199749,1.563798,-0.1764092,-0.002971842,1.628033,0.2369553,-0.01661889,1.635901,NA,NA,Unknown,Unknown,
0.1137695,-0.7900391,0.793457,0.5454102,0.2929688,0.9208984,-5,8,8,13,1,2,-30,6,9,15,6,3,9,-7,-8,-13,-13.375,-13.375,-13.375,12.8125,12.8125,12.8125,3.921877,4.465053,3.25173,5.231068,4.709631,6.697957,-0.1191587,-0.08667397,1.345971,0.1876901,-0.07354375,1.337953,0.04733212,0.4826837,1.557428,-0.1679529,-0.06783883,1.283125,0.2343414,-0.05989446,1.3,0.04168519,0.003848363,1.60222,0.03567333,-0.3284447,1.603796,-0.1315383,0.2071783,1.581147,-0.04783709,-0.3198895,1.563653,-0.1713098,-0.005303599,1.622465,0.2358155,-0.01974572,1.626176,NA,NA,Unknown,Unknown,
0.4492188,-0.6235352,0.6660156,0.3935547,0.04150391,0.8754883,2,-5,-5,-11,-11,-14,11,12,0,-4,5,9,8,-8,-6,-8,4.5625,4.5625,4.5625,0.5,0.5,0.5,3.913553,4.575745,3.171599,5.234593,4.704497,6.672184,-0.1094895,-0.07538619,1.323637,0.1912694,-0.06311182,1.320943,0.04741203,0.4826812,1.55749,-0.161445,-0.05457582,1.279667,0.242304,-0.04588681,1.277636,0.04171861,0.003821139,1.602227,0.03567919,-0.328454,1.603784,-0.131245,0.2071304,1.581171,-0.04783725,-0.3198951,1.563661,-0.1687023,-0.008043556,1.614331,0.2646427,-0.01878439,1.60938,NA,NA,Unknown,Unknown,
0.4008789,-0.597168,0.6708984,0.2431641,0.08251953,0.9746094,-5,2,2,39,18,-19,6,15,-11,7,5,6,-1,21,2,-6,-5.0625,-5.0625,-5.0625,-1.5,-1.5,-1.5,3.897361,4.589905,3.166712,5.234066,4.685512,6.661195,-0.09269814,-0.07976867,1.339689,0.1956643,-0.06307453,1.319155,0.04760154,0.4827891,1.557869,-0.154029,-0.05157805,1.29125,0.2477306,-0.04496022,1.272,0.04171977,0.003798945,1.602252,0.03549407,-0.3284744,1.603795,-0.1310107,0.2070132,1.581293,-0.04808076,-0.3199579,1.5637,-0.1687355,-0.009315168,1.609452,0.2674405,-0.01878642,1.606473,NA,NA,Unknown,Unknown,
0.3320313,-0.5771484,0.7636719,0.2001953,0.1157227,1.038574,-4,2,6,44,-1,7,-2,8,-32,0,1,-4,2,-8,0,-3,-17.125,-17.125,-17.125,-0.875,-0.875,-0.875,3.886839,4.574331,3.148404,5.226901,4.678051,6.660599,-0.09649336,-0.0775413,1.338517,0.1949946,-0.06739535,1.321884,0.04792744,0.4828509,1.558333,-0.1522195,-0.05581973,1.280833,0.24534,-0.0500772,1.276499,0.04173821,0.003809049,1.602308,0.03541653,-0.328476,1.603776,-0.1309119,0.2069427,1.581382,-0.0481454,-0.3199608,1.563684,-0.2118665,-0.01565718,1.589216,0.2702638,-0.01816735,1.606973,NA,NA,Unknown,Unknown,
0.3198242,-0.5874023,0.7919922,0.2250977,0.1606445,1.015137,4,6,0,-9,0,-3,-3,-9,19,3,10,-7,-7,21,-3,4,4.3125,4.3125,4.3125,-1.8125,-1.8125,-1.8125,3.891291,4.557756,3.140642,5.221736,4.673708,6.65294,-0.09065872,-0.08517064,1.346248,0.1964953,-0.06880002,1.32242,0.04819674,0.4829299,1.558601,-0.1490477,-0.05916296,1.291118,0.2444997,-0.05059219,1.278362,0.04175845,0.003805579,1.602275,0.03532282,-0.3284826,1.603693,-0.1306388,0.2069707,1.581383,-0.04826926,-0.3199698,1.563607,-0.2116821,-0.01278138,1.593545,0.2708646,-0.01840654,1.607693,NA,NA,Unknown,Unknown,
0.2573242,-0.6225586,0.7524414,0.2197266,0.137207,0.9985352,1,-2,-2,-9,-3,-1,-27,-5,25,2,3,-4,-5,-3,4,-5,0.4375,0.4375,0.4375,-1.8125,-1.8125,-1.8125,3.907432,4.53635,3.143725,5.219699,4.67289,6.656222,-0.09058859,-0.085884,1.34512,0.1987262,-0.06873959,1.323996,0.04858582,0.4830642,1.558787,-0.1498131,-0.06421585,1.289081,0.245913,-0.05026918,1.275332,0.04183819,0.003806791,1.60229,0.03529893,-0.3284844,1.603688,-0.130527,0.206907,1.581461,-0.04830229,-0.3199832,1.563575,-0.2108632,-0.0126946,1.593447,0.2703891,-0.01921694,1.608338,NA,NA,Unknown,Unknown,
