ALX,ALY,ALZ,ARX,ARY,ARZ,EMG0L,EMG1L,EMG2L,EMG3L,EMG4L,EMG5L,EMG6L,EMG7L,EMG0R,EMG1R,EMG2R,EMG3R,EMG4R,EMG5R,EMG6R,EMG7R,GLX,GLY,GLZ,GRX,GRY,GRZ,ORL,OPL,OYL,ORR,OPR,OYR,LHNX,LHNY,LHNZ,RHNX,RHNY,RHNZ,HX,HY,HZ,LTX,LTY,LTZ,RTX,RTY,RTZ,SpineMidX,SpineMidY,SpineMidZ,SpineBaseX,SpineBaseY,SpineBaseZ,ShoulderLeftX,ShoulderLeftY,ShoulderLeftZ,ShoulderRightX,ShoulderRightY,ShoulderRightZ,ElbowLeftX,ElbowLeftY,ElbowLeftZ,ElbowRightX,ElbowRightY,ElbowRightZ,Myo_Pose_left,Myo_Pose_Right,Kinect_pose_left,Kinect_pose_right
0.965332,-0.2231445,0.109375,0.9501953,0.1225586,0.2231445,-3,-2,-2,-1,-2,-1,1,0,-2,-1,0,-4,-7,-1,1,-1,1.5625,1.5625,1.5625,-0.25,-0.25,-0.25,3.207837,2.897133,6.879683,5.778115,2.925939,8.918406,-0.2189807,-0.3769556,1.621933,0.1121341,-0.3606759,1.626011,-0.05678913,0.4810548,1.664807,-0.2673611,-0.3748576,1.62852,0.1544736,-0.3520092,1.616815,-0.05366892,0.0005470261,1.713302,-0.0532892,-0.3327263,1.714733,-0.2319256,0.196788,1.687246,-0.1344968,-0.3253626,1.672692,-0.2624092,-0.0652268,1.697214,0.1441183,-0.06166782,1.725723,NA,NA,NotTracked,NotTracked,
0.9667969,-0.2158203,0.1098633,0.9541016,0.1103516,0.2260742,-1,-1,-2,-3,-3,0,-2,-4,-2,-2,-2,-12,-19,-1,-2,0,1.875,1.875,1.875,0,0,0,3.20846,2.895809,6.883203,5.776735,2.92623,8.918936,-0.2186001,-0.3777263,1.621882,0.1107901,-0.3647907,1.624654,-0.05661364,0.4811106,1.664655,-0.2666818,-0.3849812,1.625467,0.1529336,-0.3656512,1.616307,-0.05350249,0.0006515762,1.713174,-0.05324635,-0.3326834,1.714673,-0.2318132,0.1968865,1.6871,-0.1344376,-0.3252904,1.672588,-0.2622957,-0.0651759,1.69708,0.1441979,-0.06185998,1.725443,NA,NA,NotTracked,NotTracked,
0.96875,-0.2216797,0.1025391,0.9511719,0.1191406,0.230957,-1,-2,-2,-2,-1,-1,-2,-3,-1,-2,0,-3,-5,-2,0,-1,0.375,0.375,0.375,0.3125,0.3125,0.3125,3.208052,2.895609,6.884302,5.776706,2.925978,8.919858,-0.218766,-0.3778369,1.623444,0.1104123,-0.3669968,1.625808,-0.05644323,0.4812304,1.664611,-0.2676694,-0.3815423,1.631703,0.1527585,-0.3659391,1.616515,-0.05339787,0.0007103548,1.713145,-0.05322729,-0.3326989,1.714668,-0.2317421,0.1968923,1.687102,-0.134429,-0.3252982,1.672592,-0.2622384,-0.06518627,1.697112,0.144282,-0.06192865,1.725281,NA,NA,NotTracked,NotTracked,
0.9619141,-0.2182617,0.1040039,0.9487305,0.1196289,0.2236328,-2,1,-1,0,0,-2,1,1,-2,0,-1,0,-1,0,-1,1,0.5,0.5,0.5,-1.8125,-1.8125,-1.8125,3.210026,2.895917,6.884122,5.777355,2.926012,8.917895,-0.21872,-0.3780627,1.623085,0.1112601,-0.3670212,1.625263,-0.05623302,0.4813298,1.664533,-0.2682792,-0.3720151,1.636812,0.1513279,-0.3784906,1.613769,-0.05328202,0.0007358507,1.713035,-0.0531702,-0.3326899,1.714602,-0.2314669,0.1969824,1.686999,-0.1343695,-0.3252952,1.672486,-0.2621325,-0.06512951,1.697071,0.1444041,-0.0620467,1.725081,NA,NA,NotTracked,NotTracked,
0.972168,-0.2285156,0.1069336,0.9545898,0.1171875,0.2319336,-2,0,1,0,0,-1,0,0,-1,0,-2,1,-2,-2,-1,-2,-0.0625,-0.0625,-0.0625,-0.8125,-0.8125,-0.8125,3.209464,2.896043,6.884688,5.7757,2.926008,8.918198,-0.2177421,-0.3781481,1.622296,0.1115209,-0.3662607,1.624495,-0.05606532,0.4813316,1.664465,-0.2670292,-0.3860786,1.632329,0.1529348,-0.3733484,1.615911,-0.05318441,0.0007578873,1.712974,-0.05301738,-0.3327284,1.71454,-0.2312922,0.1969735,1.686927,-0.1342279,-0.3253459,1.672413,-0.2619725,-0.06496447,1.697027,0.1444808,-0.06205013,1.724997,NA,NA,NotTracked,NotTracked,
0.9707031,-0.2241211,0.1010742,0.9472656,0.1162109,0.2299805,-3,0,0,0,-1,0,-2,-3,0,1,0,-2,-1,-1,0,0,0.1875,0.1875,0.1875,-1.6875,-1.6875,-1.6875,3.20848,2.895462,6.88568,5.774417,2.92574,8.91898,-0.2168435,-0.3784717,1.621653,0.1114665,-0.3667798,1.624998,-0.05585433,0.4814128,1.664286,-0.2682117,-0.3921287,1.6385,0.1527119,-0.3725926,1.615336,-0.0529572,0.000781453,1.712819,-0.05281944,-0.3327595,1.714435,-0.2311021,0.1970058,1.68681,-0.1340167,-0.3253547,1.672275,-0.2618327,-0.06493974,1.696998,0.144656,-0.06208299,1.724832,NA,NA,NotTracked,NotTracked,
0.9614258,-0.2133789,0.08886719,0.9448242,0.1289063,0.2099609,1,-2,1,-4,-2,-2,-2,-3,-5,-4,-3,-5,-5,-2,-2,-3,0.5625,0.5625,0.5625,-6.5625,-6.5625,-6.5625,3.208078,2.895279,6.886077,5.776281,2.922322,8.912351,-0.2172152,-0.3787276,1.621721,0.1114826,-0.3686614,1.62411,-0.05558076,0.4815247,1.664052,-0.2646469,-0.393016,1.627483,0.1533119,-0.3714573,1.617206,-0.05278175,0.000822202,1.712651,-0.0526997,-0.3327861,1.714318,-0.2308476,0.1969711,1.68662,-0.1338969,-0.3253562,1.672107,-0.2617038,-0.06490471,1.696884,0.1447588,-0.06216763,1.724648,NA,NA,NotTracked,NotTracked,
0.9790039,-0.2138672,0.08398438,0.9731445,0.1132813,0.1811523,-1,-2,-3,-2,-2,-2,-2,-1,0,0,-1,2,-4,-1,0,2,-0.4375,-0.4375,-0.4375,-3.25,-3.25,-3.25,3.206709,2.895041,6.88744,5.776119,2.914984,8.902854,-0.2173894,-0.3787527,1.622156,0.1118181,-0.3690864,1.624329,-0.0553945,0.4815052,1.663932,-0.2683154,-0.3805864,1.639014,0.1544247,-0.3561204,1.613378,-0.05254487,0.0007662053,1.712516,-0.05256544,-0.3328331,1.714216,-0.2306449,0.1969258,1.68652,-0.1337525,-0.3253686,1.671993,-0.2615408,-0.06484001,1.696637,0.1449154,-0.0622305,1.724578,NA,NA,NotTracked,NotTracked,
1.004883,-0.1904297,0.03173828,0.9541016,0.2114258,0.1435547,-1,-2,-1,0,1,0,-12,3,-1,3,3,0,4,9,0,0,2.6875,2.6875,2.6875,-10.5,-10.5,-10.5,3.194556,2.892246,6.901938,5.847797,2.915648,8.821106,-0.2173451,-0.3783785,1.621418,0.1128135,-0.369716,1.624203,-0.05513596,0.4814728,1.663752,-0.2668439,-0.3819003,1.631361,0.1538946,-0.3827823,1.6136,-0.05233853,0.0007331456,1.712294,-0.05235161,-0.3328695,1.714017,-0.2301471,0.1968068,1.68607,-0.1334993,-0.3254434,1.671701,-0.2614492,-0.06486698,1.696638,0.1450915,-0.06244142,1.724494,NA,NA,NotTracked,NotTracked,
1.015625,-0.1889648,0.003417969,1.081055,0.34375,0.078125,-1,-2,0,-2,-10,1,-2,3,3,11,4,0,2,-11,-7,-3,11.6875,11.6875,11.6875,-56.125,-56.125,-56.125,3.165478,2.889349,6.940017,6.011345,2.931838,8.594672,-0.2223839,-0.3750943,1.622122,0.1167666,-0.3694961,1.625106,-0.05473375,0.4814558,1.663537,-0.2690906,-0.3895718,1.6155,0.1635199,-0.3610737,1.614469,-0.05204466,0.0007928453,1.712098,-0.05218948,-0.3328792,1.713891,-0.2296063,0.1969295,1.685791,-0.1333113,-0.3254231,1.671489,-0.2619626,-0.06480452,1.697743,0.1457787,-0.0629361,1.724942,NA,NA,NotTracked,NotTracked,
1.139648,-0.1733398,-0.1088867,1.052734,0.2143555,0.07421875,9,3,2,0,0,-1,3,3,1,2,-7,5,13,36,36,33,33.125,33.125,33.125,-66.9375,-66.9375,-66.9375,3.122689,2.885795,7.014357,6.097371,2.99022,8.426711,-0.2414565,-0.3418625,1.627119,0.139513,-0.3462825,1.624589,-0.05433763,0.4815194,1.663444,-0.2848992,-0.3446743,1.617072,0.1547326,-0.3530803,1.575568,-0.05188334,0.0008565616,1.711929,-0.05208867,-0.3328514,1.713867,-0.2287598,0.1981289,1.685691,-0.1331901,-0.3253686,1.67138,-0.2739826,-0.05904137,1.711381,0.150505,-0.06156781,1.729841,NA,NA,NotTracked,NotTracked,
1.018066,-0.4438477,0.2084961,0.9106445,0.456543,0.4042969,-24,8,-60,-32,-12,-4,-8,3,-5,-10,-9,-15,-21,17,-28,20,69.875,69.875,69.875,-53.8125,-53.8125,-53.8125,2.911871,3.130608,7.523714,6.322347,3.363138,8.011445,-0.2651247,-0.3112039,1.619386,0.1693088,-0.3248338,1.600361,-0.05360659,0.4816659,1.662725,-0.279201,-0.285183,1.579904,0.1960575,-0.3074374,1.56999,-0.05158764,0.0009015623,1.711515,-0.05200268,-0.3328518,1.713817,-0.2265609,0.2009387,1.685849,-0.1330985,-0.3253423,1.671209,-0.2920987,-0.04673297,1.732067,0.1612651,-0.05837968,1.740233,NA,NA,NotTracked,NotTracked,
0.9550781,-0.434082,0.144043,0.8730469,0.4916992,0.4902344,-71,-24,-1,-13,-17,-9,-2,-14,6,6,0,-8,26,11,36,11,59.5625,59.5625,59.5625,-59.9375,-59.9375,-59.9375,2.888066,3.193527,7.586028,6.360771,3.537752,7.890082,-0.2873227,-0.2894646,1.612127,0.2110823,-0.2793876,1.571733,-0.05295461,0.4818622,1.662226,-0.3090396,-0.2492514,1.56808,0.2426466,-0.2643888,1.566222,-0.05154242,0.001049016,1.711375,-0.05211806,-0.3326249,1.713983,-0.2247534,0.2045362,1.688016,-0.1332,-0.3250007,1.671317,-0.307678,-0.02962317,1.754957,0.1735101,-0.04364314,1.756874,NA,NA,NotTracked,NotTracked,
0.8305664,-0.6186523,0.2104492,0.684082,0.5249023,0.5385742,7,4,9,6,11,11,15,8,-13,-5,-3,5,-17,-5,11,-8,40.1875,40.1875,40.1875,-45.375,-45.375,-45.375,2.815827,3.330217,7.721919,6.391506,3.818593,7.729395,-0.3477537,-0.2312465,1.584438,0.2502402,-0.2229857,1.553886,-0.05223683,0.4818425,1.661291,-0.3152412,-0.2571211,1.5916,0.2824854,-0.1933203,1.564,-0.05145172,0.001417326,1.71085,-0.05227857,-0.332097,1.714015,-0.2232337,0.2070318,1.689356,-0.1333587,-0.3242997,1.671415,-0.3186161,-0.01434953,1.773913,0.1760376,-0.03358084,1.766612,NA,NA,Closed,Closed,
0.6879883,-0.7094727,0.2021484,0.4228516,0.5913086,0.6103516,22,4,92,-6,-4,-4,3,2,5,16,11,21,8,-28,4,3,33.125,33.125,33.125,-19.6875,-19.6875,-19.6875,2.694083,3.772473,8.066575,6.416661,4.193172,7.571697,-0.3842204,-0.1901423,1.569933,0.2843984,-0.1657644,1.545481,-0.05180553,0.4819647,1.660476,-0.3475828,-0.1717279,1.54528,0.3135455,-0.1352883,1.567308,-0.05144712,0.001759151,1.710555,-0.05260715,-0.3311823,1.714085,-0.2219466,0.2097464,1.691441,-0.1336963,-0.3231854,1.671269,-0.326555,0.0009530534,1.785883,0.1806412,-0.02602499,1.774231,NA,NA,Closed,Closed,
0.5742188,-0.7094727,0.2299805,0.2651367,0.4858398,0.6489258,-23,-15,-22,36,-1,47,-18,-2,-1,8,-2,-15,-11,-13,1,-5,17.0625,17.0625,17.0625,-1.25,-1.25,-1.25,2.671795,3.981683,8.163003,6.417287,4.437454,7.514596,-0.4129416,-0.1481771,1.562926,0.3066057,-0.1165782,1.535264,-0.05161738,0.4822271,1.659799,-0.4034506,-0.1103484,1.555469,0.3356327,-0.08180171,1.566222,-0.05159451,0.002265848,1.710113,-0.05299613,-0.3302664,1.714114,-0.2212903,0.212644,1.693318,-0.1341024,-0.3220141,1.671147,-0.3326852,0.009462005,1.794413,0.1854558,-0.02199206,1.7783,NA,NA,Closed,Closed,
0.4111328,-0.7763672,0.2719727,0.1459961,0.4506836,0.6801758,-8,12,-16,2,-8,4,-18,-1,2,-9,-2,2,4,12,12,10,2,2,2,-0.9375,-0.9375,-0.9375,2.66445,4.212107,8.207346,6.389035,4.67844,7.526147,-0.4250426,-0.11406,1.552546,0.3141226,-0.07806636,1.529058,-0.05165923,0.4824776,1.659701,-0.3958551,-0.09036209,1.540486,0.336679,-0.04206191,1.544909,-0.05174489,0.002728848,1.709925,-0.05352646,-0.3292676,1.714337,-0.2210431,0.2146723,1.695122,-0.1345833,-0.3209451,1.671314,-0.3360575,0.01610851,1.798095,0.1910563,-0.02397771,1.791386,NA,NA,Closed,Closed,
0.28125,-0.7255859,0.284668,0.1342773,0.5200195,0.6894531,2,-11,-15,36,3,-8,-8,-3,7,34,10,-10,-37,2,7,13,1.3125,1.3125,1.3125,-5.25,-5.25,-5.25,2.711786,4.338246,8.164865,6.351431,4.786349,7.599604,-0.4254583,-0.08819761,1.545623,0.3095833,-0.05038514,1.518943,-0.051665,0.4825356,1.659717,-0.3957306,-0.06605023,1.531454,0.3373299,-0.0185438,1.518333,-0.05195605,0.002975171,1.709876,-0.05397109,-0.3287848,1.714556,-0.220898,0.2157645,1.696708,-0.135018,-0.3204806,1.671545,-0.3381662,0.01936307,1.799193,0.1987379,-0.02045196,1.786968,NA,NA,Closed,Closed,
0.3261719,-0.7949219,0.347168,0.1386719,0.5576172,0.715332,36,11,0,17,4,-18,0,-3,-7,7,15,2,-7,-41,-27,-34,5.6875,5.6875,5.6875,-9.3125,-9.3125,-9.3125,2.753795,4.399964,8.107944,6.299354,4.827319,7.744695,-0.4062383,-0.07812515,1.525349,0.2866684,-0.04041975,1.502278,-0.05177099,0.4826148,1.659879,-0.3901726,-0.04736432,1.517625,0.3236205,-0.02171842,1.501894,-0.05211096,0.003203529,1.709934,-0.05443596,-0.3283928,1.7149,-0.2208684,0.216256,1.69759,-0.1354921,-0.3200521,1.672056,-0.3468368,0.0245857,1.802604,0.2003424,-0.02969203,1.791335,NA,NA,Closed,Closed,
0.3188477,-0.8525391,0.3681641,0.1635742,0.640625,0.6977539,-56,-18,28,-9,4,14,-7,-12,2,-24,-26,-15,-24,-26,-7,5,17.375,17.375,17.375,-6.6875,-6.6875,-6.6875,2.874869,4.472128,7.907706,6.257628,4.816878,7.958684,-0.3661237,-0.07646967,1.499463,0.2501679,-0.0425027,1.489582,-0.05206158,0.4830491,1.661096,-0.3679274,-0.04606795,1.487978,0.2938506,-0.03931332,1.495687,-0.05221758,0.003409615,1.710204,-0.05457542,-0.3282338,1.715061,-0.2208487,0.2162244,1.698414,-0.1356296,-0.3198709,1.67233,-0.3485776,0.02351261,1.795116,0.1956371,-0.03676689,1.791743,NA,NA,Closed,Closed,
0.2744141,-0.8549805,0.3608398,0.1557617,0.6582031,0.734375,5,-5,11,28,14,12,-21,0,-8,-36,-24,5,3,-11,12,3,19.625,19.625,19.625,3,3,3,2.970351,4.504352,7.697616,6.220144,4.781537,8.226436,-0.3175157,-0.07723243,1.481259,0.2003643,-0.05441297,1.483714,-0.05255396,0.48373,1.664162,-0.3028572,-0.0477072,1.47227,0.2484942,-0.04877084,1.486364,-0.05234236,0.003732051,1.711046,-0.05466872,-0.3279754,1.715497,-0.2208434,0.2163363,1.699633,-0.1356992,-0.3196437,1.672866,-0.3487439,0.02370946,1.77964,0.1802478,-0.00493116,1.768085,NA,NA,Closed,Closed,
0.3085938,-0.8544922,0.3696289,0.1962891,0.7016602,0.7216797,9,3,13,24,-3,-13,-3,0,-6,-18,-12,0,-8,-67,-7,-5,27.3125,27.3125,27.3125,1.8125,1.8125,1.8125,3.050246,4.519279,7.542291,6.208752,4.767697,8.316582,-0.2692855,-0.08051102,1.473091,0.1567518,-0.06648953,1.483529,-0.05279663,0.484173,1.667832,-0.2213651,-0.09083658,1.4652,0.2000331,-0.03834478,1.48771,-0.05259683,0.004125378,1.712497,-0.05468498,-0.3277348,1.715927,-0.2218167,0.2160311,1.701374,-0.1356196,-0.3194369,1.673376,-0.3141703,0.0198037,1.751334,0.1830599,-0.01154611,1.762342,NA,NA,Closed,Unknown,
0.453125,-0.9594727,0.3535156,0.2612305,0.8046875,0.7124023,-54,-12,3,-12,-3,1,11,-3,6,5,4,17,26,70,37,11,14.9375,14.9375,14.9375,-3.625,-3.625,-3.625,3.225171,4.546881,7.120033,6.153248,4.727457,8.762772,-0.2178872,-0.0846898,1.462314,0.08271164,-0.07053927,1.463569,-0.05298201,0.4849827,1.672572,-0.233155,-0.1151842,1.435421,0.01309939,-0.06012329,1.4628,-0.05275331,0.00457964,1.71418,-0.05462355,-0.3275498,1.716266,-0.223168,0.2145905,1.702883,-0.1354917,-0.319347,1.67365,-0.3055977,0.01475513,1.742676,0.1888003,-0.04577043,1.68516,NA,NA,Lasso,Unknown,
0.4462891,-0.9760742,0.2915039,0.3007813,0.7963867,0.6352539,-11,1,-23,-8,-5,-4,11,-5,0,5,12,29,19,-43,13,13,9.8125,9.8125,9.8125,-0.9375,-0.9375,-0.9375,3.260567,4.549598,6.967743,6.14754,4.72332,8.887511,-0.1833131,-0.08333844,1.475788,0.07618493,-0.07879133,1.509147,-0.05287568,0.4859264,1.676113,-0.1985043,-0.07399786,1.426694,0.02819946,-0.1169842,1.564215,-0.0530122,0.005054301,1.715526,-0.05463348,-0.3272995,1.716537,-0.2234137,0.2140916,1.703077,-0.1353604,-0.3191627,1.673951,-0.2963704,0.00796885,1.728918,0.1755106,-0.02076261,1.718146,NA,NA,Unknown,Lasso,
0.3974609,-0.9311523,0.293457,0.3125,0.7915039,0.6601563,-4,3,11,-19,1,-9,-10,2,-1,-12,-9,5,-22,-43,25,-2,2.8125,2.8125,2.8125,1.25,1.25,1.25,3.280452,4.552362,6.876027,6.166279,4.720099,8.947996,-0.1675754,-0.08272735,1.491287,0.06196903,-0.07787921,1.515581,-0.05269771,0.4865328,1.679313,-0.1889676,-0.07115491,1.439486,0.02483906,-0.1219753,1.56405,-0.05330863,0.005480673,1.716734,-0.05479061,-0.3269528,1.7169,-0.2237637,0.2137811,1.703301,-0.1353371,-0.3188566,1.674408,-0.2934168,0.005632967,1.725281,0.1748045,-0.02116656,1.717343,NA,NA,Unknown,Lasso,
0.3544922,-0.9267578,0.3461914,0.2763672,0.7861328,0.6738281,13,1,-30,-45,1,17,10,3,-4,19,11,13,-4,-17,6,-7,-8.5625,-8.5625,-8.5625,1.875,1.875,1.875,3.264486,4.546151,6.843835,6.191022,4.722373,8.916394,-0.1564393,-0.0829009,1.49774,0.06843342,-0.07456308,1.512069,-0.05238602,0.4868427,1.681025,-0.1766088,-0.05951479,1.434409,0.02721768,-0.1176266,1.563987,-0.05337746,0.00577407,1.717464,-0.0548455,-0.326708,1.717062,-0.2238521,0.2136682,1.70338,-0.1352611,-0.3186142,1.674647,-0.2927483,0.005033806,1.724256,0.1747869,-0.02136587,1.716545,NA,NA,Lasso,Unknown,
0.3549805,-0.9355469,0.3852539,0.262207,0.7470703,0.6987305,-26,9,-7,87,-1,25,5,-8,-11,-35,-2,-3,-20,8,10,-2,-5.75,-5.75,-5.75,-0.125,-0.125,-0.125,3.244521,4.542083,6.86181,6.206297,4.72671,8.863273,-0.1614819,-0.08207321,1.499061,0.05679223,-0.08008146,1.530245,-0.05207868,0.4868973,1.681979,-0.2025944,-0.05893004,1.448141,0.005663377,-0.1292797,1.554548,-0.05331361,0.005820199,1.717783,-0.05480855,-0.3266056,1.717121,-0.2239505,0.2133673,1.703418,-0.1351355,-0.3184465,1.674679,-0.2930668,0.004794723,1.724199,0.17532,-0.02150443,1.717209,NA,NA,Lasso,Lasso,
0.3603516,-0.9370117,0.4052734,0.1713867,0.71875,0.730957,1,2,-5,-14,5,-6,11,5,0,25,0,12,73,26,-16,-11,-9.8125,-9.8125,-9.8125,3.6875,3.6875,3.6875,3.206975,4.54429,6.924304,6.266907,4.767619,8.577153,-0.1961884,-0.07250986,1.505889,0.1219599,-0.0598809,1.487731,-0.05186791,0.486839,1.682372,-0.1398546,-0.07393426,1.560464,0.09474438,-0.093566,1.497917,-0.05325612,0.00586228,1.718085,-0.05479034,-0.3265784,1.717154,-0.2239621,0.2131482,1.70345,-0.135087,-0.3184131,1.674703,-0.2950996,0.005432614,1.72492,0.185666,-0.04280678,1.683181,NA,NA,Lasso,Lasso,
0.3095703,-0.9033203,0.418457,0.112793,0.706543,0.7543945,-1,-5,-19,-22,-8,-12,-21,-5,0,12,4,19,-15,-26,-23,1,-9.25,-9.25,-9.25,9.5,9.5,9.5,3.153636,4.566906,7.059882,6.288889,4.795259,8.452592,-0.2305789,-0.05944446,1.488811,0.1563016,-0.05039942,1.494099,-0.05179599,0.486849,1.682523,-0.162532,-0.05658772,1.565366,0.1301081,-0.08366473,1.491115,-0.05324031,0.005872207,1.718231,-0.0547657,-0.3265725,1.717201,-0.2239422,0.2131402,1.703554,-0.1350475,-0.3183938,1.674754,-0.3018111,0.01001593,1.733889,0.1855952,-0.01696244,1.75061,NA,NA,Unknown,Lasso,
0.2519531,-0.9121094,0.4145508,0.05957031,0.6577148,0.7807617,5,1,-17,-30,-7,4,18,-3,-4,-6,-17,-3,-49,-60,-39,-53,-12.6875,-12.6875,-12.6875,14.1875,14.1875,14.1875,3.103971,4.593779,7.185644,6.316389,4.844908,8.2713,-0.2583411,-0.05125372,1.479281,0.190329,-0.03922848,1.498961,-0.05166321,0.486777,1.682355,-0.189389,-0.02966223,1.453833,0.1711061,-0.07444663,1.500773,-0.05324195,0.005847174,1.71825,-0.05479372,-0.3265719,1.717175,-0.2240455,0.2135722,1.703818,-0.1350709,-0.3183992,1.674676,-0.308708,0.01734857,1.747736,0.1838238,-0.01522691,1.763223,NA,NA,Unknown,Unknown,
0.1958008,-0.8950195,0.4213867,-0.008300781,0.6362305,0.7700195,-5,4,-15,11,0,22,0,-7,2,-16,-10,-12,-12,6,11,3,-17.5625,-17.5625,-17.5625,13.0625,13.0625,13.0625,3.05559,4.624226,7.310584,6.340001,4.919182,8.075967,-0.2912504,-0.04383754,1.484026,0.2241362,-0.0247176,1.504187,-0.05120521,0.4864536,1.681033,-0.2738439,-0.005521149,1.4948,0.1524209,-0.01102983,1.453875,-0.05333794,0.005772268,1.717957,-0.05491774,-0.3266024,1.716884,-0.2234807,0.2141923,1.703542,-0.1352263,-0.3184017,1.67438,-0.3137855,0.02339369,1.75509,0.1786515,-0.03632116,1.786948,NA,NA,Closed,Unknown,
0.1669922,-0.8881836,0.4013672,0.01611328,0.6542969,0.7397461,-12,-6,-12,-10,-2,-4,3,-1,-4,-3,-7,4,24,48,-1,11,-11,-11,-11,3.875,3.875,3.875,2.999681,4.666915,7.487844,6.34146,4.959359,7.971348,-0.3105557,-0.03643249,1.490255,0.244026,-0.01338422,1.51027,-0.05075543,0.4860768,1.679914,-0.2884214,-0.0002337866,1.5076,0.1770215,-0.0002395292,1.466,-0.05337378,0.005693518,1.717839,-0.05495533,-0.3266219,1.716784,-0.2228335,0.2147729,1.703376,-0.1352891,-0.3184239,1.674279,-0.334664,0.04228027,1.767922,0.1891847,-0.05092248,1.800971,NA,NA,Closed,Unknown,
0.1669922,-0.8881836,0.4013672,0.01611328,0.6542969,0.7397461,-20,-18,1,-22,-3,-15,0,1,-4,-3,-7,4,24,48,-1,11,-11,-11,-11,3.875,3.875,3.875,2.999681,4.666915,7.487844,6.34146,4.959359,7.971348,-0.3213481,-0.03207415,1.492545,0.2550612,-0.004686016,1.511921,-0.05020314,0.4856654,1.678373,-0.3041845,0.005017391,1.512375,0.1894665,0.01273781,1.473,-0.05316933,0.005559508,1.717349,-0.05490614,-0.3266576,1.716563,-0.2221233,0.215237,1.702989,-0.1352765,-0.3184603,1.673799,-0.3373227,0.04551021,1.770271,0.1965818,-0.05752357,1.798538,NA,NA,Unknown,Closed,
0.1303711,-0.8701172,0.3632813,-0.05615234,0.609375,0.7319336,-23,-15,-8,0,-1,-5,0,-8,3,7,-6,-19,-45,-1,-2,7,2.125,2.125,2.125,0.1875,0.1875,0.1875,2.985678,4.70055,7.615795,6.313227,5.012476,7.862505,-0.3260782,-0.03013474,1.494107,0.2590876,-0.004701388,1.512947,-0.04988077,0.485399,1.67701,-0.2721364,-0.01103562,1.466,0.1927361,0.01314906,1.475271,-0.05305785,0.005374343,1.716899,-0.05485834,-0.3267538,1.716402,-0.2216316,0.2154469,1.702732,-0.1352582,-0.3185905,1.673566,-0.3369351,0.04589132,1.773496,0.1979469,-0.05883098,1.799579,NA,NA,Unknown,Closed,
0.06884766,-0.8544922,0.4023438,-0.04736328,0.6040039,0.7758789,10,0,36,20,0,-26,-15,1,-6,7,-2,13,10,7,-12,-5,9.625,9.625,9.625,-6.5625,-6.5625,-6.5625,3.017847,4.708574,7.60403,6.287404,4.987632,7.924903,-0.3205603,-0.03216859,1.493045,0.2497802,-0.0124034,1.510415,-0.0497219,0.4852782,1.675979,-0.2645932,-0.01517688,1.453419,0.1861385,0.001961967,1.468414,-0.05299621,0.005357609,1.716531,-0.05482191,-0.3266895,1.716266,-0.2212037,0.2158238,1.702592,-0.1352364,-0.3184602,1.673274,-0.3249927,0.03798402,1.779473,0.1983144,-0.05956921,1.800229,NA,NA,Closed,Closed,
0.1308594,-0.9042969,0.3994141,-0.004394531,0.6518555,0.7641602,-9,7,9,-16,-13,-14,-2,-4,4,1,-9,0,-10,4,9,5,3.25,3.25,3.25,-9.6875,-9.6875,-9.6875,3.051721,4.700963,7.521341,6.2555,4.942185,8.057868,-0.3049995,-0.04017355,1.490717,0.2270863,-0.0262369,1.505822,-0.04962709,0.4851499,1.675246,-0.2345316,-0.02533457,1.45225,0.1601265,-0.01453961,1.457,-0.05293852,0.005258135,1.716377,-0.05479917,-0.3267204,1.716202,-0.2208207,0.2159601,1.702491,-0.1352303,-0.3184773,1.673212,-0.3234091,0.03701488,1.776911,0.1839176,-0.05736466,1.799211,NA,NA,Closed,Closed,
0.1435547,-0.9238281,0.4350586,0.08447266,0.6923828,0.7294922,-5,12,29,-17,0,-4,12,1,-2,-13,28,12,-2,-12,24,23,5.75,5.75,5.75,-12.8125,-12.8125,-12.8125,3.09279,4.691624,7.383285,6.209743,4.876405,8.3051,-0.2758764,-0.04736451,1.48899,0.1917142,-0.04162335,1.502342,-0.049626,0.485064,1.675164,-0.2019252,-0.04265749,1.485714,0.1147482,-0.03073137,1.461286,-0.05289587,0.005227054,1.71633,-0.0547767,-0.3267038,1.716193,-0.2207505,0.2159574,1.702565,-0.1352031,-0.3184494,1.673239,-0.3546483,0.04058352,1.765335,0.1788835,-0.007854234,1.78087,NA,NA,Unknown,Unknown,
0.1435547,-0.9238281,0.4350586,0.1513672,0.7070313,0.737793,2,-4,-8,3,0,13,4,3,-5,-14,-11,-7,-8,0,6,17,5.75,5.75,5.75,-11.6875,-11.6875,-11.6875,3.09279,4.691624,7.383285,6.197021,4.854092,8.380971,-0.2332704,-0.05676734,1.476017,0.1620896,-0.05623744,1.498397,-0.04962679,0.4850064,1.675319,-0.1884714,-0.03056462,1.467714,0.1090498,-0.06969677,1.525947,-0.05287071,0.005223338,1.716338,-0.05468989,-0.3266628,1.716203,-0.221042,0.215761,1.702926,-0.135101,-0.318419,1.673244,-0.3095584,0.02079691,1.745414,0.180618,-0.01061022,1.77544,NA,NA,Lasso,Unknown,
0.2568359,-0.9438477,0.3725586,0.2231445,0.7661133,0.706543,4,-1,-8,3,3,-7,15,4,-2,-14,-14,5,-8,-11,-4,25,-2.375,-2.375,-2.375,7.0625,7.0625,7.0625,3.157069,4.673019,7.101544,6.172937,4.771462,8.714039,-0.2158054,-0.06259454,1.477943,0.1323126,-0.06604121,1.497443,-0.04960071,0.4850466,1.6762,-0.209767,-0.1033446,1.4759,0.09521889,-0.09671164,1.5081,-0.05272273,0.005256803,1.716525,-0.05458797,-0.3265561,1.716299,-0.2217992,0.2152352,1.703582,-0.1349578,-0.3182961,1.673342,-0.3079101,0.01795717,1.742289,0.1853651,-0.01353212,1.762499,NA,NA,Lasso,Unknown,
0.3417969,-0.9423828,0.3691406,0.2993164,0.7563477,0.7060547,13,-5,-3,1,-1,7,-14,0,-4,-9,-10,24,15,5,-8,-8,4.6875,4.6875,4.6875,3.5,3.5,3.5,3.18613,4.648138,6.969467,6.174971,4.726601,8.875788,-0.1923746,-0.06588832,1.488461,0.09029351,-0.0762096,1.524829,-0.04945328,0.4852489,1.677245,-0.2152174,-0.05796008,1.44761,0.04012227,-0.1248962,1.572209,-0.05258895,0.005304871,1.716791,-0.05452845,-0.326502,1.716364,-0.221904,0.2138142,1.703754,-0.1348515,-0.318224,1.673416,-0.305239,0.01249908,1.732281,0.1899153,-0.04000126,1.68858,NA,NA,Unknown,Unknown,
0.331543,-0.9501953,0.3383789,0.2617188,0.7294922,0.6660156,-24,0,15,-24,2,-4,-5,-7,2,-2,2,4,-4,3,-1,3,11.125,11.125,11.125,4.4375,4.4375,4.4375,3.199353,4.637996,6.912814,6.176058,4.711119,8.927959,-0.1853483,-0.06561083,1.512215,0.07067671,-0.07737402,1.531363,-0.0494989,0.4854494,1.67838,-0.2374976,-0.04853902,1.482708,0.02983246,-0.1249848,1.564693,-0.05248755,0.005492085,1.71713,-0.05449943,-0.3263181,1.716438,-0.2219892,0.2133858,1.703752,-0.1347446,-0.3180367,1.673576,-0.3038752,0.01089124,1.729933,0.1854153,-0.01826171,1.734143,NA,NA,Unknown,Unknown,
0.2587891,-0.9248047,0.3964844,0.2475586,0.703125,0.7026367,-6,-4,22,9,-5,-1,-4,0,-3,-3,-10,-1,-14,-6,1,-6,4.75,4.75,4.75,-6.375,-6.375,-6.375,3.208359,4.629876,6.873968,6.177176,4.703693,8.938348,-0.1650823,-0.07250959,1.510309,0.0756529,-0.07733823,1.524438,-0.04953497,0.4855067,1.67904,-0.2124114,-0.0492165,1.4635,0.03385499,-0.1210837,1.565672,-0.05250659,0.005514372,1.717257,-0.05447995,-0.3262882,1.716437,-0.22185,0.2124633,1.703691,-0.1346826,-0.3180147,1.673615,-0.3030187,0.009348122,1.728441,0.1877733,-0.0180811,1.728619,NA,NA,Lasso,Lasso,
0.230957,-0.8974609,0.4101563,0.2089844,0.6948242,0.7338867,7,3,2,100,4,-22,11,-1,-4,-20,-12,-28,-18,27,1,-12,3.75,3.75,3.75,1.5625,1.5625,1.5625,3.21294,4.625467,6.866672,6.181597,4.698413,8.932577,-0.1614139,-0.07419814,1.514045,0.07937441,-0.07875517,1.522026,-0.0495502,0.485524,1.679509,-0.20252,-0.04891044,1.457806,0.0359139,-0.1231882,1.565502,-0.05243188,0.005571909,1.71737,-0.05442633,-0.3261531,1.716402,-0.221931,0.2122984,1.703695,-0.1345659,-0.3178807,1.673564,-0.3026283,0.008898149,1.728038,0.1877074,-0.01814706,1.728747,NA,NA,Unknown,Unknown,
0.2114258,-0.9072266,0.4453125,0.2006836,0.6557617,0.7602539,2,-14,-27,-12,-9,-8,-5,-3,5,4,2,0,0,-26,-3,-1,3,3,3,2.5,2.5,2.5,3.21605,4.62065,6.865914,6.187655,4.690403,8.921457,-0.1603005,-0.07415564,1.516298,0.06566859,-0.08036734,1.535758,-0.04955931,0.4855611,1.679661,-0.1914725,-0.04807747,1.44875,0.03390023,-0.1362343,1.564721,-0.05239321,0.005595717,1.717404,-0.05439837,-0.3261065,1.716364,-0.22176,0.2116501,1.703595,-0.1345036,-0.3178583,1.673523,-0.302768,0.008235564,1.727262,0.189224,-0.04221576,1.690534,NA,NA,Lasso,Lasso,
0.2055664,-0.8862305,0.4448242,0.2050781,0.6479492,0.7524414,19,-1,-2,-34,-8,-17,-4,1,1,9,4,-9,-16,-4,11,8,4.8125,4.8125,4.8125,2.3125,2.3125,2.3125,3.223005,4.623245,6.865134,6.190535,4.686955,8.912973,-0.1671813,-0.07388768,1.520235,0.06625619,-0.08179583,1.537302,-0.0495282,0.485614,1.679939,-0.2081988,-0.04521709,1.464607,0.03388693,-0.1392897,1.564738,-0.05236353,0.005566602,1.717516,-0.05433939,-0.3260827,1.716347,-0.2217127,0.211286,1.703611,-0.1343952,-0.3178179,1.673486,-0.302805,0.007901407,1.727235,0.1857098,-0.04064939,1.673449,NA,NA,Unknown,Lasso,
