ALX,ALY,ALZ,ARX,ARY,ARZ,EMG0L,EMG1L,EMG2L,EMG3L,EMG4L,EMG5L,EMG6L,EMG7L,EMG0R,EMG1R,EMG2R,EMG3R,EMG4R,EMG5R,EMG6R,EMG7R,GLX,GLY,GLZ,GRX,GRY,GRZ,ORL,OPL,OYL,ORR,OPR,OYR,LHNX,LHNY,LHNZ,RHNX,RHNY,RHNZ,HX,HY,HZ,LTX,LTY,LTZ,RTX,RTY,RTZ,SpineMidX,SpineMidY,SpineMidZ,SpineBaseX,SpineBaseY,SpineBaseZ,ShoulderLeftX,ShoulderLeftY,ShoulderLeftZ,ShoulderRightX,ShoulderRightY,ShoulderRightZ,ElbowLeftX,ElbowLeftY,ElbowLeftZ,ElbowRightX,ElbowRightY,ElbowRightZ,Myo_Pose_left,Myo_Pose_Right,Kinect_pose_left,Kinect_pose_right
0.9580078,-0.2529297,0.1264648,0.9472656,0.1049805,0.2451172,-2,-2,-2,-1,1,0,0,-2,0,-2,-2,0,-2,-1,0,-2,-2.0625,-2.0625,-2.0625,-0.0625,-0.0625,-0.0625,3.232138,2.958328,7.179614,5.606015,2.957514,9.24434,-0.2084458,-0.3668395,1.620999,0.1042389,-0.3767153,1.622562,-0.04534374,0.4828477,1.67775,-0.1617995,-0.3198857,1.604072,0.1476972,-0.3887216,1.612923,-0.04999332,0.002310527,1.721429,-0.05254138,-0.3306071,1.719143,-0.2255253,0.2024111,1.700328,-0.1335093,-0.3230582,1.67724,-0.2571849,-0.05967003,1.696921,0.1437644,-0.06044339,1.726443,NA,NA,NotTracked,NotTracked,
0.9584961,-0.2446289,0.1303711,0.9404297,0.1020508,0.246582,0,-1,-1,0,-1,-2,-3,-1,0,-1,1,0,0,-1,-1,-1,-1,-1,-1,0.0625,0.0625,0.0625,3.233515,2.957519,7.17696,5.606366,2.957387,9.243883,-0.2074953,-0.3670062,1.619492,0.1059256,-0.3726811,1.621939,-0.04532014,0.4828901,1.677884,-0.16085,-0.3240642,1.602944,0.1481161,-0.3751143,1.60681,-0.04992909,0.002379298,1.721567,-0.05242582,-0.3305763,1.719354,-0.2255322,0.2024112,1.700314,-0.1334176,-0.3230223,1.677368,-0.2572051,-0.05957594,1.696934,0.1438008,-0.06038101,1.726532,NA,NA,NotTracked,NotTracked,
0.9604492,-0.2485352,0.1245117,0.9443359,0.1000977,0.2509766,0,0,-3,-1,-3,0,-1,1,-2,-1,-1,-1,0,0,-3,-1,-1.75,-1.75,-1.75,-0.375,-0.375,-0.375,3.234293,2.956362,7.173227,5.606718,2.957261,9.243426,-0.2072341,-0.3671969,1.62052,0.1071709,-0.3698854,1.623645,-0.04524339,0.4829199,1.678157,-0.1608672,-0.3233867,1.602477,0.1488449,-0.3755656,1.610358,-0.04982656,0.002461714,1.721822,-0.05214128,-0.3304461,1.719778,-0.2255066,0.2023941,1.700297,-0.1331619,-0.3229023,1.677724,-0.2571375,-0.05962995,1.697077,0.1438769,-0.06016122,1.72687,NA,NA,NotTracked,NotTracked,
0.9604492,-0.2529297,0.1181641,0.9453125,0.1030273,0.2563477,-1,0,1,-1,-2,-1,0,-1,-2,0,-1,1,-2,-1,-1,-1,-1.6875,-1.6875,-1.6875,-0.875,-0.875,-0.875,3.231489,2.953851,7.172201,5.607075,2.956718,9.243422,-0.2084816,-0.3622914,1.622222,0.1072494,-0.368957,1.624526,-0.0452138,0.4828722,1.678347,-0.1613584,-0.322207,1.60525,0.1482892,-0.3717398,1.608837,-0.04973942,0.002461251,1.722127,-0.05187061,-0.3304743,1.720213,-0.2255002,0.2023838,1.700312,-0.1329064,-0.3229582,1.678134,-0.2570735,-0.05969275,1.697202,0.1439672,-0.0602705,1.727122,NA,NA,NotTracked,NotTracked,
0.9526367,-0.2509766,0.1191406,0.940918,0.1074219,0.2529297,-1,-1,-1,0,-1,-1,0,-1,-1,-1,0,0,0,0,0,0,-1,-1,-1,-1.1875,-1.1875,-1.1875,3.230867,2.952727,7.171142,5.606039,2.95677,9.242888,-0.2079333,-0.365152,1.622397,0.1079814,-0.3687189,1.625995,-0.04511771,0.4827627,1.678629,-0.1619268,-0.3190642,1.606606,0.1485975,-0.3755901,1.609922,-0.04966709,0.002475633,1.722363,-0.05165876,-0.3304582,1.720535,-0.2254837,0.2023925,1.700376,-0.1326682,-0.3229511,1.6785,-0.2570676,-0.05966583,1.697298,0.1440666,-0.06033552,1.727505,NA,NA,NotTracked,NotTracked,
0.956543,-0.2519531,0.1210938,0.9443359,0.1098633,0.2543945,-3,-2,-1,-1,-1,0,-1,-2,0,1,0,-1,0,-2,-1,-1,-0.4375,-0.4375,-0.4375,-0.0625,-0.0625,-0.0625,3.230867,2.952727,7.171142,5.604899,2.956622,9.243502,-0.2077954,-0.3647418,1.621912,0.1076743,-0.3707252,1.624484,-0.04502246,0.4827906,1.678723,-0.1620286,-0.320119,1.606495,0.1492246,-0.3762316,1.611514,-0.04953915,0.002495317,1.722555,-0.05145505,-0.3304293,1.720818,-0.2253321,0.2024031,1.700336,-0.13248,-0.3228882,1.678715,-0.256966,-0.05978134,1.697387,0.1441266,-0.0601896,1.727824,NA,NA,NotTracked,NotTracked,
0.9570313,-0.2475586,0.1206055,0.9433594,0.1020508,0.2539063,-3,-2,-3,-1,0,0,-1,-1,0,-1,-1,-1,-1,0,0,1,-1.0625,-1.0625,-1.0625,-1,-1,-1,3.22926,2.952418,7.172047,5.605286,2.956628,9.243018,-0.2084088,-0.3625279,1.622586,0.1081062,-0.3706672,1.624955,-0.04493059,0.4828319,1.678817,-0.1613239,-0.3213344,1.605677,0.1491755,-0.4013942,1.6104,-0.04945004,0.002535671,1.722783,-0.05130776,-0.3303572,1.721136,-0.2253187,0.2024426,1.700315,-0.1323344,-0.3227724,1.679105,-0.2569321,-0.0597109,1.697375,0.1442582,-0.05993225,1.728126,NA,NA,NotTracked,NotTracked,
0.956543,-0.2475586,0.1240234,0.9399414,0.09765625,0.2524414,-1,-3,-2,-2,-1,-1,-2,-4,0,-3,-1,0,-3,-1,2,1,-0.8125,-0.8125,-0.8125,-0.375,-0.375,-0.375,3.229491,2.952291,7.171953,5.604899,2.956622,9.243502,-0.2082772,-0.3641618,1.622307,0.1076863,-0.3688653,1.625554,-0.04461076,0.4829507,1.679255,-0.1609908,-0.3220356,1.605571,0.1486139,-0.3855831,1.607466,-0.04937904,0.002579213,1.722887,-0.05121804,-0.3302822,1.721323,-0.2253283,0.2024525,1.700329,-0.1322407,-0.3227098,1.679302,-0.2569434,-0.05963507,1.697372,0.1443619,-0.05981883,1.728338,NA,NA,NotTracked,NotTracked,
0.956543,-0.2475586,0.1240234,0.9399414,0.09765625,0.2524414,-1,-3,-2,-2,-1,-1,-2,-4,0,-3,-1,0,-3,-1,2,1,-0.8125,-0.8125,-0.8125,-0.375,-0.375,-0.375,3.229491,2.952291,7.171953,5.604899,2.956622,9.243502,-0.2078637,-0.3675212,1.621967,0.1082019,-0.3694474,1.625782,-0.0443368,0.4828943,1.679511,-0.1623545,-0.3198694,1.60736,0.1513849,-0.3740205,1.616401,-0.04925806,0.00253601,1.723051,-0.05105879,-0.3303542,1.721599,-0.2252487,0.2024422,1.700356,-0.1320851,-0.3227955,1.679603,-0.2568669,-0.05964204,1.697417,0.1444394,-0.05975038,1.728438,NA,NA,NotTracked,NotTracked,
0.9570313,-0.2431641,0.125,0.9428711,0.1083984,0.2602539,-1,-2,-2,3,1,1,-3,-2,-1,-2,-1,0,-1,-1,-1,0,3.5625,3.5625,3.5625,-1.4375,-1.4375,-1.4375,3.22787,2.950537,7.179686,5.609277,2.954272,9.237173,-0.2072873,-0.3676094,1.620712,0.1073,-0.3738128,1.623573,-0.0441519,0.4828132,1.679551,-0.1602494,-0.3285862,1.604789,0.147215,-0.3737064,1.606026,-0.04921289,0.002504998,1.723065,-0.0509842,-0.3303819,1.721643,-0.2251494,0.2023648,1.700294,-0.1320048,-0.3228298,1.67966,-0.2567098,-0.0599209,1.697496,0.144519,-0.0598738,1.728502,NA,NA,NotTracked,NotTracked,
0.9873047,-0.2114258,0.07470703,0.8989258,0.2441406,0.1650391,-1,0,3,1,-1,-1,4,0,-2,4,15,6,2,2,13,12,5.1875,5.1875,5.1875,-15.75,-15.75,-15.75,3.222172,2.948607,7.19388,5.65006,2.948217,9.175024,-0.2095547,-0.3614472,1.622792,0.1073338,-0.3737676,1.623702,-0.04400072,0.4828729,1.679712,-0.1610336,-0.3223296,1.604583,0.1485735,-0.3750694,1.6079,-0.04916862,0.002491124,1.723141,-0.05094645,-0.3304193,1.721702,-0.2250607,0.2023703,1.700268,-0.131986,-0.3228568,1.679675,-0.2566945,-0.05984755,1.697699,0.1445911,-0.05989332,1.728611,NA,NA,NotTracked,NotTracked,
1.025879,-0.4550781,0.0703125,1.112305,0.2744141,0.08935547,-2,-3,1,1,-2,-4,-7,-3,6,-19,5,11,0,4,20,19,32.75,32.75,32.75,-122.375,-122.375,-122.375,3.199255,2.953332,7.247694,5.767841,2.9572,8.904048,-0.2108788,-0.361714,1.622584,0.1115133,-0.3712887,1.626026,-0.04394877,0.4830715,1.679791,-0.1619353,-0.3227476,1.605677,0.1121579,-0.4133797,1.6446,-0.04910235,0.002478022,1.723185,-0.05088494,-0.3305322,1.721793,-0.2250179,0.2023187,1.700246,-0.1319383,-0.3229367,1.679727,-0.2568375,-0.05947253,1.699376,0.1448768,-0.0605864,1.729078,NA,NA,NotTracked,NotTracked,
1.10791,-0.2607422,-0.1235352,1.146973,0.2294922,0.2158203,15,6,34,-7,-4,0,-5,1,-5,-1,-8,-10,-16,-35,13,1,170.3125,170.3125,170.3125,-105.4375,-105.4375,-105.4375,3.272253,2.990185,7.334765,5.851249,3.064807,8.612532,-0.2180632,-0.3531429,1.611962,0.1280261,-0.3625149,1.618972,-0.04394523,0.4831002,1.679786,-0.2173478,-0.3408873,1.555691,0.1092014,-0.4166859,1.6274,-0.04907829,0.002450762,1.723217,-0.05075466,-0.3307947,1.722171,-0.2248625,0.2023024,1.700217,-0.1318037,-0.3232017,1.680002,-0.2608341,-0.05878442,1.708343,0.1468191,-0.06334124,1.731773,NA,NA,NotTracked,NotTracked,
1.104492,-0.2338867,-0.0004882813,1.125977,0.1875,0.4111328,-30,-13,0,-2,-1,0,-4,-1,-1,-6,-5,-5,-6,-6,11,1,133.6875,133.6875,133.6875,-99.8125,-99.8125,-99.8125,3.297656,3.111468,7.57069,5.883887,3.126111,8.518105,-0.2631888,-0.3088575,1.575524,0.1809987,-0.3212362,1.577795,-0.04405102,0.4829856,1.679473,-0.2650628,-0.2931567,1.534264,0.1481262,-0.3186604,1.536778,-0.04906008,0.002391693,1.723406,-0.05082364,-0.331108,1.723168,-0.2244447,0.2026066,1.700951,-0.1318422,-0.3233548,1.680941,-0.2693403,-0.05323015,1.73018,0.1527185,-0.06352414,1.742257,NA,NA,NotTracked,NotTracked,
0.7695313,-0.6152344,0.3139648,0.7832031,0.3652344,0.6269531,10,11,71,25,-3,-5,-19,-13,-3,-12,-9,4,18,-5,-18,7,70.6875,70.6875,70.6875,-62.5625,-62.5625,-62.5625,3.210366,3.51332,8.0052,6.038258,3.559776,8.111123,-0.3010947,-0.2562529,1.548532,0.2191761,-0.2721367,1.547021,-0.04423535,0.4829971,1.679132,-0.3165885,-0.2410841,1.522364,0.1871388,-0.2651859,1.514552,-0.04920929,0.002366627,1.723677,-0.05168264,-0.3310056,1.72498,-0.2235838,0.2043142,1.702337,-0.1326704,-0.3230364,1.682736,-0.2782464,-0.03761596,1.75406,0.1587105,-0.05422039,1.75311,NA,NA,NotTracked,NotTracked,
0.543457,-0.7080078,0.3291016,0.5820313,0.3857422,0.7202148,6,-5,-80,4,-3,-11,-7,2,0,-3,0,6,21,37,12,17,32.4375,32.4375,32.4375,-31.5625,-31.5625,-31.5625,3.105266,3.874218,8.268346,6.094097,3.949461,7.910871,-0.3408381,-0.2089212,1.533413,0.2559806,-0.2163089,1.520177,-0.04460932,0.483035,1.678064,-0.3723,-0.2383564,1.527167,0.2256885,-0.249903,1.5115,-0.04921322,0.002414866,1.723642,-0.05185298,-0.3307739,1.725209,-0.2226657,0.2067919,1.703891,-0.1328201,-0.3227302,1.682936,-0.2829214,-0.02795982,1.764046,0.1625388,-0.04554624,1.759058,NA,NA,Closed,Closed,
0.5175781,-0.7329102,0.4165039,0.4604492,0.3105469,0.7998047,-5,-12,-5,6,8,34,-10,-7,-4,-18,-7,45,67,-35,-1,6,-3.3125,-3.3125,-3.3125,-36.125,-36.125,-36.125,3.061522,4.110658,8.369569,6.075792,4.201658,7.849023,-0.3689444,-0.1639888,1.515876,0.2771922,-0.1661001,1.502712,-0.04483726,0.4829933,1.67753,-0.3962208,-0.1879795,1.50085,0.2410361,-0.1828177,1.4785,-0.04925269,0.002480391,1.723637,-0.05211236,-0.3303733,1.725508,-0.2217767,0.2085069,1.705222,-0.1331373,-0.3221804,1.683313,-0.2893462,-0.01753994,1.771479,0.1653798,-0.03719663,1.760346,NA,NA,Closed,Closed,
0.3608398,-0.7089844,0.5410156,0.4316406,0.2797852,0.8041992,82,20,-35,-16,-11,-10,35,17,2,-6,-11,10,52,31,-2,-2,-22.0625,-22.0625,-22.0625,-5.6875,-5.6875,-5.6875,3.032964,4.316092,8.379868,5.995337,4.473023,7.879548,-0.3769488,-0.1278108,1.498238,0.2726443,-0.1222563,1.476079,-0.04507082,0.482976,1.677433,-0.3922571,-0.1659171,1.48921,0.2371172,-0.1071029,1.425529,-0.04936691,0.002501354,1.723757,-0.0524272,-0.3301622,1.725889,-0.2215252,0.2093888,1.706742,-0.1334581,-0.3218603,1.683825,-0.2946453,-0.01390176,1.771305,0.1661418,-0.0317536,1.758978,NA,NA,Closed,Closed,
0.3535156,-0.7416992,0.5556641,0.449707,0.3105469,0.8515625,101,-17,-12,-3,-16,-27,-15,-4,-4,-3,2,21,-25,-12,8,-5,-17.1875,-17.1875,-17.1875,-10.4375,-10.4375,-10.4375,3.040777,4.373261,8.361265,5.977611,4.530323,7.911766,-0.3584197,-0.09996284,1.474279,0.2450361,-0.08919492,1.452096,-0.04545939,0.4828084,1.677388,-0.3986764,-0.07838737,1.493429,0.1999815,-0.07186262,1.4064,-0.04944167,0.002518153,1.723897,-0.05255527,-0.330066,1.726036,-0.2216212,0.2098245,1.70806,-0.1335989,-0.3216898,1.684172,-0.2986603,-0.01047646,1.766323,0.162774,-0.04359397,1.754835,NA,NA,Closed,Closed,
0.3740234,-0.7050781,0.6040039,0.1796875,0.4101563,0.8227539,-3,18,125,3,-1,12,11,2,-3,-24,-20,-24,-14,-11,11,6,18.9375,18.9375,18.9375,5.8125,5.8125,5.8125,3.184255,4.606632,8.074052,5.870574,4.763764,8.326001,-0.3138816,-0.08106071,1.450931,0.1970088,-0.06856769,1.436752,-0.04593775,0.4827464,1.677943,-0.3413144,-0.08659435,1.421861,0.1385463,-0.04860457,1.392857,-0.04966794,0.00259474,1.724336,-0.05276183,-0.3299401,1.726264,-0.2215844,0.2102209,1.708924,-0.1337655,-0.3215522,1.684576,-0.3085902,-0.007548444,1.758121,0.1532659,-0.04171843,1.751908,NA,NA,Closed,Closed,
0.2954102,-0.7617188,0.4643555,0.1469727,0.4951172,0.7753906,-40,-8,5,-3,0,-16,7,-2,-1,-2,3,5,-8,6,-17,5,19.6875,19.6875,19.6875,12.9375,12.9375,12.9375,3.276785,4.681903,7.831559,5.855589,4.794524,8.530797,-0.2559233,-0.06962217,1.442101,0.1380763,-0.06488202,1.433298,-0.04695993,0.4830166,1.680071,-0.2466458,-0.1084305,1.432355,0.06281072,-0.04173812,1.392167,-0.05003445,0.002678919,1.725168,-0.05285588,-0.329883,1.726381,-0.2221647,0.21033,1.709825,-0.1338454,-0.3215286,1.684738,-0.3186109,0.005975572,1.741687,0.1446859,-0.02183129,1.741958,NA,NA,Unknown,Unknown,
0.2885742,-0.9414063,0.3208008,0.2949219,0.6762695,0.722168,-16,-5,34,-2,-10,-14,-8,4,-1,4,9,-8,-12,27,53,45,9.875,9.875,9.875,17.875,17.875,17.875,3.352693,4.745558,7.523962,5.854811,4.794979,8.877056,-0.2090477,-0.0669457,1.438998,0.08292948,-0.064881,1.434959,-0.04773991,0.4830734,1.68206,-0.1884857,-0.1020378,1.443294,0.02726343,-0.07422689,1.462895,-0.05011488,0.002722702,1.725759,-0.05308135,-0.3297378,1.726321,-0.2223901,0.2099591,1.710229,-0.1339405,-0.321463,1.684786,-0.2841601,-0.03213344,1.657518,0.1546663,-0.04400527,1.655934,NA,NA,Unknown,Lasso,
0.3588867,-1.013184,0.2758789,0.3295898,0.8706055,0.6899414,28,-7,23,-2,1,14,-8,0,2,-11,1,1,0,-4,-3,-8,15.0625,15.0625,15.0625,-9,-9,-9,3.367098,4.74046,7.385022,5.883994,4.7715,8.987167,-0.179617,-0.06616413,1.443086,0.05310833,-0.06614143,1.437202,-0.04827712,0.4829385,1.684074,-0.209909,-0.06072436,1.426337,-0.002293796,-0.09361894,1.5315,-0.05016383,0.002835259,1.726176,-0.05352405,-0.3294179,1.726032,-0.2222349,0.2097207,1.710129,-0.1341003,-0.3212288,1.684632,-0.2782228,-0.03612756,1.656538,0.1453488,-0.02538008,1.697929,NA,NA,Unknown,Unknown,
0.3867188,-1.045898,0.2709961,0.2949219,0.8139648,0.6914063,0,1,4,-5,-12,-2,13,-1,-2,-29,-4,-7,-15,-64,21,32,10.0625,10.0625,10.0625,-14,-14,-14,3.361672,4.729024,7.350301,5.900376,4.763043,8.965456,-0.1796327,-0.0635931,1.445082,0.05480101,-0.0630895,1.440846,-0.04839378,0.4829026,1.685655,-0.2023289,-0.09511063,1.445841,0.005501471,-0.08760768,1.46132,-0.05015389,0.002909171,1.726393,-0.05359907,-0.3291588,1.725668,-0.2217594,0.2090511,1.709833,-0.1340461,-0.3210756,1.684409,-0.2608202,-0.00979138,1.715716,0.1446989,-0.02553204,1.698682,NA,NA,Unknown,Lasso,
0.3129883,-0.996582,0.2851563,0.2529297,0.7041016,0.7719727,-21,-15,-25,-7,-8,-3,3,-4,-6,2,-16,-20,6,-1,7,6,15.5625,15.5625,15.5625,-8.5625,-8.5625,-8.5625,3.346594,4.72242,7.382155,5.92786,4.775429,8.839654,-0.1984407,-0.0583232,1.445312,0.0820638,-0.05781399,1.443058,-0.04844468,0.4829572,1.686268,-0.2046503,-0.09613823,1.438836,-0.01380693,-0.04461625,1.534,-0.05021682,0.002969155,1.726388,-0.05357293,-0.3289285,1.725156,-0.2214994,0.2088322,1.709766,-0.1339113,-0.3208349,1.683817,-0.2676831,-0.008599931,1.714944,0.1447504,-0.0253532,1.710619,NA,NA,Unknown,Unknown,
0.2338867,-0.9155273,0.4580078,0.1660156,0.5878906,0.8833008,-2,1,-12,-3,-6,3,7,0,-3,-9,-4,-19,-2,-12,-9,8,-9.6875,-9.6875,-9.6875,5.875,5.875,5.875,3.293102,4.723929,7.577468,5.969643,4.838347,8.552814,-0.230282,-0.05281289,1.453663,0.1307352,-0.05010131,1.450561,-0.04843918,0.4830368,1.686594,-0.1994385,-0.08473655,1.470167,0.0774124,-0.03721021,1.429572,-0.05020608,0.002997616,1.726431,-0.05344692,-0.3288364,1.724944,-0.2214628,0.2089179,1.709799,-0.1338152,-0.3207763,1.683663,-0.2734998,-0.00228632,1.741411,0.1769254,-0.01632898,1.742981,NA,NA,Unknown,Unknown,
0.171875,-0.8666992,0.5283203,0.04345703,0.4711914,0.956543,22,-16,17,0,-2,-15,-11,0,-6,-15,-12,-14,-6,-43,4,10,-4.6875,-4.6875,-4.6875,25.875,25.875,25.875,3.259761,4.740271,7.751683,6.034295,4.928157,8.220113,-0.2740199,-0.04413981,1.463909,0.1876032,-0.0371139,1.46356,-0.04837729,0.4827813,1.685534,-0.2760951,-0.08387271,1.443118,0.1358793,-0.02625277,1.4399,-0.05019836,0.002951627,1.726213,-0.0532987,-0.328877,1.724537,-0.2209837,0.2095787,1.709549,-0.1336667,-0.320763,1.683048,-0.2731149,-3.882029E-05,1.747071,0.1385537,-0.07697801,1.754265,NA,NA,Closed,Unknown,
0.1044922,-0.8374023,0.5717773,-0.02099609,0.3896484,0.9619141,-3,4,48,11,1,-1,22,-6,-5,12,17,15,7,16,3,3,-9.5625,-9.5625,-9.5625,24.875,24.875,24.875,3.218006,4.785309,8.006386,6.076552,4.999132,8.004049,-0.313225,-0.0326872,1.474756,0.2315359,-0.02285331,1.473608,-0.04848093,0.4827327,1.683901,-0.3293091,-0.06147317,1.462352,0.1765137,-0.000603964,1.4234,-0.05032343,0.002917097,1.725735,-0.05327246,-0.3289287,1.724248,-0.2203736,0.2102855,1.70907,-0.1336671,-0.3207754,1.682693,-0.2737841,-0.006947479,1.7753,0.1491489,-0.07595097,1.759685,NA,NA,Closed,Closed,
0.05664063,-0.7919922,0.5820313,-0.06298828,0.3168945,0.9536133,14,3,18,4,5,13,-6,-2,2,12,5,-7,-3,-16,8,-19,-13.375,-13.375,-13.375,14,14,14,3.204009,4.811965,8.119498,6.072698,5.058776,7.849136,-0.3393553,-0.02812213,1.479309,0.2640381,-0.01109959,1.482949,-0.04854962,0.4822882,1.681823,-0.3738165,-0.04498786,1.482033,0.2146634,0.01009065,1.4275,-0.05037385,0.002918133,1.725225,-0.05325342,-0.3289462,1.724056,-0.2201255,0.2107523,1.70903,-0.1336749,-0.3207803,1.682496,-0.2805061,-0.0335433,1.788027,0.1640428,-0.07475723,1.763905,NA,NA,Closed,Closed,
0.05664063,-0.7919922,0.5820313,-0.06298828,0.3168945,0.9536133,14,3,18,4,5,13,-6,-2,2,12,5,-7,-3,-16,8,-19,-13.375,-13.375,-13.375,14,14,14,3.204009,4.811965,8.119498,6.072698,5.058776,7.849136,-0.3576519,-0.0258017,1.483579,0.2768071,-0.006557886,1.486757,-0.0485153,0.4820995,1.679866,-0.3772142,-0.05746273,1.476375,0.2320805,0.01308537,1.4396,-0.05049153,0.002885663,1.724554,-0.05320061,-0.3289084,1.723729,-0.2196381,0.2110063,1.708664,-0.1336728,-0.3207143,1.682177,-0.2862107,-0.03377156,1.786139,0.1682379,-0.0723666,1.765669,NA,NA,Closed,Unknown,
0.09863281,-0.7944336,0.6650391,-0.03173828,0.3417969,0.9155273,-2,-4,2,-2,-5,0,3,2,0,-16,-16,3,8,-14,-3,-2,15.5625,15.5625,15.5625,-12,-12,-12,3.233784,4.843243,8.35483,5.973892,5.060215,7.842296,-0.3531721,-0.02871019,1.481272,0.2654513,-0.01189324,1.479699,-0.04822161,0.4821457,1.678535,-0.3681554,-0.06693575,1.47408,0.2222221,0.009886406,1.435888,-0.05042152,0.002970546,1.72412,-0.05313542,-0.3288058,1.723552,-0.2189363,0.2116395,1.70838,-0.1336165,-0.3206306,1.681968,-0.2899105,-0.03498399,1.782109,0.1703412,-0.07165438,1.763555,NA,NA,Closed,Closed,
0.07080078,-0.7695313,0.6411133,0.02734375,0.4121094,0.9394531,-4,-2,0,-4,-4,-28,3,-1,-1,-33,-6,9,28,44,19,18,11,11,11,-9.875,-9.875,-9.875,3.289663,4.826867,8.232469,5.954047,5.021958,8.045329,-0.3194587,-0.03360834,1.468668,0.2270569,-0.02277588,1.465783,-0.04797908,0.4821767,1.678191,-0.3564519,-0.03042035,1.462625,0.17427,-0.005810791,1.42775,-0.05032763,0.003044168,1.72392,-0.05309167,-0.3286949,1.72347,-0.218419,0.2120365,1.708344,-0.133571,-0.3205133,1.68191,-0.2856939,-0.03639192,1.782752,0.1677103,-0.07261296,1.763658,NA,NA,Closed,Unknown,
0.1508789,-0.8574219,0.5205078,0.1650391,0.5976563,0.9204102,-9,-8,-29,-3,-14,-18,-10,-7,1,-4,-7,25,7,-66,8,25,-4.25,-4.25,-4.25,0.8125,0.8125,0.8125,3.339242,4.800067,7.927013,5.941145,4.960001,8.414959,-0.2671072,-0.04577724,1.450875,0.1761707,-0.03525624,1.457253,-0.04774996,0.4821797,1.678424,-0.3019011,-0.06196073,1.454667,0.1101495,-0.01969052,1.416438,-0.05031093,0.003052122,1.723983,-0.05302361,-0.3286917,1.723507,-0.2183511,0.2123229,1.708624,-0.1335145,-0.3204868,1.681929,-0.2687503,0.008008703,1.763727,0.1422125,-0.01827277,1.757227,NA,NA,Unknown,Closed,
0.215332,-0.9907227,0.4550781,0.168457,0.7441406,0.7861328,-4,8,7,-4,1,17,30,-6,1,14,3,-7,10,68,4,-10,9.75,9.75,9.75,-21.8125,-21.8125,-21.8125,3.369162,4.796449,7.706327,5.917612,4.932048,8.618092,-0.2316083,-0.04838117,1.463374,0.1323746,-0.04590867,1.45976,-0.04758308,0.4821653,1.679444,-0.2537423,-0.02205699,1.454541,0.07441241,-0.04188077,1.456769,-0.05028104,0.003058005,1.724422,-0.05302277,-0.3286958,1.723758,-0.2182872,0.2124218,1.708973,-0.1335106,-0.3204573,1.682307,-0.3189231,0.02048242,1.740705,0.1443249,-0.01797358,1.756061,NA,NA,Lasso,Unknown,
0.2441406,-0.9672852,0.4213867,0.1782227,0.7924805,0.7744141,6,-11,-21,-4,-6,13,5,-2,0,2,-8,29,36,-32,-7,-1,10.0625,10.0625,10.0625,-18.125,-18.125,-18.125,3.376642,4.795999,7.647285,5.914989,4.924122,8.663395,-0.2025874,-0.04442269,1.462439,0.1078365,-0.04653521,1.459708,-0.0473991,0.4825471,1.680999,-0.2051666,-0.08107123,1.445156,0.0502715,-0.04988459,1.458333,-0.05025667,0.003207517,1.724951,-0.05313378,-0.3284689,1.724101,-0.2181688,0.2122622,1.709205,-0.1335541,-0.3202221,1.682838,-0.2672719,0.0007685527,1.742822,0.150034,-0.02323641,1.718352,NA,NA,Unknown,Lasso,
0.2773438,-0.9619141,0.3837891,0.1210938,0.6645508,0.8222656,0,0,12,3,-5,-22,-21,12,1,-8,-6,-16,-47,-25,6,3,13.125,13.125,13.125,-10.125,-10.125,-10.125,3.384016,4.793508,7.486767,5.892749,4.907359,8.783998,-0.1880217,-0.04175994,1.466894,0.08943865,-0.04407952,1.461587,-0.04726689,0.4828489,1.682365,-0.1963412,-0.08241556,1.463959,0.01981283,-0.04632705,1.5435,-0.05044243,0.003472061,1.725362,-0.053334,-0.328108,1.724378,-0.2180946,0.21211,1.709353,-0.1336571,-0.3198092,1.683328,-0.2680765,-0.00420385,1.716775,0.1496491,-0.02304326,1.719752,NA,NA,Unknown,Lasso,
0.1240234,-0.8554688,0.4287109,0.08642578,0.5419922,0.8637695,1,12,8,-5,-2,-8,-6,4,-2,-6,-6,19,26,1,22,4,-3,-3,-3,8.5,8.5,8.5,3.369578,4.782312,7.39426,5.902694,4.899121,8.813347,-0.1790868,-0.04290597,1.474644,0.0849366,-0.04458742,1.463474,-0.04694271,0.4829887,1.683464,-0.2022708,-0.0733114,1.462813,0.01349026,-0.04284419,1.5455,-0.05028464,0.003703435,1.725778,-0.05324667,-0.3276911,1.724564,-0.2179325,0.2120139,1.709342,-0.1334621,-0.3193808,1.683603,-0.268716,-0.00426421,1.715441,0.1503899,-0.0231997,1.715825,NA,NA,Unknown,Lasso,
0.1381836,-0.8774414,0.5175781,0.07324219,0.5014648,0.8950195,3,-6,1,5,-4,-30,-5,-2,1,0,-6,57,27,17,-21,-9,-11.1875,-11.1875,-11.1875,6.9375,6.9375,6.9375,3.354173,4.776179,7.381795,5.913717,4.900642,8.822874,-0.1850185,-0.04449827,1.471484,0.08378829,-0.04430026,1.467453,-0.04675,0.4830131,1.684491,-0.1317634,-0.05724926,1.550636,0.01624759,-0.04862045,1.539861,-0.05017932,0.003829597,1.726288,-0.05322155,-0.3274447,1.724755,-0.218106,0.2116825,1.709572,-0.1333541,-0.3191744,1.683854,-0.2696267,-0.004533709,1.714579,0.1508538,-0.02314218,1.715357,NA,NA,Unknown,Lasso,
0.1503906,-0.8598633,0.5610352,0.04345703,0.4941406,0.8803711,-18,14,16,2,-6,-17,-4,-9,1,5,-2,-7,22,17,-1,9,-7.4375,-7.4375,-7.4375,-0.8125,-0.8125,-0.8125,3.343371,4.773433,7.372069,5.917319,4.906876,8.827192,-0.1848033,-0.04373739,1.473387,0.08564078,-0.04347045,1.469468,-0.04649151,0.4830381,1.685307,-0.1160015,-0.01678472,1.54,0.0131022,-0.04166141,1.549,-0.05008874,0.003951852,1.726805,-0.05309695,-0.3271848,1.72501,-0.2182605,0.2115481,1.709831,-0.1332131,-0.3189991,1.684029,-0.2703966,-0.004593142,1.714092,0.1514968,-0.02343108,1.714111,NA,NA,Unknown,Lasso,
0.1132813,-0.8535156,0.5395508,0.05126953,0.4921875,0.8774414,-8,-3,-44,29,6,-19,4,3,-2,-45,-15,-11,-12,-37,17,-3,-2.9375,-2.9375,-2.9375,0.125,0.125,0.125,3.341234,4.775973,7.363519,5.911126,4.909689,8.825177,-0.1847878,-0.04259092,1.47427,0.08651826,-0.04299814,1.468562,-0.0463325,0.4830936,1.685675,-0.1206831,-0.04031201,1.5524,0.008789696,-0.0366418,1.549125,-0.049951,0.004095804,1.727197,-0.0529881,-0.3269189,1.725288,-0.2182887,0.2114998,1.70987,-0.1330676,-0.3188013,1.684259,-0.2713634,-0.004506895,1.713135,0.1517792,-0.02298498,1.714163,NA,NA,Unknown,Lasso,
0.1376953,-0.8413086,0.5395508,0.06884766,0.5493164,0.8769531,11,11,25,11,12,19,-2,7,-4,0,-3,6,31,77,-8,6,-0.6875,-0.6875,-0.6875,2.125,2.125,2.125,3.345707,4.778587,7.362538,5.911314,4.910995,8.820051,-0.1827239,-0.04142764,1.475314,0.0871583,-0.04282386,1.470107,-0.04617615,0.4830675,1.686119,-0.1262155,-0.01185855,1.544571,0.01519114,-0.04092986,1.549792,-0.04987852,0.004174114,1.72775,-0.05294156,-0.3267012,1.725745,-0.2184745,0.2114348,1.710221,-0.13298,-0.3186357,1.684578,-0.2723921,-0.004430638,1.712698,0.1521228,-0.02285851,1.714569,NA,NA,Unknown,Lasso,
0.1538086,-0.8720703,0.5009766,0.06445313,0.5380859,0.8862305,-6,4,29,-16,-7,4,9,-4,0,-18,-12,-3,9,-5,-11,24,3,3,3,-0.0625,-0.0625,-0.0625,3.355359,4.782889,7.370569,5.907677,4.911823,8.82072,-0.1831286,-0.04164093,1.473665,0.08761794,-0.04327041,1.469368,-0.04612557,0.4830706,1.686502,-0.1228264,-0.01230745,1.5505,0.01647727,-0.04489943,1.548399,-0.0497469,0.004232214,1.728112,-0.05285603,-0.3265126,1.726005,-0.2184528,0.2114446,1.710428,-0.1328571,-0.3184621,1.68485,-0.2727819,-0.004372783,1.712295,0.1523514,-0.0227717,1.714814,NA,NA,Unknown,Unknown,
0.1484375,-0.875,0.5170898,0.0546875,0.5200195,0.878418,1,-4,6,-1,12,21,10,-4,1,-9,-6,-1,-17,23,1,13,-1.5,-1.5,-1.5,1.6875,1.6875,1.6875,3.358408,4.779628,7.373786,5.906528,4.912579,8.820322,-0.1830066,-0.0423277,1.476236,0.08769654,-0.0428352,1.471497,-0.04597305,0.4831326,1.687344,-0.1852813,-0.01096412,1.470756,0.03022671,-0.05797921,1.522692,-0.04958029,0.004382605,1.728797,-0.0527373,-0.3262628,1.726722,-0.2186534,0.2111597,1.710994,-0.1326441,-0.3182223,1.685495,-0.2730194,-0.004689076,1.712381,0.1525204,-0.02215906,1.714716,NA,NA,Unknown,Lasso,
0.1401367,-0.8671875,0.5258789,0.03955078,0.519043,0.8520508,18,0,18,0,1,-22,25,11,-4,-13,-17,-7,7,22,-6,16,-1,-1,-1,2.1875,2.1875,2.1875,3.358712,4.775347,7.369986,5.906463,4.910815,8.821071,-0.1786259,-0.04358466,1.479816,0.08740491,-0.04319276,1.470154,-0.04594781,0.4830676,1.687813,-0.1491409,-0.01022144,1.49913,0.02254129,-0.05007904,1.537478,-0.04947143,0.004330812,1.72905,-0.05272347,-0.3261784,1.726959,-0.2186121,0.2111123,1.711172,-0.1325971,-0.3181196,1.685785,-0.2730484,-0.004744489,1.712272,0.1527244,-0.0219928,1.714507,NA,NA,Unknown,Lasso,
0.1435547,-0.8457031,0.5170898,0.06298828,0.5307617,0.8979492,3,-3,54,-4,6,-5,-5,-4,-7,-5,-16,-29,-28,-45,-22,-23,3.6875,3.6875,3.6875,-1.4375,-1.4375,-1.4375,3.361736,4.772159,7.366693,5.909139,4.895377,8.823752,-0.1805134,-0.04403496,1.479701,0.08784238,-0.04605837,1.47217,-0.04592031,0.4830685,1.688222,-0.1195031,-0.01446324,1.55525,0.01763482,-0.05165628,1.552077,-0.04959165,0.004377131,1.729368,-0.05276525,-0.3261113,1.727106,-0.2186631,0.2110069,1.711343,-0.1326166,-0.3180736,1.68593,-0.2730826,-0.004819238,1.712785,0.1530831,-0.02212885,1.71467,NA,NA,Unknown,Lasso,
