ALX,ALY,ALZ,ARX,ARY,ARZ,EMG0L,EMG1L,EMG2L,EMG3L,EMG4L,EMG5L,EMG6L,EMG7L,EMG0R,EMG1R,EMG2R,EMG3R,EMG4R,EMG5R,EMG6R,EMG7R,GLX,GLY,GLZ,GRX,GRY,GRZ,ORL,OPL,OYL,ORR,OPR,OYR,LHNX,LHNY,LHNZ,RHNX,RHNY,RHNZ,HX,HY,HZ,LTX,LTY,LTZ,RTX,RTY,RTZ,SpineMidX,SpineMidY,SpineMidZ,SpineBaseX,SpineBaseY,SpineBaseZ,ShoulderLeftX,ShoulderLeftY,ShoulderLeftZ,ShoulderRightX,ShoulderRightY,ShoulderRightZ,ElbowLeftX,ElbowLeftY,ElbowLeftZ,ElbowRightX,ElbowRightY,ElbowRightZ,Myo_Pose_left,Myo_Pose_Right,Kinect_pose_left,Kinect_pose_right
0.9663086,-0.2143555,0.09130859,0.9506836,0.08398438,0.2246094,-3,-4,-2,-1,-1,-1,1,3,2,-4,-1,-1,-2,13,-8,-4,3,3,3,2.1875,2.1875,2.1875,3.145293,2.866555,7.526117,5.58142,2.899094,9.748919,-0.1957751,-0.3827074,1.626363,0.1353816,-0.3616414,1.613795,-0.02549013,0.4806417,1.659259,-0.1496989,-0.3480798,1.600555,0.08659296,-0.3776602,1.590222,-0.02738723,0.0008472485,1.71149,-0.03244707,-0.3324207,1.714487,-0.2057621,0.1968539,1.693592,-0.1139934,-0.3249227,1.674711,-0.2348749,-0.06462619,1.698038,0.1692844,-0.06350255,1.702987,NA,NA,NotTracked,NotTracked,
0.9702148,-0.2133789,0.09228516,0.956543,0.08886719,0.2192383,-2,0,-1,0,0,-1,1,-1,4,2,1,0,-2,-8,2,1,1.125,1.125,1.125,1.5625,1.5625,1.5625,3.148593,2.866951,7.525787,5.584428,2.898466,9.751028,-0.1962342,-0.3823375,1.626166,0.1355446,-0.3613385,1.613637,-0.02548451,0.4806277,1.659239,-0.1499344,-0.3452064,1.601733,0.08783311,-0.3710331,1.589709,-0.02737202,0.000831191,1.711498,-0.03243611,-0.3324323,1.714479,-0.2056935,0.1967732,1.693669,-0.1139834,-0.324924,1.674707,-0.2346155,-0.0648758,1.698313,0.1693184,-0.06346539,1.702996,NA,NA,NotTracked,NotTracked,
0.9697266,-0.2119141,0.08398438,0.9511719,0.07910156,0.2197266,0,-1,-2,-1,-1,-2,-3,-2,-7,-1,0,0,-1,1,14,-2,1,1,1,-0.0625,-0.0625,-0.0625,3.151318,2.867231,7.525868,5.580689,2.89983,9.754971,-0.1956055,-0.3820165,1.626801,0.1355295,-0.3608343,1.613496,-0.02546338,0.4806043,1.659203,-0.1497125,-0.3384789,1.596948,0.09015141,-0.3440353,1.589205,-0.02736529,0.0008102085,1.711511,-0.0324427,-0.3324481,1.714486,-0.2056241,0.1966876,1.693774,-0.1139816,-0.3249136,1.674716,-0.2342446,-0.06523053,1.698758,0.1694336,-0.06343452,1.703067,NA,NA,NotTracked,NotTracked,
0.965332,-0.2094727,0.08740234,0.9609375,0.09082031,0.215332,-1,-2,-1,-1,-1,0,2,0,2,-2,-2,2,2,11,-14,-2,1.375,1.375,1.375,1.8125,1.8125,1.8125,3.149881,2.866447,7.528177,5.582882,2.898484,9.754846,-0.1966806,-0.3817963,1.627134,0.1351013,-0.3608934,1.613277,-0.02540426,0.480608,1.659163,-0.1497089,-0.340675,1.599652,0.09034623,-0.3407032,1.588577,-0.02732325,0.0007915102,1.711482,-0.03242963,-0.3324656,1.714469,-0.205518,0.1966295,1.693795,-0.113974,-0.3249258,1.674694,-0.2341598,-0.06521341,1.698827,0.1694139,-0.06336711,1.703097,NA,NA,NotTracked,NotTracked,
0.972168,-0.2055664,0.08300781,0.9643555,0.09472656,0.215332,-7,-1,1,0,0,0,-1,-2,-1,0,1,1,1,-2,-2,0,0.5,0.5,0.5,1.125,1.125,1.125,3.151276,2.86678,7.527455,5.584734,2.898035,9.753948,-0.1955653,-0.3824379,1.627078,0.1354067,-0.3609228,1.613682,-0.02539513,0.4806156,1.659102,-0.1498365,-0.3390732,1.598187,0.09212151,-0.3310052,1.589759,-0.02730123,0.0008015684,1.711462,-0.0324384,-0.3324545,1.714467,-0.2054933,0.196649,1.693836,-0.113983,-0.32491,1.674705,-0.2341202,-0.06508859,1.698902,0.1694167,-0.06337871,1.703086,NA,NA,NotTracked,NotTracked,
0.9692383,-0.2094727,0.09179688,0.9516602,0.08886719,0.2270508,0,2,-1,-1,-2,-1,-2,-4,0,0,-1,-3,-4,-3,-8,-2,2.4375,2.4375,2.4375,0.25,0.25,0.25,3.15453,2.866902,7.52635,5.587216,2.898283,9.750602,-0.1962202,-0.3820508,1.627175,0.1355392,-0.3607364,1.614306,-0.02538131,0.4806178,1.659062,-0.1501452,-0.3317083,1.596353,0.09052016,-0.3430365,1.589607,-0.02727547,0.0007734682,1.711465,-0.03243865,-0.3324862,1.714442,-0.2054633,0.1965207,1.693995,-0.1139847,-0.3249185,1.67471,-0.234101,-0.06508639,1.699007,0.1694374,-0.06328087,1.703074,NA,NA,NotTracked,NotTracked,
0.9731445,-0.2075195,0.08984375,0.9521484,0.07861328,0.2158203,0,-3,-2,-3,0,0,0,3,0,0,2,-1,-1,-5,8,-1,0.0625,0.0625,0.0625,-0.8125,-0.8125,-0.8125,3.158264,2.866689,7.524896,5.590599,2.897948,9.748034,-0.1958847,-0.3823984,1.626699,0.1335013,-0.3714516,1.611856,-0.02537642,0.4805964,1.659064,-0.1497151,-0.3408014,1.598899,0.08687913,-0.3635808,1.589,-0.02732566,0.0007363906,1.711495,-0.03245455,-0.3325099,1.714438,-0.2053683,0.1964775,1.694078,-0.1140067,-0.3249335,1.67471,-0.2340346,-0.06506194,1.699086,0.1694425,-0.06330223,1.703056,NA,NA,NotTracked,NotTracked,
0.9658203,-0.2055664,0.08935547,0.9555664,0.07617188,0.2246094,-1,0,-2,-1,-1,1,0,-2,2,0,0,-1,-2,-2,-7,-3,0.75,0.75,0.75,0,0,0,3.158577,2.867423,7.52529,5.587234,2.899402,9.751847,-0.196193,-0.3824619,1.627016,0.1341339,-0.3680674,1.612037,-0.02539712,0.4805808,1.659097,-0.1496617,-0.3407354,1.598858,0.08497108,-0.3845198,1.587,-0.02734338,0.0007307635,1.711596,-0.03247529,-0.3324974,1.714511,-0.2053519,0.1964048,1.694254,-0.1140184,-0.3249317,1.67483,-0.2339611,-0.06511169,1.699213,0.1694279,-0.06318861,1.703078,NA,NA,NotTracked,NotTracked,
0.9785156,-0.2114258,0.09130859,0.9477539,0.08935547,0.2104492,0,-4,-1,-2,-1,-2,2,5,-3,-3,-2,-1,-1,5,-8,-1,0.5,0.5,0.5,1,1,1,3.156984,2.867397,7.527596,5.585415,2.898374,9.753883,-0.1959532,-0.3820218,1.627169,0.1326316,-0.3720155,1.611709,-0.02539188,0.4805848,1.659191,-0.1499361,-0.3400174,1.598349,0.08532499,-0.3814541,1.59032,-0.02737154,0.0007692048,1.711626,-0.03247799,-0.3324354,1.714525,-0.2052874,0.1963777,1.694484,-0.1140213,-0.3248598,1.674882,-0.2338457,-0.06508924,1.69952,0.1694278,-0.06312446,1.703068,NA,NA,NotTracked,NotTracked,
0.9663086,-0.190918,0.07714844,0.9458008,0.09716797,0.2236328,-1,0,-1,-1,-3,0,-1,-2,0,1,-1,0,-1,5,-7,-1,1.0625,1.0625,1.0625,-0.4375,-0.4375,-0.4375,3.160213,2.866441,7.526585,5.58472,2.89776,9.755253,-0.195978,-0.3822714,1.627204,0.1342313,-0.3656213,1.6126,-0.02539958,0.4805903,1.65919,-0.1501278,-0.3388202,1.598299,0.08559705,-0.3859998,1.588688,-0.02737343,0.0007682571,1.711626,-0.03248868,-0.3324329,1.714512,-0.2052558,0.1964426,1.694563,-0.1140345,-0.3248498,1.674878,-0.2337438,-0.06513773,1.699561,0.1694102,-0.06312772,1.703038,NA,NA,NotTracked,NotTracked,
0.9663086,-0.190918,0.07714844,0.9458008,0.09716797,0.2236328,-1,0,-1,-1,-3,0,-1,-2,0,1,-1,0,-1,5,-7,-1,1.0625,1.0625,1.0625,-0.4375,-0.4375,-0.4375,3.160213,2.866441,7.526585,5.58472,2.89776,9.755253,-0.1963505,-0.3823789,1.62893,0.1344014,-0.3652817,1.61414,-0.02538188,0.4806523,1.65942,-0.1496661,-0.3380568,1.599889,0.08597539,-0.3855952,1.589667,-0.02736415,0.0007608299,1.711624,-0.03248917,-0.3324442,1.714503,-0.2052348,0.1964168,1.694812,-0.114041,-0.3248306,1.674868,-0.2336536,-0.06521349,1.699693,0.1694113,-0.06310713,1.70308,NA,NA,NotTracked,NotTracked,
0.9785156,-0.2270508,0.08349609,0.9892578,0.09423828,0.2402344,0,-1,-1,-1,-1,-2,1,-2,-7,-2,-1,-2,0,1,-4,-5,-1.5625,-1.5625,-1.5625,1.9375,1.9375,1.9375,3.158187,2.858183,7.523634,5.582182,2.896903,9.760374,-0.1941029,-0.3886453,1.628244,0.1349122,-0.3648832,1.613987,-0.02531498,0.4807187,1.659829,-0.1478662,-0.3606117,1.608353,0.08613777,-0.3804074,1.589721,-0.02735682,0.0007458865,1.711655,-0.03250054,-0.3324483,1.714511,-0.2052469,0.1963796,1.695107,-0.1140564,-0.3248397,1.674887,-0.2336016,-0.06521551,1.699924,0.1694168,-0.06308886,1.703113,NA,NA,NotTracked,NotTracked,
1.049316,-0.2246094,0.02246094,1.098145,0.02539063,0.253418,-2,0,0,-6,5,-10,-9,-4,-11,-16,-15,-14,-1,-2,-1,-4,6.5625,6.5625,6.5625,8.625,8.625,8.625,3.166992,2.866386,7.518528,5.542607,2.932281,9.805199,-0.1924095,-0.3886,1.625739,0.1337546,-0.3652273,1.611976,-0.02524974,0.4808893,1.660322,-0.1490982,-0.397586,1.607228,0.09061059,-0.3285553,1.589977,-0.02736083,0.0007480652,1.711766,-0.03255831,-0.3324546,1.714548,-0.2052042,0.1963577,1.695344,-0.1141212,-0.32484,1.674934,-0.233665,-0.06496192,1.70041,0.1695416,-0.06301042,1.703348,NA,NA,NotTracked,NotTracked,
1.13916,-0.08300781,0.05322266,1.069824,0.2158203,0.3339844,19,-4,-29,-3,-47,-7,-23,-8,0,-4,7,-11,-2,-2,-1,1,9.6875,9.6875,9.6875,81.5,81.5,81.5,3.286127,2.936162,7.423106,5.640724,3.118005,9.861411,-0.1892586,-0.3698619,1.609156,0.1291495,-0.3546548,1.599068,-0.02503125,0.481009,1.661256,-0.1465033,-0.3245654,1.597917,0.08816747,-0.3399889,1.589064,-0.02732788,0.0008053189,1.711807,-0.03256928,-0.332356,1.714426,-0.2050815,0.1966792,1.695817,-0.1141614,-0.3246705,1.674779,-0.2349557,-0.06282604,1.704619,0.1701513,-0.06119885,1.705947,NA,NA,NotTracked,NotTracked,
1.066406,-0.4555664,0.2875977,1.006836,0.2626953,0.5073242,-36,1,-82,-2,9,-3,6,-5,-5,5,2,8,1,-2,2,6,-69.6875,-69.6875,-69.6875,71.25,71.25,71.25,3.333704,3.123123,7.282014,5.749446,3.355815,9.868129,-0.1869458,-0.323888,1.574999,0.1170787,-0.3302409,1.570631,-0.02471463,0.4812604,1.661893,-0.1540489,-0.312273,1.528394,0.09533954,-0.3731571,1.588875,-0.02724526,0.0009035815,1.711736,-0.03232037,-0.3322197,1.713604,-0.2048595,0.1969484,1.696194,-0.1140157,-0.3245513,1.674013,-0.2379679,-0.05530554,1.715227,0.1718413,-0.05298615,1.713904,NA,NA,NotTracked,NotTracked,
1.066406,-0.4555664,0.2875977,1.006836,0.2626953,0.5073242,22,-1,-14,7,32,8,-16,3,-3,3,-6,-18,-2,-4,3,6,-69.6875,-69.6875,-69.6875,71.25,71.25,71.25,3.333704,3.123123,7.282014,5.749446,3.355815,9.868129,-0.1594771,-0.2807094,1.561726,0.08277981,-0.2890944,1.55391,-0.02414324,0.4814632,1.66266,-0.1851597,-0.2356102,1.50541,0.1254078,-0.3600052,1.603238,-0.02702312,0.0008912884,1.711778,-0.03208222,-0.3322595,1.713416,-0.2043807,0.1978145,1.697263,-0.1136178,-0.3245024,1.673757,-0.2428996,-0.04303415,1.725505,0.1746449,-0.0445405,1.720435,NA,NA,Unknown,Unknown,
0.7319336,-0.7983398,0.3881836,0.5537109,0.3540039,0.6459961,6,24,3,-8,-8,0,-8,-3,-2,11,12,3,0,6,0,1,-21.625,-21.625,-21.625,8.75,8.75,8.75,3.303787,3.744326,7.195419,5.869744,3.948175,9.852686,-0.1585639,-0.215597,1.529082,0.07159669,-0.2161154,1.54122,-0.02345642,0.4815345,1.663259,-0.1648262,-0.1556845,1.483833,0.06569174,-0.2925346,1.567048,-0.02688972,0.0009332529,1.71206,-0.03213947,-0.3322703,1.713546,-0.2031645,0.199958,1.698532,-0.1134451,-0.3243774,1.673749,-0.24755,-0.0281439,1.730587,0.1772626,-0.03395179,1.724861,NA,NA,Unknown,Unknown,
0.4282227,-0.7124023,0.4008789,0.3691406,0.4604492,0.6342773,13,-28,-18,2,15,4,31,14,14,8,4,1,5,7,34,19,-25.5,-25.5,-25.5,9.375,9.375,9.375,3.277719,4.250638,7.176462,5.897566,4.220021,9.834859,-0.1510616,-0.1366326,1.497797,0.05986668,-0.164782,1.509403,-0.02251421,0.4816005,1.664152,-0.1486327,-0.06536356,1.446857,0.03655478,-0.1791667,1.472584,-0.02679849,0.001124103,1.712557,-0.03221798,-0.3319363,1.714164,-0.2019863,0.2017128,1.69932,-0.1133192,-0.324156,1.67423,-0.2477401,-0.03662326,1.693257,0.1792873,-0.02704559,1.725586,NA,NA,Lasso,Closed,
0.230957,-0.6254883,0.3754883,0.2431641,0.3959961,0.6269531,-18,-10,-21,-5,-6,6,-4,-4,1,6,3,1,-3,-2,-31,-16,4.4375,4.4375,4.4375,-1.0625,-1.0625,-1.0625,3.283567,4.477287,7.140533,5.890206,4.478344,9.837232,-0.1411941,-0.08738323,1.484889,0.07457753,-0.1274552,1.456499,-0.02144096,0.4816326,1.665441,-0.1374728,-0.01664234,1.448917,0.06538279,-0.1672449,1.430588,-0.02641342,0.001473519,1.713949,-0.03182806,-0.3310938,1.715787,-0.2002589,0.2034646,1.699779,-0.1127637,-0.3235231,1.675626,-0.2548442,-0.008643119,1.724686,0.1811148,-0.02358975,1.725729,NA,NA,Lasso,Unknown,
0.2148438,-0.7880859,0.480957,0.3154297,0.5004883,0.8032227,-34,-9,-7,-1,-3,-10,-17,-17,0,-1,-3,2,-1,0,-13,1,3.875,3.875,3.875,-4.75,-4.75,-4.75,3.294308,4.623737,7.090837,5.894449,4.597521,9.85451,-0.1268937,-0.07846905,1.507706,0.05843912,-0.1063078,1.485464,-0.02016622,0.4816512,1.66714,-0.1189047,-0.07488314,1.4114,0.05421152,-0.1417881,1.42055,-0.02578538,0.001718801,1.715092,-0.03154412,-0.3305157,1.71694,-0.1992494,0.2048856,1.700084,-0.1123501,-0.3230094,1.676682,-0.2547878,-0.00746291,1.722697,0.2297693,-0.02748749,1.712501,NA,NA,NotTracked,Unknown,
0.2348633,-0.7250977,0.4624023,0.2519531,0.4350586,0.8046875,29,-9,-73,27,47,16,21,8,-5,2,-1,-2,-1,-7,4,8,7,7,7,-9.75,-9.75,-9.75,3.302699,4.639785,7.080811,5.874424,4.631948,9.878154,-0.1173618,-0.0669964,1.520984,0.05314577,-0.09184933,1.433975,-0.01885584,0.4818777,1.669288,-0.1482147,-0.1011398,1.435974,0.02775005,-0.1141159,1.424,-0.02525084,0.001957725,1.716292,-0.03115207,-0.3299503,1.718078,-0.1983314,0.2055772,1.700162,-0.1118889,-0.3224478,1.677802,-0.3060151,-0.0181686,1.703151,0.2305876,-0.02846594,1.711619,NA,NA,NotTracked,NotTracked,
0.3056641,-0.8129883,0.4448242,0.2001953,0.5258789,0.7880859,-38,-53,-89,-8,3,4,13,-4,-2,-2,-10,-6,-2,-13,24,-8,-3.125,-3.125,-3.125,-4,-4,-4,3.300481,4.636893,7.045662,5.86038,4.656149,9.919353,-0.09711493,-0.0646708,1.52572,0.04275535,-0.08514692,1.493407,-0.01769968,0.4821591,1.67095,-0.136586,-0.1031709,1.44152,0.04047051,-0.008327424,1.438,-0.02502089,0.002207018,1.717154,-0.03092127,-0.3296645,1.718775,-0.1973153,0.2058785,1.700094,-0.1115951,-0.3221491,1.678516,-0.304577,-0.01852442,1.703918,0.232265,-0.0293276,1.708341,NA,NA,NotTracked,NotTracked,
0.2734375,-0.8911133,0.4707031,0.2270508,0.5053711,0.8496094,24,9,-27,-6,-9,-6,-6,-33,-2,18,4,-1,-4,-72,-21,4,1.75,1.75,1.75,-3.8125,-3.8125,-3.8125,3.33502,4.618374,7.020073,5.845401,4.649709,9.948689,-0.1026553,-0.07518257,1.529012,0.03473024,-0.08606779,1.491167,-0.01698539,0.4825463,1.672279,-0.1314189,-0.1059391,1.439762,0.03302128,-0.004686844,1.441474,-0.02489914,0.002494031,1.717697,-0.03080405,-0.3294405,1.719123,-0.1964964,0.2060721,1.699952,-0.1114437,-0.3218562,1.678888,-0.3032367,-0.02010419,1.704427,0.1792177,-0.02731254,1.712242,NA,NA,NotTracked,NotTracked,
0.2407227,-0.8789063,0.4672852,0.2387695,0.5214844,0.8696289,-5,14,36,-1,-5,-4,-1,3,2,-9,-3,-2,-1,17,21,-1,14.6875,14.6875,14.6875,-7.1875,-7.1875,-7.1875,3.349984,4.617177,7.007464,5.83463,4.639906,9.973797,-0.09689225,-0.07634009,1.530016,0.03004137,-0.08742124,1.496286,-0.01656544,0.4826458,1.673102,-0.1259349,-0.1071666,1.443913,0.02893028,-0.007223872,1.442009,-0.02474447,0.002685701,1.718071,-0.03062577,-0.3291454,1.719416,-0.1957804,0.2063131,1.699953,-0.1111784,-0.321464,1.679277,-0.301385,-0.02108005,1.704912,0.1803375,-0.02735677,1.712256,NA,NA,NotTracked,NotTracked,
0.2280273,-0.8540039,0.4599609,0.1958008,0.5209961,0.8452148,7,-19,27,-5,-8,5,-4,9,-5,-13,3,5,1,-21,-6,7,2.875,2.875,2.875,-3.25,-3.25,-3.25,3.356026,4.617016,6.99842,5.826872,4.637815,9.98385,-0.09221123,-0.08216362,1.53387,0.0282229,-0.09035295,1.502151,-0.01618208,0.4827903,1.673982,-0.1199418,-0.1081719,1.442574,0.02446719,-0.01049685,1.446313,-0.024459,0.002886573,1.71865,-0.03038348,-0.3289216,1.719799,-0.1949368,0.2063035,1.699872,-0.1109227,-0.3212838,1.679645,-0.3000293,-0.02170729,1.705796,0.1800768,-0.02736644,1.712288,NA,NA,NotTracked,NotTracked,
0.2158203,-0.8510742,0.4589844,0.2138672,0.4946289,0.8613281,10,-4,-35,1,7,4,4,-19,8,9,9,0,-4,6,-10,-12,-0.1875,-0.1875,-0.1875,-7.6875,-7.6875,-7.6875,3.35538,4.616505,6.993753,5.814103,4.631555,9.994389,-0.09070721,-0.08606668,1.534316,0.02283199,-0.09542064,1.492896,-0.01602481,0.4828453,1.674485,-0.1222479,-0.1126008,1.44766,0.02518273,-0.01810518,1.449773,-0.02428029,0.002978041,1.719091,-0.03014654,-0.328742,1.720161,-0.1947024,0.2062878,1.700094,-0.110642,-0.3211367,1.680082,-0.2973584,-0.02288132,1.707019,0.1797538,-0.02754952,1.712418,NA,NA,NotTracked,NotTracked,
0.2158203,-0.8510742,0.4589844,0.2138672,0.4946289,0.8613281,10,-4,-35,1,7,4,4,-19,8,9,9,0,-4,6,-10,-12,-0.1875,-0.1875,-0.1875,-7.6875,-7.6875,-7.6875,3.35538,4.616505,6.993753,5.814103,4.631555,9.994389,-0.08772567,-0.08937747,1.53435,0.02170086,-0.09553952,1.494577,-0.0158705,0.4828923,1.675286,-0.114581,-0.116295,1.448345,0.02290358,-0.01580213,1.447755,-0.02396229,0.003022611,1.719748,-0.02991729,-0.3286024,1.720631,-0.1941209,0.2062858,1.700373,-0.11039,-0.3209951,1.680564,-0.2964243,-0.02365326,1.70797,0.2195809,-0.03943106,1.707286,NA,NA,NotTracked,NotTracked,
0.2495117,-0.8935547,0.5141602,0.3530273,0.7880859,0.859375,7,-11,22,3,-3,-7,15,23,3,6,-14,-6,3,-6,12,11,1.3125,1.3125,1.3125,25.0625,25.0625,25.0625,3.359738,4.586149,6.954753,5.897676,4.660512,9.937466,-0.0878787,-0.09210642,1.537384,0.02495691,-0.09530938,1.501403,-0.0157397,0.4829941,1.676348,-0.1177586,-0.1139023,1.446355,0.03150854,-0.01819401,1.450446,-0.02369647,0.003127039,1.720203,-0.02973908,-0.3284486,1.720947,-0.1937636,0.2062955,1.700714,-0.1102039,-0.3208842,1.680887,-0.2956104,-0.02306593,1.710788,0.1770046,-0.02789316,1.716284,NA,NA,NotTracked,NotTracked,
0.34375,-1.084961,0.3359375,0.3388672,0.8110352,0.8164063,-35,-40,-5,-3,-6,1,2,-7,5,-10,2,5,-1,-51,-6,3,-11.625,-11.625,-11.625,16.6875,16.6875,16.6875,3.306859,4.61939,7.004937,5.979129,4.734942,9.823348,-0.1014836,-0.06980512,1.533898,0.04142939,-0.08007173,1.499686,-0.01566399,0.4829851,1.676766,-0.130197,-0.09650616,1.441524,0.05517515,-0.002381969,1.455438,-0.02353159,0.003261927,1.720629,-0.02951246,-0.3282207,1.721206,-0.1934194,0.2065916,1.701486,-0.1099633,-0.3207274,1.68115,-0.2968504,-0.02357229,1.710114,0.1771559,-0.02786788,1.715198,NA,NA,NotTracked,NotTracked,
0.3271484,-1.053711,0.3515625,0.1772461,0.6791992,0.737793,5,3,9,-2,2,14,-7,2,9,-8,-8,-7,-3,-1,1,1,-35.6875,-35.6875,-35.6875,47.1875,47.1875,47.1875,3.181659,4.709708,7.133805,6.059366,4.861668,9.661223,-0.1435362,-0.03117077,1.49938,0.09950187,-0.03628831,1.444738,-0.01558626,0.4830906,1.677292,-0.2022961,-0.04264649,1.489733,0.09003732,0.03335563,1.4506,-0.02339583,0.003463027,1.72116,-0.02936091,-0.3277413,1.721583,-0.1931446,0.2072953,1.702837,-0.1097651,-0.3201645,1.681481,-0.268069,-0.0005374538,1.715897,0.1875516,-0.02585965,1.705393,NA,NA,Lasso,NotTracked,
0.2138672,-0.9189453,0.3847656,0.1010742,0.5703125,0.6894531,-2,2,-11,-6,-7,-27,7,-13,-8,-14,16,2,-1,7,-1,4,-63.3125,-63.3125,-63.3125,54.1875,54.1875,54.1875,3.070674,4.795302,7.263559,6.156191,4.964502,9.458342,-0.2037582,-0.01264847,1.433925,0.1412103,-0.01358151,1.42491,-0.01561587,0.4831698,1.677577,-0.2058567,-0.04100519,1.4124,0.1443941,0.02033318,1.4046,-0.02333663,0.003356496,1.721449,-0.02918756,-0.3279672,1.721793,-0.1933635,0.2061874,1.704273,-0.1096463,-0.3203997,1.681601,-0.2907491,0.006789498,1.706757,0.2081513,-0.02017354,1.686783,NA,NA,Lasso,Lasso,
0.25,-0.7128906,0.3242188,0.1020508,0.5185547,0.6748047,8,12,-10,-6,-13,7,-6,-3,3,36,21,22,15,1,27,-2,-54,-54,-54,52.25,52.25,52.25,2.95176,4.848112,7.530337,6.320358,4.998697,9.042547,-0.2634219,0.02075527,1.470376,0.2091703,0.01929905,1.445322,-0.01565179,0.4831944,1.677691,-0.2379541,0.08624067,1.474714,0.200513,0.09274379,1.464636,-0.02336531,0.003323464,1.721611,-0.02920841,-0.3280473,1.721933,-0.1920318,0.2088809,1.705727,-0.1097426,-0.3205134,1.68163,-0.2920712,0.01880159,1.74512,0.1861756,-0.01484791,1.765069,NA,NA,Lasso,Lasso,
0.1958008,-0.8310547,0.3725586,0.1225586,0.503418,0.8735352,12,2,11,5,10,4,17,4,1,13,1,-7,-9,-11,-30,-3,-42.125,-42.125,-42.125,40.875,40.875,40.875,2.844396,4.82578,7.772068,6.36382,4.963624,8.893858,-0.3146588,0.01865983,1.488119,0.266403,0.02506617,1.467562,-0.01571934,0.4832823,1.677794,-0.2826952,0.08828751,1.474917,0.2513165,0.103201,1.4565,-0.02341087,0.003292569,1.721742,-0.02936562,-0.32812,1.722237,-0.1916552,0.2099712,1.706781,-0.1099473,-0.3205739,1.681854,-0.2921557,0.02699607,1.764195,0.2414673,-0.0701846,1.735249,NA,NA,Lasso,Unknown,
0.1113281,-0.9604492,0.5595703,-0.144043,0.472168,0.9511719,-6,-7,-47,70,-1,0,10,5,-2,-27,-10,5,8,27,-11,-13,-23.0625,-23.0625,-23.0625,13.8125,13.8125,13.8125,2.777558,4.750175,7.96709,6.374284,4.916062,8.753152,-0.3444371,0.004993495,1.499768,0.3037646,0.01373213,1.482123,-0.01583199,0.4833306,1.677668,-0.3095964,0.07398512,1.479286,0.2844117,0.0844542,1.4605,-0.0234686,0.003282322,1.721731,-0.02942125,-0.328131,1.722279,-0.1920046,0.2105531,1.707976,-0.1100597,-0.3205782,1.681791,-0.2976804,0.03371798,1.771937,0.2490386,-0.0651084,1.758959,NA,NA,Lasso,Lasso,
-0.009277344,-0.9692383,0.3632813,0.04541016,0.7797852,0.7333984,2,23,26,10,7,-2,5,21,-4,23,25,-1,-9,-12,11,10,-16.75,-16.75,-16.75,-1.6875,-1.6875,-1.6875,2.769799,4.701116,8.047974,6.375553,4.894502,8.687495,-0.3490519,-0.004945905,1.505304,0.3128115,0.00610735,1.486901,-0.01612119,0.4832176,1.677334,-0.3123125,0.06716739,1.485714,0.2898298,0.07842176,1.465428,-0.02351674,0.003222747,1.721723,-0.02948387,-0.328238,1.722371,-0.1919479,0.210843,1.708539,-0.1101662,-0.3206825,1.681656,-0.3021644,-0.00438362,1.826479,0.2504365,-0.06396184,1.763522,NA,NA,Lasso,Lasso,
0.07324219,-1.033203,0.2792969,0.05566406,0.7495117,0.6494141,9,9,4,25,-3,5,-6,-36,8,17,-2,12,5,-23,-11,-17,0.875,0.875,0.875,-12.625,-12.625,-12.625,2.774673,4.700449,8.042741,6.349809,4.892303,8.686831,-0.344192,-0.007340323,1.505687,0.30988,0.003928718,1.488133,-0.01672167,0.4828919,1.676748,-0.3098576,0.06581411,1.488784,0.2870794,0.07758117,1.466287,-0.02370662,0.003037355,1.721734,-0.02968206,-0.3284005,1.722584,-0.1919424,0.2110779,1.709367,-0.1102846,-0.3207705,1.681649,-0.3016055,-0.007445392,1.8219,0.2490008,-0.06487729,1.769774,NA,NA,Lasso,Lasso,
0.2075195,-1.007324,0.1469727,0.07128906,0.7822266,0.6376953,23,13,22,19,-1,-17,-21,56,-12,-3,4,-2,6,-31,-4,4,-3.9375,-3.9375,-3.9375,-3.75,-3.75,-3.75,2.776732,4.703269,8.025259,6.347366,4.884602,8.6961,-0.3402911,-0.008935322,1.506061,0.3039083,-0.001379362,1.488778,-0.0172077,0.4827707,1.676247,-0.3060296,0.06524284,1.48644,0.2827749,0.07148004,1.469091,-0.02386644,0.00294398,1.72182,-0.03000444,-0.3285478,1.723011,-0.191917,0.2112955,1.710417,-0.1105238,-0.3208796,1.681917,-0.3005667,-0.009062317,1.81957,0.2462539,-0.06590495,1.774682,NA,NA,Lasso,Lasso,
0.1713867,-0.9790039,0.2138672,0.05957031,0.7753906,0.6772461,-7,-13,-41,13,-5,9,-21,-16,-2,6,-7,-6,3,8,10,-10,-0.5625,-0.5625,-0.5625,-3.375,-3.375,-3.375,2.782947,4.689198,7.999048,6.329022,4.857565,8.721026,-0.3380165,-0.01065265,1.504112,0.2987255,-0.006771716,1.488539,-0.01756143,0.4826877,1.676124,-0.3045573,0.06193988,1.48888,0.2776667,0.06741522,1.4672,-0.02399121,0.002892981,1.721925,-0.03006766,-0.3285828,1.723189,-0.1920852,0.2113683,1.711427,-0.110606,-0.3208847,1.681963,-0.3005781,-0.01045484,1.818952,0.2413082,-0.06412652,1.778584,NA,NA,Lasso,Lasso,
0.1899414,-0.9814453,0.2128906,0.0859375,0.7504883,0.6992188,3,-9,-17,-1,-10,-10,12,0,-10,-12,-9,0,1,16,-34,-14,8.375,8.375,8.375,-8.625,-8.625,-8.625,2.793802,4.688195,7.992151,6.312999,4.8483,8.730812,-0.3361833,-0.01306203,1.505628,0.293774,-0.01155951,1.490344,-0.01811132,0.4826958,1.676266,-0.303459,0.06221485,1.488741,0.2741694,0.06441671,1.468889,-0.02417335,0.002783149,1.722234,-0.03009569,-0.3286894,1.723519,-0.1925581,0.2100994,1.712091,-0.1107057,-0.3210218,1.682167,-0.3001818,-0.0112388,1.816165,0.2374325,-0.06333644,1.779979,NA,NA,Lasso,Lasso,
0.2167969,-0.9838867,0.203125,0.1054688,0.7734375,0.6694336,0,17,3,-32,7,-3,-6,-9,-3,-7,-14,-4,9,0,-2,-10,6.6875,6.6875,6.6875,-9.1875,-9.1875,-9.1875,2.810176,4.69007,7.980789,6.30233,4.844162,8.737675,-0.3324429,-0.01303692,1.502705,0.2899928,-0.01342335,1.489703,-0.01852236,0.4825766,1.676383,-0.3015335,0.06064432,1.485899,0.2716368,0.06070987,1.46895,-0.02437578,0.002650946,1.722547,-0.03042825,-0.3287597,1.723959,-0.1925683,0.2103126,1.712582,-0.1109535,-0.3209763,1.682423,-0.2937984,-0.01537473,1.820389,0.2336926,-0.06306179,1.77872,NA,NA,Lasso,Lasso,
0.2124023,-0.9775391,0.184082,0.09033203,0.7539063,0.6850586,18,7,15,11,-8,0,27,67,3,4,2,-10,-3,5,0,-12,2.3125,2.3125,2.3125,-0.3125,-0.3125,-0.3125,2.823957,4.69166,7.963301,6.299507,4.841985,8.744069,-0.3284872,-0.01372817,1.501606,0.2871806,-0.01381502,1.48972,-0.01888469,0.4825664,1.676837,-0.2968716,0.05798122,1.48516,0.2704155,0.06223832,1.467036,-0.02439721,0.002539408,1.722741,-0.03035762,-0.3288795,1.724011,-0.1929116,0.2093177,1.713039,-0.1109522,-0.3211824,1.682364,-0.2928705,-0.01511324,1.820553,0.2314322,-0.06401315,1.778076,NA,NA,Lasso,Lasso,
0.2050781,-0.9936523,0.2011719,0.08251953,0.7578125,0.6923828,7,15,-21,32,4,0,11,9,-4,12,10,17,5,-1,4,20,4.0625,4.0625,4.0625,0.375,0.375,0.375,2.830776,4.688882,7.952594,6.302195,4.841573,8.75095,-0.3255578,-0.01530323,1.50113,0.2850505,-0.01454478,1.489221,-0.01913229,0.4826033,1.677269,-0.2945019,0.05641563,1.485859,0.267534,0.06151228,1.46892,-0.02471738,0.002602743,1.723059,-0.03050625,-0.3288229,1.724154,-0.1929213,0.2099856,1.713687,-0.111129,-0.3211323,1.682441,-0.2921356,-0.01307078,1.820166,0.2266758,-0.06755731,1.78084,NA,NA,Lasso,Lasso,
0.2050781,-0.9936523,0.2011719,0.08251953,0.7578125,0.6923828,0,8,-5,-7,-3,17,-7,-32,-4,12,10,17,5,-1,4,20,4.0625,4.0625,4.0625,0.375,0.375,0.375,2.830776,4.688882,7.952594,6.302195,4.841573,8.75095,-0.3229288,-0.01620008,1.500046,0.2838275,-0.01544534,1.489964,-0.01943775,0.4825874,1.677839,-0.2927496,0.05545712,1.486144,0.2679028,0.06019266,1.46988,-0.02482527,0.002631343,1.723359,-0.03055844,-0.3289141,1.724324,-0.1930364,0.2092156,1.713866,-0.1112127,-0.3212995,1.682532,-0.2900718,-0.01076782,1.819855,0.2262971,-0.06696661,1.779694,NA,NA,Lasso,Lasso,
0.222168,-0.9628906,0.2202148,0.09179688,0.7026367,0.6811523,-16,-15,-27,-14,2,7,6,16,-9,-11,12,13,15,6,-8,-3,3.9375,3.9375,3.9375,2.6875,2.6875,2.6875,2.847287,4.679627,7.9276,6.296136,4.834262,8.764502,-0.3206806,-0.01796446,1.500246,0.2820974,-0.01697196,1.490632,-0.01958061,0.4826269,1.678406,-0.2912649,0.05482427,1.485008,0.2670627,0.05937833,1.468964,-0.02499358,0.002505147,1.723752,-0.03085194,-0.3290024,1.724869,-0.1929202,0.2095635,1.714446,-0.1114303,-0.3213962,1.683099,-0.2865023,-0.007165625,1.819524,0.2255537,-0.0658292,1.779396,NA,NA,Lasso,Lasso,
0.2231445,-0.9052734,0.2138672,0.1025391,0.6186523,0.6464844,-6,-3,3,14,0,-2,-6,-4,1,1,2,8,7,-6,0,-2,4,4,4,0.9375,0.9375,0.9375,2.859709,4.657877,7.920083,6.292847,4.80077,8.77831,-0.3184442,-0.02505824,1.499951,0.2793837,-0.02478876,1.490328,-0.01980513,0.4825965,1.67905,-0.2911488,0.04668506,1.482559,0.2622999,0.05103556,1.463,-0.02500164,0.002430554,1.724113,-0.03089401,-0.3289994,1.725132,-0.1927203,0.2099121,1.714819,-0.1115264,-0.321369,1.683382,-0.2842227,-0.006684416,1.819253,0.2245936,-0.0638235,1.777369,NA,NA,Lasso,Lasso,
