ALX,ALY,ALZ,ARX,ARY,ARZ,EMG0L,EMG1L,EMG2L,EMG3L,EMG4L,EMG5L,EMG6L,EMG7L,EMG0R,EMG1R,EMG2R,EMG3R,EMG4R,EMG5R,EMG6R,EMG7R,GLX,GLY,GLZ,GRX,GRY,GRZ,ORL,OPL,OYL,ORR,OPR,OYR,LHNX,LHNY,LHNZ,RHNX,RHNY,RHNZ,HX,HY,HZ,LTX,LTY,LTZ,RTX,RTY,RTZ,SpineMidX,SpineMidY,SpineMidZ,SpineBaseX,SpineBaseY,SpineBaseZ,ShoulderLeftX,ShoulderLeftY,ShoulderLeftZ,ShoulderRightX,ShoulderRightY,ShoulderRightZ,ElbowLeftX,ElbowLeftY,ElbowLeftZ,ElbowRightX,ElbowRightY,ElbowRightZ,Myo_Pose_left,Myo_Pose_Right,Kinect_pose_left,Kinect_pose_right
0.980957,-0.1904297,0.07421875,0.9545898,0.09570313,0.1782227,-6,-3,-1,-2,-2,-2,-2,-2,0,0,0,-4,-11,-1,-2,0,-1.125,-1.125,-1.125,-2.1875,-2.1875,-2.1875,3.118233,2.825564,7.695002,5.813515,2.841402,9.590544,-0.2046429,-0.3880714,1.650537,0.1511746,-0.3857898,1.648011,-0.02289067,0.4804219,1.67557,-0.1577754,-0.3531144,1.618467,0.1883103,-0.3948812,1.645238,-0.02480989,-0.0002274509,1.726402,-0.02956648,-0.3329063,1.729019,-0.2029149,0.1973915,1.707286,-0.1108078,-0.325362,1.687677,-0.2368492,-0.06527781,1.726729,0.1764826,-0.0694084,1.734035,NA,NA,NotTracked,NotTracked,
0.9907227,-0.1845703,0.08105469,0.9550781,0.09863281,0.1787109,5,1,-1,1,1,-2,0,1,1,1,-1,1,1,0,-3,0,-0.875,-0.875,-0.875,1.3125,1.3125,1.3125,3.117964,2.824277,7.694091,5.812147,2.840681,9.592926,-0.2043249,-0.3887496,1.649064,0.1510855,-0.3850533,1.646759,-0.02313709,0.4804098,1.675732,-0.1579311,-0.3557525,1.618709,0.1886093,-0.4036896,1.648155,-0.02488536,-0.0002376135,1.726513,-0.02972561,-0.3329009,1.729234,-0.2029792,0.1973986,1.707274,-0.1109969,-0.3253821,1.687945,-0.2369876,-0.06504622,1.726809,0.1764712,-0.06948057,1.734134,NA,NA,NotTracked,NotTracked,
0.9765625,-0.1821289,0.07324219,0.9570313,0.1064453,0.1748047,0,0,-2,-1,0,0,-1,-1,0,1,0,-1,-7,0,-2,0,0.125,0.125,0.125,0.75,0.75,0.75,3.117964,2.824277,7.694091,5.81142,2.83958,9.595892,-0.2054877,-0.388181,1.65139,0.1511223,-0.3855157,1.648551,-0.02340866,0.480521,1.676165,-0.1585214,-0.3666824,1.620476,0.1905664,-0.3806105,1.644632,-0.02506336,-0.0001070589,1.727006,-0.02992642,-0.3328465,1.729852,-0.2028873,0.197325,1.707447,-0.1111866,-0.3252554,1.688599,-0.2371944,-0.06489446,1.727141,0.17641,-0.06945108,1.734625,NA,NA,NotTracked,NotTracked,
0.9760742,-0.1806641,0.07128906,0.9633789,0.1044922,0.1650391,0,-1,-1,-1,1,1,2,-3,-2,1,-2,0,2,0,-3,-1,0.125,0.125,0.125,2.75,2.75,2.75,3.116946,2.824122,7.695099,5.811518,2.837627,9.599654,-0.2048464,-0.3881526,1.650397,0.1514577,-0.385507,1.647807,-0.02359583,0.4804625,1.676294,-0.1577394,-0.3681423,1.619887,0.1889932,-0.4080474,1.651111,-0.0250783,-0.000145402,1.727095,-0.02990216,-0.3328726,1.729964,-0.2030265,0.1972541,1.70751,-0.1111465,-0.3253039,1.688732,-0.2373531,-0.06494623,1.727132,0.1764311,-0.06946529,1.734661,NA,NA,NotTracked,NotTracked,
0.9765625,-0.1831055,0.08056641,0.9599609,0.09814453,0.1674805,4,-1,0,-2,-1,-1,-2,4,0,-1,-1,-2,-6,-3,-3,1,-3.375,-3.375,-3.375,0,0,0,3.11246,2.821891,7.694855,5.811868,2.83848,9.599895,-0.2043812,-0.3883261,1.651429,0.1512731,-0.3859814,1.649061,-0.0237024,0.4804177,1.676431,-0.156209,-0.3848485,1.623182,0.1956474,-0.3618328,1.652125,-0.02520588,-0.0001257961,1.727329,-0.02995306,-0.3329025,1.730243,-0.2030935,0.1972767,1.707558,-0.1111984,-0.3253855,1.688969,-0.2374511,-0.06484945,1.727313,0.1764565,-0.06940742,1.734797,NA,NA,NotTracked,NotTracked,
0.9824219,-0.1835938,0.07275391,0.9570313,0.1020508,0.1689453,-11,-2,0,0,0,-1,4,10,-3,-1,0,-1,4,-1,5,-1,0.1875,0.1875,0.1875,0.5,0.5,0.5,3.111759,2.82121,7.692805,5.813792,2.838202,9.59918,-0.2047819,-0.3881902,1.651562,0.151529,-0.3860087,1.648332,-0.02380993,0.4803102,1.676679,-0.158022,-0.3539401,1.620967,0.1891705,-0.4033708,1.647167,-0.02522427,-0.0001441351,1.727517,-0.03005145,-0.332945,1.730672,-0.2030889,0.1972883,1.707573,-0.1112973,-0.3254319,1.689442,-0.2375197,-0.06473385,1.727525,0.176529,-0.0693279,1.734937,NA,NA,NotTracked,NotTracked,
0.9794922,-0.1845703,0.06787109,0.9599609,0.09375,0.1767578,-2,-1,-2,-2,-2,-1,-2,-5,1,2,-1,1,-2,0,2,0,-1.1875,-1.1875,-1.1875,0.625,0.625,0.625,3.108739,2.8205,7.695102,5.813577,2.836944,9.599287,-0.2042918,-0.3877186,1.65078,0.1519344,-0.3856223,1.648062,-0.02384483,0.4802569,1.676697,-0.1557519,-0.3824478,1.6225,0.1910963,-0.393799,1.6475,-0.02534749,-9.306696E-05,1.72761,-0.03016985,-0.3328899,1.73086,-0.2031239,0.1973348,1.707487,-0.1114399,-0.3253089,1.689727,-0.2375438,-0.06471797,1.727516,0.1765941,-0.06922644,1.734972,NA,NA,NotTracked,NotTracked,
0.9775391,-0.1835938,0.08007813,0.9619141,0.09667969,0.1772461,3,0,1,0,0,-1,-1,-2,0,-2,-2,0,2,-8,-39,-2,0.125,0.125,0.125,-1.25,-1.25,-1.25,3.108839,2.820667,7.694442,5.811601,2.837159,9.600118,-0.2038096,-0.3883741,1.650774,0.1537832,-0.3794518,1.650249,-0.02384159,0.4802364,1.676705,-0.1566628,-0.3736055,1.622532,0.1937515,-0.3703141,1.646,-0.02536313,-0.0001080631,1.727716,-0.0302288,-0.3328557,1.731016,-0.2031175,0.1973469,1.707432,-0.1114892,-0.3252852,1.68985,-0.2375859,-0.06462974,1.727585,0.1766574,-0.06922432,1.735071,NA,NA,NotTracked,NotTracked,
0.9775391,-0.1835938,0.08007813,0.9619141,0.09667969,0.1772461,3,0,1,0,0,-1,-1,-2,0,-2,-2,0,2,-8,-39,-2,0.125,0.125,0.125,-1.25,-1.25,-1.25,3.110096,2.820525,7.692447,5.811601,2.837159,9.600118,-0.2039324,-0.3881511,1.652097,0.1539551,-0.3788623,1.651253,-0.02381149,0.4802019,1.67673,-0.1568512,-0.3714524,1.621698,0.1922796,-0.3852237,1.649107,-0.02538775,-0.0001821986,1.72785,-0.0302238,-0.3329202,1.731272,-0.2030425,0.1974047,1.707346,-0.1114983,-0.3253296,1.690056,-0.2376347,-0.06465896,1.727634,0.1767392,-0.06916294,1.735256,NA,NA,NotTracked,NotTracked,
0.9750977,-0.1855469,0.06884766,0.9614258,0.1015625,0.1748047,2,-3,-1,-1,0,-1,-2,-3,1,-1,-1,-3,-7,-1,-2,-2,-1,-1,-1,0,0,0,3.113023,2.817958,7.683897,5.810778,2.83637,9.600507,-0.2042622,-0.3878505,1.65225,0.1534593,-0.3793035,1.651809,-0.02380166,0.4801221,1.6768,-0.1568765,-0.3663791,1.621831,0.1890557,-0.3994217,1.649286,-0.0253931,-0.0001914269,1.727962,-0.03023588,-0.3328532,1.731457,-0.2030512,0.1974158,1.707359,-0.1115083,-0.3251874,1.690227,-0.2376911,-0.0645875,1.727668,0.1768063,-0.06914891,1.735559,NA,NA,NotTracked,NotTracked,
0.9716797,-0.1708984,0.06738281,0.9580078,0.09912109,0.1738281,-6,-3,0,0,-1,-1,-4,-10,-1,-1,-2,-3,-4,-1,-11,-1,0.625,0.625,0.625,-1,-1,-1,3.113023,2.817958,7.683897,5.811296,2.835659,9.600401,-0.2035967,-0.3881386,1.652043,0.1538416,-0.3801576,1.651836,-0.02379732,0.4800849,1.676883,-0.157133,-0.3597535,1.622875,0.1896782,-0.4017309,1.649223,-0.02537385,-0.0001623102,1.728243,-0.0302845,-0.3327836,1.731809,-0.2030625,0.1974688,1.707379,-0.111564,-0.3251138,1.69051,-0.2377253,-0.06439655,1.727847,0.1769101,-0.06912652,1.735806,NA,NA,NotTracked,NotTracked,
0.9780273,-0.1748047,0.07519531,0.9526367,0.1000977,0.1694336,5,-2,-4,-1,-2,-2,-3,-7,-2,-2,-1,0,2,1,2,-1,0.5625,0.5625,0.5625,1.3125,1.3125,1.3125,3.112024,2.817144,7.684897,5.813519,2.83566,9.598808,-0.2040677,-0.3878975,1.652075,0.1533864,-0.3805493,1.651267,-0.02378521,0.4800404,1.677002,-0.1560006,-0.3772632,1.623119,0.1929426,-0.3764597,1.649214,-0.0254213,-0.0001249912,1.728333,-0.03023511,-0.3327087,1.731947,-0.2031199,0.1975194,1.707429,-0.1115047,-0.3250291,1.690633,-0.2377048,-0.06448827,1.72794,0.1770367,-0.06889468,1.736016,NA,NA,NotTracked,NotTracked,
0.9790039,-0.1801758,0.07519531,0.9648438,0.1010742,0.1743164,0,-3,0,-1,-1,-1,1,2,1,-2,-2,-3,-1,-4,-31,-1,0.625,0.625,0.625,0.625,0.625,0.625,3.116177,2.816755,7.68399,5.812199,2.838243,9.601703,-0.204125,-0.3891051,1.653268,0.152727,-0.3838737,1.651657,-0.02379406,0.4799997,1.677142,-0.1567908,-0.3690529,1.622661,0.1934662,-0.3722026,1.648115,-0.02540833,-0.0001479709,1.72846,-0.03022656,-0.3327196,1.732096,-0.203134,0.1974952,1.707472,-0.1114871,-0.3250505,1.690863,-0.2376348,-0.06470005,1.728161,0.1770809,-0.06893578,1.73608,NA,NA,NotTracked,NotTracked,
1.017578,-0.2182617,0.06689453,1.085938,0.06738281,0.1567383,-2,-2,-2,-1,-7,-2,-2,9,-11,-11,-5,-2,0,-1,-2,-4,2.875,2.875,2.875,5.4375,5.4375,5.4375,3.11697,2.820957,7.685288,5.761323,2.866254,9.656574,-0.2035539,-0.3889963,1.651722,0.1523895,-0.3838332,1.649475,-0.02389535,0.4800142,1.67759,-0.1567755,-0.3685114,1.622455,0.1896843,-0.4033505,1.6471,-0.02542923,-0.0001680427,1.7287,-0.03025816,-0.3326921,1.732279,-0.2033819,0.1976489,1.707926,-0.1115071,-0.3250556,1.691059,-0.2377314,-0.06456263,1.728498,0.1770826,-0.06872041,1.736593,NA,NA,NotTracked,NotTracked,
1.115723,-0.1826172,0.03027344,1.0625,0.1494141,0.2573242,-1,0,0,-4,5,1,0,-10,-7,-11,-10,-8,-1,-4,-4,3,80.6875,80.6875,80.6875,29.875,29.875,29.875,3.182588,2.864369,7.695512,5.742262,2.985308,9.717193,-0.2022557,-0.380194,1.642665,0.147386,-0.3851781,1.635005,-0.02403478,0.4800131,1.678053,-0.19745,-0.365504,1.574786,0.1852823,-0.4183724,1.63625,-0.02539815,-0.0001810645,1.728768,-0.03025289,-0.3326746,1.732244,-0.2033377,0.1976755,1.70806,-0.1115024,-0.3250341,1.691016,-0.2382081,-0.06421249,1.730319,0.1772218,-0.06773026,1.738529,NA,NA,NotTracked,NotTracked,
1.07959,-0.3320313,0.2426758,1.058594,0.2138672,0.5141602,-3,2,4,2,-19,-3,16,1,1,0,4,-5,-1,2,-8,9,-17.0625,-17.0625,-17.0625,21.375,21.375,21.375,3.383354,3.07405,7.546244,5.775659,3.200284,9.720078,-0.1988682,-0.3477207,1.625723,0.140211,-0.3613135,1.609123,-0.02419781,0.4803379,1.679042,-0.1928395,-0.3198085,1.5542,0.1425012,-0.3488525,1.557074,-0.02540095,-9.155508E-05,1.728853,-0.03017431,-0.3326072,1.732174,-0.2029331,0.1978769,1.708644,-0.11142,-0.3249451,1.690877,-0.2400156,-0.06040533,1.739555,0.1783041,-0.06303231,1.745729,NA,NA,NotTracked,NotTracked,
0.921875,-0.5898438,0.4223633,0.8554688,0.4116211,0.6635742,13,-3,-41,2,-5,-1,3,-16,-5,15,2,-5,-3,-3,-10,-7,-50.875,-50.875,-50.875,23.3125,23.3125,23.3125,3.395963,3.355862,7.454998,5.875354,3.579507,9.68154,-0.1798846,-0.311483,1.606749,0.1421232,-0.3001392,1.563254,-0.02425735,0.4802897,1.679179,-0.1846572,-0.2512385,1.524059,0.1418248,-0.2832504,1.517523,-0.02537714,-1.831604E-05,1.728797,-0.02999389,-0.3321609,1.73141,-0.2031583,0.1988829,1.710149,-0.1112838,-0.3245185,1.690108,-0.2420865,-0.05307357,1.748121,0.1781555,-0.05606994,1.752913,NA,NA,NotTracked,Unknown,
0.7021484,-0.6923828,0.4526367,0.6191406,0.3881836,0.6767578,20,-2,-59,1,9,4,-13,-7,-12,0,13,4,-2,8,22,-2,-32.0625,-32.0625,-32.0625,3.875,3.875,3.875,3.361847,3.691827,7.40588,5.882898,3.899818,9.681457,-0.1677411,-0.2363711,1.573633,0.112676,-0.2443411,1.568145,-0.02429434,0.480286,1.679645,-0.1667235,-0.1701983,1.482375,0.1622126,-0.1907841,1.54253,-0.02547018,0.0001424269,1.728841,-0.03005059,-0.3316151,1.730976,-0.2031654,0.2007523,1.712382,-0.1112152,-0.3238853,1.689397,-0.244012,-0.03877854,1.754524,0.1790013,-0.04103432,1.758236,NA,NA,Unknown,Unknown,
0.5112305,-0.7290039,0.4296875,0.4936523,0.4145508,0.7163086,24,24,17,2,-1,-12,-34,12,6,18,11,5,1,-2,-15,-7,-36.5625,-36.5625,-36.5625,24.875,24.875,24.875,3.315067,4.14357,7.344113,5.893307,4.216369,9.718982,-0.1733553,-0.157882,1.483373,0.09881257,-0.1779114,1.533806,-0.0243353,0.4802026,1.679837,-0.1526367,-0.09672847,1.473286,0.1531297,-0.1342008,1.526536,-0.02556798,0.0001813299,1.728865,-0.03038004,-0.331407,1.730757,-0.2029526,0.2020348,1.713678,-0.1114013,-0.323789,1.689222,-0.2518504,-0.04903892,1.71136,0.1771393,-0.03121504,1.756715,NA,NA,Unknown,Unknown,
0.3208008,-0.7094727,0.4355469,0.2363281,0.4282227,0.6967773,-1,27,10,-1,-2,-5,-38,-5,-14,1,-8,-3,-5,-35,32,22,-18,-18,-18,18.25,18.25,18.25,3.29563,4.516798,7.257061,5.907669,4.593,9.797832,-0.1417616,-0.0944346,1.504688,0.09978498,-0.1065322,1.460533,-0.02434667,0.4802618,1.680223,-0.1331298,-0.01447671,1.452368,0.08426809,-0.03606341,1.449308,-0.02574827,0.000437318,1.729069,-0.03080907,-0.3307813,1.730969,-0.2025071,0.203305,1.714595,-0.1116935,-0.3232839,1.689409,-0.2463477,-0.01119554,1.740292,0.1822748,-0.04707608,1.700316,NA,NA,Lasso,Unknown,
0.234375,-0.7299805,0.4194336,0.05859375,0.5532227,0.625,-6,-7,0,3,4,5,1,-23,5,-1,-7,-1,1,-5,-12,-11,15.375,15.375,15.375,10.875,10.875,10.875,3.303657,4.710851,7.220809,5.929553,4.79151,9.854487,-0.1449461,-0.05597178,1.476904,0.07390831,-0.06274213,1.506048,-0.02422693,0.4803566,1.681094,-0.133356,0.007923692,1.46853,0.07482973,0.01427716,1.449278,-0.02597975,0.0008476852,1.729584,-0.03097807,-0.3301515,1.731344,-0.201222,0.2046814,1.71484,-0.1117939,-0.3225511,1.68987,-0.248985,-0.009087347,1.739878,0.2330291,-0.02849222,1.732251,NA,NA,Lasso,Lasso,
0.1582031,-0.7124023,0.4018555,0.09130859,0.4433594,0.7436523,-20,-60,0,3,4,5,18,20,-1,-5,4,2,0,-17,-10,-9,19.0625,19.0625,19.0625,-9.375,-9.375,-9.375,3.338465,4.816604,7.216129,5.921316,4.887615,9.900568,-0.05557147,-0.0347499,1.322573,0.07861078,-0.04086571,1.467673,-0.02393837,0.4803319,1.682425,-0.04625394,0.02826428,1.313348,0.06946973,0.02785857,1.462143,-0.02604622,0.001275796,1.730176,-0.03082905,-0.3292067,1.731851,-0.2004437,0.2055783,1.714886,-0.1114523,-0.3214872,1.6904,-0.2491698,-0.008355661,1.738102,0.1804511,-0.02440838,1.721497,NA,NA,NotTracked,Lasso,
0.1523438,-0.7871094,0.4858398,0.1269531,0.5253906,0.8110352,9,-1,12,-1,-6,-2,-9,-5,11,3,-6,-1,-1,7,-12,9,4.8125,4.8125,4.8125,-0.6875,-0.6875,-0.6875,3.347126,4.843071,7.21506,5.918882,4.901213,9.955841,-0.1413205,-0.03271098,1.448075,0.0706156,-0.03737394,1.46452,-0.02336069,0.4803982,1.683871,-0.1271635,0.05207774,1.447,0.06116264,0.03454719,1.455615,-0.02605017,0.001454465,1.730614,-0.03073938,-0.3288036,1.732067,-0.1995635,0.2059825,1.714811,-0.111269,-0.3210832,1.69063,-0.2483691,-0.008811867,1.733539,0.1804493,-0.02425199,1.720204,NA,NA,Lasso,NotTracked,
0.1113281,-0.8383789,0.5029297,0.1445313,0.5170898,0.8710938,6,38,16,3,4,-3,-12,-28,0,-3,2,-1,0,17,19,1,-0.25,-0.25,-0.25,1.8125,1.8125,1.8125,3.350231,4.837829,7.187621,5.912677,4.884803,9.979797,-0.1223702,-0.03455839,1.492861,0.05648783,-0.04091014,1.490667,-0.02302627,0.4803706,1.684675,-0.1205041,0.04702964,1.456,0.05005329,0.03952482,1.451294,-0.02600488,0.001511918,1.730831,-0.03062566,-0.3287077,1.732152,-0.1986535,0.2057568,1.714458,-0.1110954,-0.3210011,1.690787,-0.2989798,-0.03300454,1.753029,0.2317413,-0.04044771,1.701371,NA,NA,NotTracked,NotTracked,
0.1113281,-0.8383789,0.5029297,0.1445313,0.5170898,0.8710938,6,38,16,3,4,-3,-12,-28,0,-3,2,-1,0,17,19,1,-0.25,-0.25,-0.25,1.8125,1.8125,1.8125,3.350231,4.837829,7.187621,5.912677,4.884803,9.979797,-0.1166278,-0.04081739,1.496562,0.05113503,-0.04401607,1.493804,-0.02278738,0.4804821,1.685296,-0.1161501,0.04046992,1.4561,0.04498678,0.03561683,1.453118,-0.02601948,0.001657508,1.731098,-0.03056213,-0.328477,1.732312,-0.1982296,0.2061321,1.714517,-0.1109893,-0.3207722,1.691015,-0.2502658,-0.006672614,1.739238,0.2319551,-0.0410536,1.703396,NA,NA,NotTracked,NotTracked,
0.1186523,-0.8911133,0.5185547,0.0703125,0.5883789,0.8549805,-26,5,20,3,-1,-7,-20,6,-2,-9,-11,-10,-8,-12,-7,16,6.75,6.75,6.75,-5.125,-5.125,-5.125,3.363832,4.792816,7.13741,5.906335,4.863965,0.02824062,-0.1071256,-0.04520424,1.507562,0.04861875,-0.04490629,1.487815,-0.02256492,0.4806173,1.685876,-0.1156826,0.04186949,1.465773,0.04389919,0.03538273,1.457054,-0.02597572,0.001849685,1.731456,-0.03053891,-0.3281963,1.732432,-0.197911,0.206558,1.714967,-0.1109249,-0.3205815,1.691236,-0.2488268,-0.007122288,1.736861,0.1779304,-0.02447383,1.721285,NA,NA,NotTracked,NotTracked,
0.09765625,-0.8637695,0.5151367,0.05664063,0.5444336,0.84375,7,51,-7,0,1,-2,-1,-17,3,-20,8,1,3,-3,20,14,2.125,2.125,2.125,3.625,3.625,3.625,3.371763,4.793752,7.12739,5.897159,4.866812,0.03935572,-0.1041532,-0.04481067,1.531585,0.04739952,-0.04092252,1.497766,-0.02243022,0.4806691,1.686284,-0.111495,0.03679115,1.466952,0.03945955,0.03842042,1.456346,-0.02595076,0.001912331,1.731668,-0.03050595,-0.3281205,1.732501,-0.1976636,0.2067644,1.715304,-0.1108638,-0.3205448,1.691443,-0.2937581,-0.02740318,1.711236,0.2324641,-0.04541027,1.710872,NA,NA,NotTracked,NotTracked,
0.09912109,-0.8588867,0.503418,0.1035156,0.5292969,0.8793945,-15,-32,7,-2,-6,-7,-12,-3,14,4,0,-6,-7,-10,11,-3,3.0625,3.0625,3.0625,-4.3125,-4.3125,-4.3125,3.378124,4.798807,7.115983,5.889616,4.857737,0.04129371,-0.1022488,-0.04918289,1.534354,0.04517928,-0.04537873,1.451989,-0.02241823,0.4806635,1.686585,-0.1092529,0.03193743,1.467353,0.0454273,-0.01491029,1.421571,-0.02587436,0.002001559,1.731907,-0.03048917,-0.3278733,1.732612,-0.1974563,0.2068503,1.715587,-0.1107937,-0.3203157,1.691594,-0.2936327,-0.02677275,1.712905,0.1773252,-0.02443711,1.725527,NA,NA,NotTracked,NotTracked,
0.1103516,-0.8740234,0.5273438,0.06835938,0.527832,0.8491211,-4,-3,-20,-3,-1,1,4,22,-12,-5,-10,-5,-3,-28,-7,-6,0.3125,0.3125,0.3125,-1.8125,-1.8125,-1.8125,3.377634,4.79847,7.106239,5.88647,4.859758,0.03876252,-0.09402242,-0.04613676,1.538234,0.01922097,-0.04809874,1.439846,-0.02224836,0.4805425,1.687133,-0.1092412,0.03880718,1.465299,0.03143194,-0.03125409,1.376333,-0.02591878,0.002017713,1.732253,-0.03048381,-0.3278099,1.732757,-0.1971931,0.2069403,1.715899,-0.1107711,-0.320277,1.691749,-0.2947465,-0.02818366,1.711713,0.1773163,-0.0245754,1.725655,NA,NA,NotTracked,NotTracked,
0.1044922,-0.8427734,0.5317383,0.07958984,0.5419922,0.8608398,-22,-10,-13,-2,2,-4,-5,-9,-20,-5,3,2,1,6,13,6,-1.6875,-1.6875,-1.6875,-0.6875,-0.6875,-0.6875,3.378808,4.798875,7.09364,5.887281,4.857641,0.03832698,-0.1002918,-0.0460955,1.534948,0.04539657,-0.04712199,1.453447,-0.02214311,0.4804436,1.687703,-0.1062159,0.03736822,1.461539,0.04846388,-0.01993022,1.4193,-0.02585137,0.002028813,1.73258,-0.03044649,-0.3277537,1.732838,-0.1969299,0.2070835,1.716281,-0.1107235,-0.3202108,1.691852,-0.2959646,-0.03268572,1.713197,0.1772267,-0.02461533,1.726568,NA,NA,NotTracked,NotTracked,
0.06689453,-0.8505859,0.53125,0.1132813,0.5795898,0.8847656,5,4,2,-3,0,-5,4,3,22,14,-6,-7,-4,1,5,-3,2.375,2.375,2.375,6.625,6.625,6.625,3.381997,4.810006,7.076517,5.889631,4.851977,0.03599927,-0.0939061,-0.04926785,1.519973,0.04154224,-0.05738668,1.502426,-0.02191115,0.4803512,1.688243,-0.1007674,0.04195587,1.460313,0.04157307,0.02250829,1.4644,-0.02576858,0.00202764,1.732904,-0.03042203,-0.3277113,1.73291,-0.1966603,0.2070116,1.716484,-0.1106793,-0.3201531,1.691955,-0.239197,-0.01027425,1.728766,0.1771332,-0.0247637,1.726921,NA,NA,NotTracked,NotTracked,
0.1689453,-1.039551,0.4316406,0.1557617,0.7314453,0.8793945,29,-1,-11,-2,-3,-1,-3,30,16,18,15,-1,1,4,-18,7,-5.625,-5.625,-5.625,11.3125,11.3125,11.3125,3.359762,4.828418,7.083052,5.917382,4.863603,0.00131662,-0.09516164,-0.04309321,1.514225,0.04558975,-0.04900912,1.439971,-0.02148142,0.4803953,1.689417,-0.1033056,0.04695712,1.463737,0.05638822,-0.02809473,1.4045,-0.02563851,0.002087079,1.733462,-0.03026869,-0.3276027,1.733227,-0.1959294,0.2068516,1.71683,-0.1104983,-0.3200478,1.692323,-0.2390541,-0.01040894,1.72844,0.177041,-0.02488143,1.727096,NA,NA,NotTracked,NotTracked,
0.1972656,-1.04834,0.362793,0.1889648,0.7910156,0.7963867,-1,18,-11,1,-6,7,-18,-1,-11,-13,1,1,-3,-8,4,5,-12.375,-12.375,-12.375,24.875,24.875,24.875,3.315038,4.860779,7.130776,5.987242,4.926048,9.879115,-0.1246513,-0.026056,1.4839,0.06852103,-0.03278729,1.435919,-0.02113106,0.4803815,1.690682,-0.1222033,0.0470698,1.467286,0.07505792,-0.01141135,1.395667,-0.02562555,0.002075431,1.734339,-0.03018505,-0.3275239,1.733649,-0.1952336,0.2068815,1.717109,-0.1103638,-0.3199869,1.692979,-0.240139,-0.01015182,1.727638,0.1780921,-0.02484545,1.724869,NA,NA,NotTracked,NotTracked,
0.2216797,-1.01416,0.362793,0.07470703,0.6972656,0.7348633,-5,11,-15,-2,-3,3,18,-1,9,-6,-4,-16,-19,-10,0,-3,-29.9375,-29.9375,-29.9375,34.25,34.25,34.25,3.248866,4.905784,7.242394,6.049984,5.013294,9.716808,-0.163894,-0.01295556,1.435883,0.1228457,-0.002283,1.460776,-0.02079552,0.4806065,1.691905,-0.1632021,0.01432836,1.4088,0.1136347,0.07054483,1.461333,-0.02565833,0.002047208,1.734923,-0.03033129,-0.3277298,1.733967,-0.1950947,0.2067982,1.717436,-0.1104888,-0.3202376,1.693078,-0.2538506,-0.008701237,1.705176,0.1910297,-0.02184515,1.69892,NA,NA,Unknown,Lasso,
0.1235352,-0.8901367,0.4169922,0.004882813,0.5800781,0.7451172,-35,-10,-21,-4,-2,-10,-27,-12,-7,1,7,11,2,19,23,11,-32.3125,-32.3125,-32.3125,43.1875,43.1875,43.1875,3.205193,4.941134,7.33949,6.091,5.065578,9.57833,-0.2133383,0.01417178,1.460169,0.1762999,0.02101316,1.462869,-0.0205336,0.4808178,1.692472,-0.19838,0.07592256,1.468909,0.1640743,0.08412331,1.471923,-0.02554031,0.001957853,1.735152,-0.03014242,-0.3278802,1.734076,-0.1948082,0.2072731,1.717831,-0.1103785,-0.320402,1.693034,-0.2726335,-0.007300731,1.690351,0.167545,-0.02363499,1.739111,NA,NA,Lasso,Lasso,
0.1235352,-0.8901367,0.4169922,0.004882813,0.5800781,0.7451172,-35,-10,-21,-4,-2,-10,-27,-12,-7,1,7,11,2,19,23,11,-32.3125,-32.3125,-32.3125,43.1875,43.1875,43.1875,3.205193,4.941134,7.33949,6.091,5.065578,9.57833,-0.260515,0.0249272,1.476449,0.2273218,0.0316286,1.473389,-0.02033254,0.4809557,1.692695,-0.242895,0.08117528,1.487524,0.2143332,0.0995414,1.4632,-0.02552974,0.001960156,1.735211,-0.03010716,-0.3279441,1.73411,-0.1933662,0.209232,1.718484,-0.1103853,-0.3204376,1.693019,-0.2500716,-0.002555485,1.742231,0.1841599,-0.01988134,1.75025,NA,NA,Lasso,Lasso,
0.05566406,-0.7783203,0.5209961,0.05517578,0.5561523,0.9155273,2,5,-27,-21,15,-29,-30,-7,-21,-5,-7,-10,-9,18,6,13,-23.4375,-23.4375,-23.4375,16.8125,16.8125,16.8125,3.051512,4.969148,7.821865,6.212958,4.964762,9.038085,-0.2905592,0.02327747,1.486307,0.265406,0.01128602,1.490356,-0.02024756,0.481058,1.692901,-0.2656239,0.09724846,1.466367,0.2509604,0.0799069,1.46932,-0.02545928,0.001901718,1.735284,-0.03001772,-0.3281306,1.734124,-0.1927702,0.209555,1.718997,-0.1103876,-0.3207077,1.692986,-0.259484,0.004290084,1.756475,0.2132959,-0.08071705,1.766029,NA,NA,Lasso,Lasso,
0.05029297,-0.9501953,0.5732422,-0.05761719,0.6245117,0.9448242,-12,2,-14,-15,-7,-24,0,3,18,-10,-5,6,6,0,-22,6,-5.8125,-5.8125,-5.8125,0.6875,0.6875,0.6875,3.053113,4.907102,7.946386,6.194479,4.901341,8.922908,-0.3058739,0.009908062,1.496195,0.282327,-0.001901574,1.503849,-0.02024239,0.4811922,1.693114,-0.2842723,0.08217384,1.473844,0.2662544,0.06841995,1.47728,-0.02542952,0.001881145,1.735444,-0.02995194,-0.3283182,1.734355,-0.1924378,0.2097742,1.720097,-0.1103973,-0.3209487,1.693355,-0.2637857,0.009817515,1.768936,0.2121133,-0.07728743,1.781347,NA,NA,Lasso,Lasso,
-0.04394531,-0.9311523,0.4331055,-0.06591797,0.621582,0.8144531,5,8,2,-13,-2,-11,9,55,9,6,4,-1,1,1,-8,-14,12.6875,12.6875,12.6875,-10.5625,-10.5625,-10.5625,3.076972,4.865436,8.017994,6.165568,4.903961,8.907885,-0.3069658,0.004298321,1.501379,0.2834976,-0.004099386,1.505246,-0.02027891,0.4812145,1.692973,-0.2853392,0.07706927,1.477081,0.2660797,0.06698518,1.479856,-0.02537334,0.001841387,1.735451,-0.02989403,-0.3283591,1.734427,-0.1920146,0.2100459,1.720362,-0.1103731,-0.3209714,1.69337,-0.2620145,0.01174118,1.775233,0.2098297,-0.07539549,1.788692,NA,NA,Lasso,Lasso,
-0.04785156,-0.9580078,0.378418,0.04785156,0.6933594,0.7509766,-6,-7,0,0,2,23,1,0,-3,-13,-11,-3,-8,-20,-7,4,12,12,12,-10.9375,-10.9375,-10.9375,3.090653,4.866752,8.027954,6.149247,4.906362,8.908266,-0.3041476,0.0007204161,1.504439,0.2787292,-0.005307514,1.505446,-0.02038279,0.4811632,1.692784,-0.2807437,0.07235219,1.482938,0.262772,0.0642202,1.482094,-0.02536618,0.001850556,1.735551,-0.0298412,-0.3283545,1.734593,-0.1913642,0.2106728,1.720906,-0.1103656,-0.3209316,1.693548,-0.2608589,0.01080297,1.778031,0.2069485,-0.07427745,1.792565,NA,NA,Unknown,Lasso,
0.06542969,-1.015625,0.340332,0.05712891,0.7114258,0.7407227,-10,-12,-42,-11,-2,-8,-12,-9,12,-8,-9,-9,0,15,1,9,6.0625,6.0625,6.0625,-10.375,-10.375,-10.375,3.103289,4.875701,8.02474,6.137556,4.907332,8.919938,-0.3001987,-0.001667732,1.504538,0.2737889,-0.007296991,1.504224,-0.02050837,0.4811484,1.692936,-0.277333,0.06885993,1.486,0.2583953,0.06326643,1.483213,-0.02530988,0.00174581,1.735777,-0.0298021,-0.3285113,1.734988,-0.1910288,0.2109093,1.721759,-0.110411,-0.3211718,1.694002,-0.2592099,0.009901029,1.779913,0.2024065,-0.07405076,1.796783,NA,NA,Lasso,Lasso,
0.05273438,-0.9780273,0.3510742,0.08056641,0.6987305,0.7524414,-6,20,-39,-13,5,-6,4,-46,-6,8,7,-17,-12,-6,11,10,-1.9375,-1.9375,-1.9375,-1.5625,-1.5625,-1.5625,3.10234,4.87188,7.990214,6.134995,4.904166,8.936587,-0.2954831,-0.004963844,1.50028,0.2709118,-0.00839025,1.500464,-0.02076405,0.4812057,1.693211,-0.2730275,0.06659573,1.481375,0.2556596,0.06027373,1.478699,-0.02523248,0.001754952,1.736095,-0.02960496,-0.3285486,1.735464,-0.1905662,0.2110374,1.722499,-0.1102665,-0.3212427,1.694633,-0.2585103,0.009372019,1.780965,0.2005394,-0.07469073,1.792892,NA,NA,Lasso,Lasso,
0.1147461,-0.9638672,0.3828125,0.08496094,0.6928711,0.7670898,-32,1,8,2,-8,-12,-4,-31,-20,2,-15,-4,-7,3,1,4,-9.5625,-9.5625,-9.5625,-3.125,-3.125,-3.125,3.096454,4.863876,7.971112,6.132553,4.902856,8.946403,-0.294055,-0.0083127,1.497108,0.2681617,-0.009720754,1.500019,-0.02108027,0.4811395,1.693455,-0.271063,0.05971668,1.482853,0.2532023,0.06153493,1.479414,-0.02521538,0.001653504,1.73638,-0.02951967,-0.3287501,1.735767,-0.1908574,0.2095388,1.721807,-0.11024,-0.321523,1.695098,-0.2580738,0.009166033,1.780998,0.1982418,-0.07642141,1.788869,NA,NA,Lasso,Lasso,
0.1201172,-0.9277344,0.3798828,0.06396484,0.6601563,0.7578125,10,-11,-5,-9,-4,-3,9,-4,-13,11,2,-9,0,1,-2,0,0.3125,0.3125,0.3125,1.25,1.25,1.25,3.09554,4.859972,7.951422,6.134247,4.903117,8.953326,-0.2922729,-0.005649412,1.496912,0.267615,-0.01015339,1.501162,-0.02144407,0.4812972,1.693942,-0.2713262,0.06452657,1.480912,0.2528032,0.06120939,1.480023,-0.02520517,0.001732842,1.736815,-0.02940664,-0.3286793,1.736115,-0.1909546,0.2103142,1.723493,-0.1101937,-0.321523,1.695306,-0.2578152,0.009138967,1.781295,0.1978794,-0.07631245,1.789039,NA,NA,Lasso,Lasso,
0.09375,-0.9355469,0.394043,0.06347656,0.6547852,0.765625,2,22,17,9,-3,-4,1,-13,-4,3,7,-11,-13,2,-15,3,1.5,1.5,1.5,1.6875,1.6875,1.6875,3.095428,4.861675,7.938696,6.140889,4.900464,8.959972,-0.290054,-0.005135844,1.496347,0.2660054,-0.009218463,1.501832,-0.02184213,0.4814195,1.694544,-0.2680602,0.07020333,1.477164,0.2512645,0.06233852,1.480842,-0.02524745,0.001770103,1.737519,-0.02936316,-0.3287302,1.736843,-0.1908558,0.2104618,1.724532,-0.1101839,-0.3217055,1.696242,-0.2575182,0.009500813,1.781373,0.1980307,-0.07763133,1.788352,NA,NA,Lasso,Lasso,
