ALX,ALY,ALZ,ARX,ARY,ARZ,EMG0L,EMG1L,EMG2L,EMG3L,EMG4L,EMG5L,EMG6L,EMG7L,EMG0R,EMG1R,EMG2R,EMG3R,EMG4R,EMG5R,EMG6R,EMG7R,GLX,GLY,GLZ,GRX,GRY,GRZ,ORL,OPL,OYL,ORR,OPR,OYR,LHNX,LHNY,LHNZ,RHNX,RHNY,RHNZ,HX,HY,HZ,LTX,LTY,LTZ,RTX,RTY,RTZ,SpineMidX,SpineMidY,SpineMidZ,SpineBaseX,SpineBaseY,SpineBaseZ,ShoulderLeftX,ShoulderLeftY,ShoulderLeftZ,ShoulderRightX,ShoulderRightY,ShoulderRightZ,ElbowLeftX,ElbowLeftY,ElbowLeftZ,ElbowRightX,ElbowRightY,ElbowRightZ,Myo_Pose_left,Myo_Pose_Right,Kinect_pose_left,Kinect_pose_right
0.9770508,-0.1816406,0.09716797,0.9624023,0.07763672,0.1660156,-1,-3,-1,0,0,1,-4,-2,1,-1,0,-1,-2,-2,2,0,-0.1875,-0.1875,-0.1875,0.5,0.5,0.5,3.243711,2.832958,7.461823,5.664682,2.810726,9.997563,-0.196944,-0.3926425,1.619707,0.1444304,-0.3912611,1.620066,-0.03214992,0.4804642,1.657253,-0.1491368,-0.3632586,1.592813,0.186848,-0.4216339,1.6268,-0.02976211,-0.0003924402,1.702794,-0.03026992,-0.3345997,1.703079,-0.2094021,0.1939785,1.67818,-0.1115211,-0.3270251,1.661252,-0.2378797,-0.0666649,1.684591,0.1694779,-0.07061804,1.704602,NA,NA,NotTracked,NotTracked,
0.9775391,-0.1811523,0.1000977,0.9614258,0.07128906,0.1694336,0,-1,-1,-2,-1,-2,-2,-4,0,-1,-1,0,-1,1,-7,-1,0.3125,0.3125,0.3125,0.8125,0.8125,0.8125,3.244922,2.833616,7.460575,5.663649,2.810737,9.999084,-0.1973385,-0.3919784,1.620742,0.1438479,-0.3910837,1.620884,-0.0325089,0.4804516,1.65771,-0.1485365,-0.3685673,1.593162,0.1823234,-0.3928353,1.614696,-0.03004904,-0.0003678685,1.703295,-0.03053773,-0.3344524,1.703519,-0.2096877,0.19417,1.67876,-0.1117352,-0.3268918,1.661619,-0.2382967,-0.06685489,1.685034,0.1693202,-0.07054435,1.704893,NA,NA,NotTracked,NotTracked,
0.9711914,-0.1875,0.09765625,0.9624023,0.07958984,0.1674805,-2,-2,0,-1,-1,-4,-1,-2,-3,0,-1,-2,0,1,12,-1,-0.9375,-0.9375,-0.9375,2,2,2,3.244957,2.832992,7.46058,5.661308,2.809789,0.004245058,-0.1977883,-0.3915224,1.62214,0.1434934,-0.3909817,1.622669,-0.03291779,0.4804082,1.658298,-0.1494824,-0.3757416,1.597006,0.1827406,-0.3929406,1.6172,-0.03043797,-0.0002247095,1.704005,-0.03091496,-0.33423,1.704188,-0.2100759,0.1942896,1.679595,-0.1120716,-0.3266747,1.662247,-0.238448,-0.06705364,1.685779,0.1690698,-0.07039477,1.705485,NA,NA,NotTracked,NotTracked,
0.9799805,-0.1889648,0.08642578,0.9677734,0.07617188,0.1640625,-1,-1,-1,-1,0,-1,0,-2,0,-1,-1,-2,-2,0,1,-2,0.25,0.25,0.25,0.8125,0.8125,0.8125,3.244957,2.832992,7.46058,5.662108,2.809121,0.006409111,-0.1982076,-0.3914821,1.623155,0.1437354,-0.3904847,1.623631,-0.03327103,0.4804475,1.658904,-0.1493986,-0.3635962,1.595214,0.1831881,-0.3928638,1.620952,-0.03070682,-0.000197033,1.704669,-0.03115334,-0.3341457,1.704893,-0.2104198,0.1942804,1.680459,-0.1122608,-0.3265704,1.662856,-0.2388173,-0.06677874,1.686518,0.1688246,-0.07035153,1.706021,NA,NA,NotTracked,NotTracked,
0.9726563,-0.1826172,0.09716797,0.9633789,0.07373047,0.1586914,0,-2,0,-2,-1,-1,-1,-1,0,-2,-3,-2,-3,0,-6,-1,-0.1875,-0.1875,-0.1875,-0.5625,-0.5625,-0.5625,3.244675,2.832914,7.46102,5.662344,2.808986,0.006119011,-0.1988636,-0.3922945,1.623924,0.1434255,-0.3906744,1.624132,-0.03354197,0.4803566,1.659813,-0.149678,-0.3686492,1.597121,0.1816293,-0.4148885,1.616917,-0.03111211,-0.0002737437,1.705541,-0.03166432,-0.3343074,1.705932,-0.2108128,0.1942598,1.681544,-0.1127692,-0.3267784,1.663876,-0.2390402,-0.0670516,1.687329,0.1687668,-0.07045761,1.706665,NA,NA,NotTracked,NotTracked,
0.9775391,-0.1835938,0.09619141,0.9638672,0.08642578,0.1640625,0,-1,0,-2,-1,-2,-3,-3,0,-1,-2,1,-1,-3,-4,-2,-0.125,-0.125,-0.125,1.25,1.25,1.25,3.244284,2.834087,7.459431,5.668119,2.809372,0.002931323,-0.1982081,-0.3948087,1.624641,0.1430998,-0.391195,1.626034,-0.03378545,0.4803139,1.660924,-0.1508281,-0.3806092,1.602938,0.1830115,-0.4128116,1.623182,-0.03143957,-0.0002596126,1.706793,-0.0319802,-0.3342637,1.707079,-0.2109221,0.1942969,1.682414,-0.1130648,-0.3266646,1.664951,-0.2392819,-0.06743623,1.688387,0.1686194,-0.07050019,1.707782,NA,NA,NotTracked,NotTracked,
0.9750977,-0.1928711,0.09521484,0.9633789,0.07470703,0.1708984,-1,1,0,-3,-1,0,1,-3,1,-2,-2,-2,-3,-4,-2,1,-1.875,-1.875,-1.875,-0.25,-0.25,-0.25,3.244198,2.834707,7.457421,5.667316,2.808713,0.00325911,-0.1994387,-0.3899451,1.627376,0.1426681,-0.3881803,1.627859,-0.03390515,0.4803206,1.662277,-0.1520819,-0.3511316,1.599077,0.1839057,-0.3937947,1.626357,-0.0314646,-0.0002547051,1.707911,-0.03223655,-0.3340527,1.708213,-0.210945,0.1944005,1.683459,-0.1133538,-0.3265418,1.666244,-0.2395597,-0.06700625,1.689369,0.1685079,-0.07047411,1.708982,NA,NA,NotTracked,NotTracked,
0.9707031,-0.1943359,0.09179688,0.9614258,0.07958984,0.1728516,1,1,-2,0,-1,-1,-1,0,-3,-1,-4,-2,1,-4,2,0,-1.3125,-1.3125,-1.3125,0.3125,0.3125,0.3125,3.242636,2.834967,7.45829,5.66782,2.80875,0.004256786,-0.1995116,-0.389031,1.62826,0.1425971,-0.3886585,1.629413,-0.0340361,0.4804958,1.66357,-0.1514963,-0.3637423,1.599743,0.1824148,-0.4087093,1.623464,-0.03159657,-0.0001426716,1.709057,-0.03237775,-0.3339564,1.709499,-0.2109396,0.1945116,1.684346,-0.1134777,-0.3264288,1.667555,-0.2395074,-0.06722324,1.690176,0.1685859,-0.07046491,1.710096,NA,NA,NotTracked,NotTracked,
0.9711914,-0.1894531,0.09667969,0.9594727,0.07714844,0.1733398,0,0,0,-2,-1,-3,-1,0,-1,0,0,-1,-2,1,1,-3,-0.9375,-0.9375,-0.9375,0.1875,0.1875,0.1875,3.242636,2.834967,7.45829,5.66782,2.80875,0.004256786,-0.1999826,-0.3870472,1.630001,0.1427776,-0.3892277,1.630548,-0.033996,0.4806165,1.66477,-0.1520762,-0.3844341,1.605257,0.1819439,-0.4124207,1.623688,-0.0315265,-8.458062E-05,1.710157,-0.03233213,-0.3338812,1.710567,-0.2108542,0.1944334,1.6855,-0.1134204,-0.3262901,1.66857,-0.2394186,-0.06748006,1.691344,0.1685611,-0.07031922,1.711393,NA,NA,NotTracked,NotTracked,
0.9702148,-0.1899414,0.09912109,0.9628906,0.07958984,0.1762695,0,0,-2,-1,-3,-4,-2,-1,-1,-4,-2,-1,-1,-1,-4,-1,-0.0625,-0.0625,-0.0625,1.4375,1.4375,1.4375,3.243873,2.835001,7.457056,5.666986,2.809513,0.00561308,-0.1997613,-0.3894838,1.630611,0.1433355,-0.3893588,1.631512,-0.03390089,0.4805692,1.666773,-0.1510342,-0.3803922,1.605514,0.1815272,-0.4200398,1.624778,-0.03157834,-0.0001404928,1.711593,-0.03227691,-0.3338825,1.71166,-0.2110188,0.1944711,1.687255,-0.1133722,-0.3263244,1.669675,-0.239571,-0.06760196,1.692807,0.1687008,-0.07039027,1.712727,NA,NA,NotTracked,NotTracked,
0.9711914,-0.1948242,0.1010742,0.9658203,0.08105469,0.1748047,-1,0,0,-2,-2,-2,-2,0,-1,-1,-1,0,-1,-1,-4,0,0.125,0.125,0.125,-0.375,-0.375,-0.375,3.244636,2.835789,7.456271,5.667814,2.809379,0.004985583,-0.1993651,-0.3900768,1.632162,0.1435839,-0.3892521,1.632864,-0.0338389,0.480613,1.667913,-0.1502598,-0.3786862,1.606489,0.1820259,-0.4200505,1.626628,-0.03145693,-0.0001692523,1.712832,-0.0322851,-0.333784,1.712854,-0.21101,0.1943043,1.688544,-0.1133557,-0.3262323,1.671273,-0.239535,-0.06739066,1.693938,0.16876,-0.07028835,1.71391,NA,NA,NotTracked,NotTracked,
0.9648438,-0.1875,0.08496094,0.9575195,0.07958984,0.175293,0,-3,-1,-1,1,0,1,2,0,-1,-1,-1,-2,0,-1,0,-0.3125,-0.3125,-0.3125,-0.5625,-0.5625,-0.5625,3.242962,2.835889,7.457957,5.668386,2.809541,0.00422413,-0.1986355,-0.3923648,1.631402,0.1439804,-0.3896977,1.632342,-0.03360827,0.4806097,1.668688,-0.1513686,-0.3705689,1.604574,0.182319,-0.4143293,1.625385,-0.03140127,-0.0001160642,1.713998,-0.03226463,-0.3337086,1.713874,-0.2109328,0.1942754,1.68908,-0.1133364,-0.326161,1.672327,-0.23945,-0.06726516,1.694682,0.1687975,-0.07024317,1.714515,NA,NA,NotTracked,NotTracked,
0.9692383,-0.190918,0.09667969,0.9560547,0.07568359,0.1640625,-7,-3,-2,0,0,1,0,2,0,0,-1,0,0,-9,-11,0,-0.375,-0.375,-0.375,-1.3125,-1.3125,-1.3125,3.244197,2.835923,7.456725,5.668022,2.809511,0.004086175,-0.1985652,-0.390514,1.633192,0.1447503,-0.3901889,1.634087,-0.03340939,0.4808163,1.669779,-0.1513292,-0.375473,1.606498,0.184981,-0.4130796,1.629869,-0.03098934,-0.0002150142,1.715162,-0.03204873,-0.3337083,1.71511,-0.2106102,0.1943375,1.690026,-0.1130954,-0.3260779,1.673483,-0.239027,-0.06740439,1.696025,0.1690873,-0.0700978,1.71596,NA,NA,NotTracked,NotTracked,
0.9838867,-0.1943359,0.09521484,0.9614258,0.08007813,0.1704102,0,-3,-1,-1,0,-2,-1,-1,-1,0,-1,-2,-1,-2,-1,-1,0.5625,0.5625,0.5625,-1.0625,-1.0625,-1.0625,3.243758,2.836057,7.457178,5.668137,2.80921,0.003360486,-0.1979379,-0.3927794,1.632961,0.1448173,-0.3902982,1.634737,-0.03320748,0.4806032,1.670321,-0.1514479,-0.3693482,1.60605,0.1876831,-0.4209449,1.637833,-0.03066277,-0.0003255358,1.715958,-0.03183322,-0.3337467,1.71598,-0.2104831,0.1943858,1.690955,-0.1128689,-0.3261006,1.674469,-0.2388415,-0.06763832,1.697071,0.169294,-0.07005111,1.717034,NA,NA,NotTracked,NotTracked,
0.9736328,-0.1982422,0.09472656,0.9624023,0.07177734,0.1787109,1,-1,-1,-1,0,0,-2,-1,-2,2,-1,0,0,-3,-7,-1,-0.25,-0.25,-0.25,-2.0625,-2.0625,-2.0625,3.243127,2.837018,7.457642,5.656476,2.808434,0.01103091,-0.1979399,-0.3934314,1.633496,0.1453038,-0.3913364,1.635487,-0.03292279,0.4804717,1.670795,-0.1506484,-0.3728804,1.606985,0.188255,-0.4166396,1.637965,-0.03035194,-0.000537419,1.716689,-0.03156702,-0.3338726,1.716757,-0.2101615,0.1944254,1.691669,-0.1126232,-0.3263094,1.675364,-0.2386016,-0.06758237,1.697719,0.1694551,-0.07018158,1.717888,NA,NA,NotTracked,NotTracked,
0.9765625,-0.1899414,0.09082031,0.9624023,0.08203125,0.1743164,-2,0,-1,-1,-1,-4,-2,-3,-2,1,-1,-2,-2,3,-2,-1,2.3125,2.3125,2.3125,1.3125,1.3125,1.3125,3.242101,2.835977,7.460988,5.650414,2.805108,0.01881521,-0.1973379,-0.3912143,1.634034,0.1457819,-0.3902246,1.637147,-0.03260916,0.4805159,1.67113,-0.1515972,-0.3705637,1.606523,0.1883747,-0.4218222,1.641143,-0.029972,-0.0005214447,1.717354,-0.03118507,-0.3339298,1.717516,-0.2098766,0.1944255,1.69229,-0.1122706,-0.3263943,1.676085,-0.2383597,-0.06731969,1.698361,0.1696732,-0.07015388,1.718647,NA,NA,NotTracked,NotTracked,
0.9741211,-0.1787109,0.08447266,0.9677734,0.08105469,0.1762695,-2,-2,-2,0,-1,0,-1,0,7,0,1,-1,-1,-1,-6,0,2.8125,2.8125,2.8125,-0.6875,-0.6875,-0.6875,3.245517,2.834097,7.4637,5.653528,2.806237,0.01735623,-0.1988903,-0.3819331,1.637022,0.1460196,-0.3906165,1.637832,-0.03239106,0.4806904,1.671396,-0.1515882,-0.3679428,1.608713,0.1864752,-0.4104284,1.633867,-0.02957575,-0.0004978952,1.71795,-0.03088258,-0.3339011,1.718208,-0.2093986,0.1946122,1.692835,-0.1119793,-0.3263782,1.676752,-0.2380939,-0.06725015,1.698945,0.1697969,-0.07032605,1.719321,NA,NA,NotTracked,NotTracked,
0.9794922,-0.1943359,0.09912109,1.025879,0.07324219,0.1933594,-3,-1,-7,0,1,0,-1,-1,-27,-45,-35,-49,-9,-5,-2,-1,0.3125,0.3125,0.3125,1.5,1.5,1.5,3.246792,2.83375,7.463277,5.643003,2.811339,0.02883141,-0.1988966,-0.3819737,1.635938,0.1457581,-0.3903773,1.63578,-0.03219322,0.4807275,1.671572,-0.1520418,-0.3622449,1.608391,0.1863244,-0.4108927,1.633206,-0.02942197,-0.000493553,1.718257,-0.03073504,-0.3338751,1.718621,-0.2090906,0.1945748,1.693199,-0.111832,-0.3263632,1.677169,-0.2377645,-0.06701678,1.699576,0.1698823,-0.07040186,1.71958,NA,NA,NotTracked,NotTracked,
1.196777,-0.1845703,-0.06787109,1.232422,-0.1679688,0.2036133,6,-11,-5,9,39,16,6,45,-13,-19,-38,-11,0,-1,-11,10,51,51,51,40.875,40.875,40.875,3.263247,2.882983,7.489721,5.600965,2.891485,0.104654,-0.1922417,-0.3833943,1.624227,0.1422513,-0.3902518,1.625675,-0.03204873,0.4806602,1.671861,-0.1502768,-0.3769015,1.596227,0.1822739,-0.4052278,1.618588,-0.02934992,-0.0004793249,1.718381,-0.03060549,-0.3338492,1.718628,-0.2086578,0.1946654,1.693841,-0.1117155,-0.3263237,1.677125,-0.2380316,-0.06608564,1.702132,0.170416,-0.06932227,1.721632,NA,NA,NotTracked,NotTracked,
1.266113,-0.25,0.1542969,1.379395,0.5175781,0.769043,47,53,64,46,87,21,23,-1,-1,-18,-3,-27,3,10,16,0,-102.75,-102.75,-102.75,112.5,112.5,112.5,3.400486,3.072113,7.276602,5.781055,3.325689,0.1813861,-0.1751235,-0.3297666,1.579924,0.1231903,-0.343453,1.582125,-0.031899,0.4805996,1.672106,-0.1436418,-0.3131863,1.536184,0.11542,-0.3855512,1.599808,-0.02917245,-0.0004973626,1.718131,-0.03021604,-0.333647,1.717608,-0.2083565,0.1950612,1.695436,-0.1115036,-0.3263377,1.676265,-0.2418363,-0.05662044,1.716043,0.1724824,-0.05916468,1.733331,NA,NA,NotTracked,NotTracked,
0.921875,-1.030762,0.7285156,0.4511719,0.2617188,0.7016602,-53,-36,-50,-19,-40,-26,-34,-26,-17,-5,8,-10,-3,-28,-5,-11,-42.625,-42.625,-42.625,25.25,25.25,25.25,3.37205,3.530495,7.144475,5.793512,3.949227,0.1865854,-0.1292719,-0.2314939,1.557399,0.07270718,-0.2463861,1.565876,-0.03177335,0.4805505,1.671965,-0.1131797,-0.3030686,1.5656,0.08065965,-0.3245187,1.581738,-0.02910432,-0.0005119583,1.718036,-0.03020551,-0.3336132,1.717398,-0.2062906,0.1966652,1.698832,-0.111433,-0.3262691,1.676021,-0.247535,-0.03481084,1.731349,0.1770864,-0.04066526,1.744692,NA,NA,Unknown,Unknown,
0.4145508,-0.7573242,0.4584961,-0.02001953,0.3847656,0.3959961,11,20,-8,67,7,-1,26,16,15,9,-2,-4,3,-5,39,-7,15.625,15.625,15.625,37.75,37.75,37.75,3.388263,3.894829,7.139068,5.83992,4.369201,0.2383545,-0.1175641,-0.1442197,1.526465,0.05494769,-0.1518501,1.543965,-0.03141081,0.4803047,1.671656,-0.17461,-0.1380973,1.47648,0.0681239,-0.2277277,1.575721,-0.0291598,-0.0005102365,1.718206,-0.03086492,-0.3330633,1.71813,-0.2050175,0.1990028,1.700795,-0.1117425,-0.3257905,1.676632,-0.2465072,-0.01232853,1.740927,0.1790601,-0.02716665,1.746476,NA,NA,NotTracked,NotTracked,
0.15625,-0.5913086,0.2485352,0.06640625,0.3583984,0.6005859,-12,9,9,-1,5,-4,6,-8,-5,-12,-9,-8,-8,-5,-23,6,-3.5625,-3.5625,-3.5625,22.125,22.125,22.125,3.334509,4.589544,7.170527,5.869743,4.63569,0.2988704,-0.100674,-0.07176288,1.520792,0.04030458,-0.09574301,1.53177,-0.03098802,0.4800217,1.671856,-0.1348585,-0.1025553,1.433789,0.04882092,-0.1308555,1.4559,-0.0291528,-0.000555308,1.719208,-0.03161871,-0.3324261,1.720004,-0.203232,0.2009116,1.701877,-0.1120791,-0.3252276,1.678512,-0.2450736,-0.01361675,1.729491,0.180595,-0.02311961,1.741378,NA,NA,NotTracked,NotTracked,
0.2729492,-0.7929688,0.4511719,0.2124023,0.4975586,0.7617188,-19,-18,10,-9,5,15,-7,-44,3,0,-13,-2,2,-8,-6,1,-14.375,-14.375,-14.375,5.375,5.375,5.375,3.329225,4.782012,7.118368,5.901684,4.758323,0.3615769,-0.09286615,-0.05164687,1.521472,0.03284862,-0.07737947,1.519269,-0.03025214,0.4796993,1.673561,-0.1235516,-0.08706015,1.429182,0.033388,-0.1049004,1.440689,-0.02921845,-0.0004109833,1.720671,-0.0320268,-0.3320225,1.721279,-0.2020286,0.2013928,1.703506,-0.1124199,-0.3245583,1.67989,-0.2968647,-0.03099869,1.703257,0.2350493,-0.03239079,1.726782,NA,NA,NotTracked,NotTracked,
0.2807617,-0.7900391,0.5009766,0.2827148,0.5097656,0.8427734,21,26,-10,0,2,-8,-2,59,-10,-12,-12,-9,-9,19,-21,-13,-10.125,-10.125,-10.125,17.4375,17.4375,17.4375,3.332574,4.753633,7.084186,5.914591,4.76737,0.3878712,-0.09587552,-0.06327339,1.517857,0.02706016,-0.07484851,1.504263,-0.02927002,0.4795803,1.676018,-0.1163547,-0.09102547,1.426083,0.02136862,-0.1009145,1.433714,-0.02915947,-0.0003769441,1.721706,-0.03210688,-0.3317682,1.721701,-0.2012066,0.2012919,1.704123,-0.1124531,-0.3243327,1.680269,-0.2993974,-0.03313811,1.699705,0.178012,-0.02649966,1.713036,NA,NA,NotTracked,NotTracked,
0.1933594,-0.9233398,0.5395508,0.2324219,0.5668945,0.8300781,8,36,-22,-10,-6,-12,-58,-32,3,-5,9,6,-1,10,23,3,10.625,10.625,10.625,-0.9375,-0.9375,-0.9375,3.331874,4.721005,7.057769,5.925512,4.760174,0.400169,-0.08940338,-0.05703975,1.510367,0.02055387,-0.0764026,1.502468,-0.02832748,0.4798818,1.678413,-0.06920324,-0.0872482,1.42525,0.01570091,-0.1004073,1.431864,-0.02907208,-3.089193E-05,1.722532,-0.03211885,-0.3313105,1.722096,-0.2005557,0.2014631,1.70448,-0.1123901,-0.3238063,1.680677,-0.2988988,-0.03196297,1.69957,0.17753,-0.02658485,1.711631,NA,NA,NotTracked,NotTracked,
0.1293945,-0.8818359,0.5039063,0.1547852,0.5136719,0.8300781,15,-72,12,3,-5,-3,-7,35,-16,0,-2,4,2,-7,3,-3,-4.5,-4.5,-4.5,2.1875,2.1875,2.1875,3.342199,4.708579,7.042389,5.917255,4.755397,0.4097745,-0.09140763,-0.07143913,1.515238,0.02358859,-0.07337915,1.492223,-0.02763972,0.4801024,1.679643,-0.09016566,0.008235131,1.4496,0.01996438,-0.09957433,1.427903,-0.02902485,0.0003010256,1.722699,-0.03223587,-0.330899,1.722343,-0.2002453,0.2019457,1.70453,-0.1124602,-0.3233216,1.681012,-0.2966293,-0.02924896,1.698243,0.1769047,-0.02663072,1.709621,NA,NA,NotTracked,NotTracked,
0.1635742,-0.8608398,0.4931641,0.1469727,0.5405273,0.8549805,-27,10,-95,1,-1,-8,7,-6,-8,-13,2,3,4,14,0,7,9.6875,9.6875,9.6875,-15.5625,-15.5625,-15.5625,3.351823,4.699397,7.040283,5.917475,4.749503,0.4142399,-0.08651386,-0.07358363,1.515454,0.0204189,-0.0695818,1.494965,-0.0271153,0.4802137,1.680576,-0.08964095,0.006190006,1.449629,0.0198213,-0.09965749,1.428057,-0.02901147,0.0004759378,1.723172,-0.03225589,-0.3308018,1.722568,-0.1997402,0.2015766,1.705093,-0.1124804,-0.3232648,1.681268,-0.2950086,-0.02732708,1.699059,0.1764583,-0.02667403,1.70861,NA,NA,NotTracked,NotTracked,
0.159668,-0.8852539,0.5014648,0.1518555,0.5180664,0.8574219,4,14,24,1,2,8,28,16,-10,-14,0,1,-1,23,-9,-2,6.25,6.25,6.25,3.8125,3.8125,3.8125,3.359128,4.693685,7.037416,5.911375,4.748417,0.4142078,-0.08629815,-0.07757453,1.518441,0.01996427,-0.07262319,1.49279,-0.02688972,0.4802687,1.681041,-0.08784803,0.006087094,1.447542,0.01810965,-0.1019183,1.429771,-0.02906949,0.0006135314,1.723235,-0.03247991,-0.3306039,1.722744,-0.1995004,0.2016294,1.705281,-0.1126934,-0.3229696,1.6815,-0.294967,-0.02763174,1.701289,0.175794,-0.02679539,1.707578,NA,NA,NotTracked,NotTracked,
0.1494141,-0.8530273,0.4907227,0.1455078,0.5048828,0.8305664,0,5,-1,-2,-2,2,-1,-32,9,6,10,-1,-2,5,5,15,3.5625,3.5625,3.5625,-6.875,-6.875,-6.875,3.367231,4.688059,7.030705,5.903377,4.74305,0.41033,-0.08388742,-0.07876795,1.520872,0.02043347,-0.07633267,1.479361,-0.02677862,0.4802663,1.681115,-0.08581732,0.00377435,1.453783,0.0167758,-0.1034272,1.428411,-0.02915668,0.0006756099,1.723276,-0.03264359,-0.3305531,1.722888,-0.19915,0.2013721,1.705557,-0.112867,-0.3229505,1.681696,-0.2943778,-0.02801769,1.70082,0.1753121,-0.02685381,1.707205,NA,NA,NotTracked,NotTracked,
0.1850586,-0.8852539,0.5004883,0.1889648,0.5786133,0.8701172,-16,-5,-7,0,2,0,-35,-32,22,-7,-10,-5,0,-20,-35,-21,4,4,4,-3.375,-3.375,-3.375,3.37152,4.679175,7.024073,5.89839,4.738494,0.3967331,-0.08022664,-0.07867727,1.520901,0.02003967,-0.0771689,1.476549,-0.02664201,0.480275,1.681169,-0.08383139,0.003863289,1.438765,0.01272177,-0.004001513,1.442235,-0.02913668,0.0007641871,1.723095,-0.0327441,-0.3304757,1.722966,-0.1988155,0.2011514,1.705583,-0.1129705,-0.322885,1.68181,-0.2939557,-0.02786462,1.698427,0.1749766,-0.02692171,1.706833,NA,NA,NotTracked,NotTracked,
0.2207031,-0.9135742,0.5136719,0.2255859,0.7143555,0.8544922,-8,-31,-55,-9,-9,-5,-7,-9,3,-11,-18,-4,-1,4,-1,-12,-1.875,-1.875,-1.875,5,5,5,3.372233,4.675818,7.019626,5.91868,4.747564,0.3671909,-0.08163299,-0.0780549,1.523464,0.02059418,-0.07350502,1.482606,-0.0263626,0.4803492,1.681323,-0.08668853,0.005882203,1.444808,0.01588952,0.001613561,1.438753,-0.02914933,0.0008368802,1.723303,-0.03287894,-0.330297,1.723154,-0.1985276,0.2013135,1.705511,-0.1131028,-0.3225922,1.682021,-0.293839,-0.02757364,1.699025,0.1747456,-0.02699212,1.706947,NA,NA,NotTracked,NotTracked,
0.3803711,-1.049316,0.4003906,0.3037109,0.8393555,0.7895508,-1,-32,-4,0,9,10,0,1,-10,2,8,2,-3,-1,-32,2,-17.25,-17.25,-17.25,17.1875,17.1875,17.1875,3.322612,4.697098,7.054003,5.980236,4.780517,0.286547,-0.0904238,-0.06775697,1.526342,0.03597474,-0.06590266,1.47902,-0.02622407,0.4803911,1.681334,-0.09789737,0.0159029,1.451579,0.09285747,-0.05464018,1.483921,-0.02921055,0.0008605806,1.723328,-0.03293621,-0.3302547,1.723143,-0.1983484,0.201085,1.705494,-0.1131389,-0.3225465,1.682,-0.2954473,-0.02924606,1.697772,0.1746659,-0.02694644,1.706706,NA,NA,NotTracked,NotTracked,
0.2866211,-0.878418,0.3266602,0.1928711,0.6650391,0.703125,1,-10,-28,3,-1,-7,-2,-19,4,-8,-15,-3,-7,0,-11,4,-23.625,-23.625,-23.625,29.3125,29.3125,29.3125,3.227234,4.736942,7.181124,6.068501,4.862575,0.08469189,-0.1177168,-0.04799769,1.506088,0.08587434,-0.03222059,1.440999,-0.02609564,0.4804561,1.681288,-0.1241665,0.04561878,1.44325,0.07404969,0.03786554,1.442059,-0.02921779,0.0009766527,1.723337,-0.0328363,-0.329837,1.723016,-0.1982914,0.2017991,1.705193,-0.1129654,-0.3221221,1.681839,-0.2561848,-0.01287104,1.708363,0.1872141,-0.02342743,1.700795,NA,NA,Lasso,NotTracked,
0.2055664,-0.8291016,0.3647461,0.140625,0.5288086,0.7177734,4,13,1,5,0,-5,7,18,1,7,-1,-2,-2,-16,-14,-2,-38.5,-38.5,-38.5,34.5,34.5,34.5,3.17232,4.746539,7.290116,6.114015,4.896959,9.947885,-0.1908109,-0.04258759,1.429618,0.1262999,-0.02244101,1.416169,-0.02597515,0.4806469,1.681128,-0.1841016,-0.06321016,1.413375,0.136628,0.006340842,1.390333,-0.02921712,0.0009805025,1.723315,-0.03285902,-0.3298428,1.722984,-0.1986404,0.2030032,1.704799,-0.1129989,-0.3221098,1.681587,-0.2755981,-0.005186872,1.709198,0.1959887,-0.02051688,1.691755,NA,NA,Lasso,Unknown,
0.1220703,-0.8178711,0.5053711,0.08886719,0.5722656,0.824707,14,27,-45,-3,-7,4,-26,32,4,4,1,0,-4,-5,1,-8,-37,-37,-37,29.625,29.625,29.625,3.040768,4.714844,7.568461,6.212939,4.901901,9.652185,-0.2441271,-0.026381,1.467874,0.1901599,-0.01119522,1.442584,-0.02606754,0.4808369,1.680392,-0.268357,-0.06857502,1.444033,0.1772514,0.04624763,1.459429,-0.02937674,0.001041888,1.72307,-0.03298226,-0.3300207,1.722564,-0.198705,0.2036771,1.704743,-0.1132647,-0.3223296,1.680902,-0.2931061,0.008830625,1.737831,0.1738631,-0.01767469,1.76519,NA,NA,Lasso,Lasso,
0.1210938,-0.8950195,0.5322266,-0.02148438,0.5405273,0.8833008,2,-13,-1,-5,-6,1,8,-3,6,-3,-10,-4,2,0,2,-6,-26.6875,-26.6875,-26.6875,39.875,39.875,39.875,2.963269,4.644004,7.775938,6.247785,4.846694,9.475282,-0.2766645,-0.03506382,1.477288,0.2254189,-0.007979177,1.459367,-0.02623371,0.4809698,1.678661,-0.293345,-0.07964225,1.442849,0.2084946,0.06823502,1.440222,-0.02974819,0.001043987,1.72241,-0.03334903,-0.3300782,1.721976,-0.1981702,0.2055752,1.703966,-0.1137681,-0.3223861,1.680107,-0.2958385,0.01725509,1.7519,0.2040855,-0.06005186,1.753054,NA,NA,Lasso,Unknown,
0.09423828,-0.9248047,0.4624023,-0.02783203,0.6010742,0.8276367,-14,-16,9,-18,8,6,-1,-19,1,-11,-5,3,8,13,-32,-1,-6.4375,-6.4375,-6.4375,6.4375,6.4375,6.4375,2.953629,4.612902,7.81639,6.25899,4.826652,9.413409,-0.2844208,-0.04138954,1.486662,0.240376,-0.01283276,1.471772,-0.02666978,0.4808919,1.677266,-0.3037596,-0.08553644,1.452344,0.221611,0.06122809,1.445895,-0.02996623,0.0009676182,1.721706,-0.03362438,-0.3301682,1.721455,-0.1979535,0.206757,1.703939,-0.114103,-0.3224748,1.679544,-0.294447,0.02081625,1.759485,0.2124793,-0.05609101,1.746867,NA,NA,Lasso,Lasso,
0.190918,-0.9350586,0.3139648,0.06005859,0.7045898,0.7265625,11,46,0,-6,-3,4,-8,-32,-3,-6,-4,-2,3,3,-3,-4,0.1875,0.1875,0.1875,-3.5,-3.5,-3.5,2.955824,4.599267,7.830207,6.257689,4.816833,9.375642,-0.2852811,-0.04335636,1.490692,0.2464636,-0.01550585,1.477838,-0.02709354,0.4807199,1.675238,-0.3013973,-0.09019274,1.45604,0.2297649,0.05860062,1.45228,-0.03008282,0.0007885086,1.721017,-0.03366998,-0.3303758,1.721081,-0.1976044,0.2061731,1.704202,-0.1142371,-0.322691,1.67898,-0.2938581,0.02248904,1.765155,0.2124759,-0.06022287,1.752828,NA,NA,Lasso,Lasso,
0.1889648,-0.9501953,0.2836914,0.08300781,0.7363281,0.7094727,4,-1,35,10,12,17,18,12,10,-7,-5,-7,-1,44,15,7,14.1875,14.1875,14.1875,-7.375,-7.375,-7.375,2.969023,4.602956,7.844147,6.245927,4.806066,9.352219,-0.2858304,-0.04213078,1.491578,0.247647,-0.01932351,1.480862,-0.02739291,0.4807206,1.673978,-0.3215879,-0.07606444,1.463667,0.2298935,0.05603248,1.456526,-0.03027259,0.0008158322,1.720615,-0.03382747,-0.3303535,1.720857,-0.1970516,0.2072785,1.703597,-0.1144357,-0.3226065,1.678747,-0.2930325,0.02497593,1.767852,0.2068319,-0.05875686,1.775941,NA,NA,Lasso,Lasso,
0.2041016,-0.9892578,0.2963867,0.09130859,0.7275391,0.722168,-21,5,-24,-1,6,24,8,-15,-5,-12,-2,3,1,-10,-9,-2,4.1875,4.1875,4.1875,-3.9375,-3.9375,-3.9375,2.975136,4.60783,7.850918,6.237809,4.792221,9.355075,-0.2847592,-0.04255334,1.490433,0.2464002,-0.02270161,1.48067,-0.02759272,0.4805981,1.673202,-0.2974072,-0.09079287,1.453615,0.2291512,0.05247363,1.452316,-0.03045938,0.0008845063,1.720336,-0.03393992,-0.3302501,1.720664,-0.1968455,0.2079937,1.703309,-0.1145925,-0.3223725,1.67847,-0.2904736,0.02567034,1.770157,0.2001808,-0.009930514,1.771292,NA,NA,Lasso,Lasso,
0.2202148,-0.9458008,0.3007813,0.1347656,0.7353516,0.7324219,-1,3,32,-1,-1,0,-6,-10,24,-9,-2,-3,-1,-9,-6,-4,1,1,1,-4.4375,-4.4375,-4.4375,2.985927,4.611228,7.832892,6.234283,4.782495,9.364923,-0.2819447,-0.04406527,1.491377,0.2439897,-0.0261985,1.482102,-0.02769466,0.480653,1.673071,-0.2999294,-0.08842666,1.457719,0.2274074,0.05100498,1.453254,-0.03052345,0.0009375532,1.720244,-0.03405738,-0.3301232,1.720576,-0.1966365,0.2087487,1.703299,-0.1147461,-0.3221276,1.678343,-0.2896493,0.02625732,1.770493,0.2039487,-0.06088221,1.765435,NA,NA,Lasso,Lasso,
0.2412109,-0.9389648,0.2841797,0.1362305,0.7431641,0.7197266,1,1,3,8,-2,-14,-11,4,-5,-8,-5,12,14,-9,3,10,-0.75,-0.75,-0.75,-3.6875,-3.6875,-3.6875,2.990304,4.621082,7.816445,6.230929,4.784865,9.375442,-0.2789491,-0.04342602,1.490174,0.2418778,-0.026223,1.482428,-0.02784652,0.4806567,1.673275,-0.2919963,-0.09064051,1.45268,0.2258445,0.05310529,1.452319,-0.03057214,0.0009599926,1.720227,-0.03412192,-0.3300577,1.720583,-0.1965425,0.2091149,1.703487,-0.1148631,-0.3219545,1.678249,-0.2888061,0.02631243,1.770862,0.2031278,-0.06123087,1.773234,NA,NA,Lasso,Lasso,
0.262207,-0.9482422,0.2944336,0.121582,0.7060547,0.6972656,-1,4,9,-1,1,5,0,0,24,4,-1,1,4,4,38,-1,1.375,1.375,1.375,2.375,2.375,2.375,2.99527,4.628876,7.808557,6.227009,4.790644,9.380377,-0.2774746,-0.04246371,1.488365,0.2397208,-0.0266665,1.48225,-0.02794879,0.4806561,1.673401,-0.2954635,-0.08880816,1.452624,0.2241723,0.0506647,1.454396,-0.03069411,0.001015447,1.720306,-0.03418907,-0.3300061,1.720623,-0.1965059,0.2095054,1.703734,-0.1149305,-0.3218769,1.678266,-0.2880905,0.02638861,1.771202,0.1998759,-0.06237249,1.779837,NA,NA,Lasso,Lasso,
0.2529297,-0.9619141,0.2958984,0.1152344,0.6777344,0.6972656,-9,-14,-46,-8,-1,0,-5,-20,-14,-23,-14,0,3,9,15,11,1.25,1.25,1.25,-6.25,-6.25,-6.25,2.997698,4.631419,7.800702,6.222,4.794168,9.38562,-0.2745805,-0.04227032,1.488344,0.2388584,-0.02665287,1.481383,-0.02801177,0.4806357,1.673596,-0.2893403,-0.08814186,1.451442,0.22224,0.04849736,1.457156,-0.03077688,0.0009805999,1.720377,-0.03425913,-0.3301129,1.720647,-0.1964241,0.2089586,1.70415,-0.1149974,-0.3219693,1.678255,-0.2881308,0.02563687,1.771059,0.1995594,-0.06160895,1.779075,NA,NA,Lasso,Lasso,
