ALX,ALY,ALZ,ARX,ARY,ARZ,EMG0L,EMG1L,EMG2L,EMG3L,EMG4L,EMG5L,EMG6L,EMG7L,EMG0R,EMG1R,EMG2R,EMG3R,EMG4R,EMG5R,EMG6R,EMG7R,GLX,GLY,GLZ,GRX,GRY,GRZ,ORL,OPL,OYL,ORR,OPR,OYR,LHNX,LHNY,LHNZ,RHNX,RHNY,RHNZ,HX,HY,HZ,LTX,LTY,LTZ,RTX,RTY,RTZ,SpineMidX,SpineMidY,SpineMidZ,SpineBaseX,SpineBaseY,SpineBaseZ,ShoulderLeftX,ShoulderLeftY,ShoulderLeftZ,ShoulderRightX,ShoulderRightY,ShoulderRightZ,ElbowLeftX,ElbowLeftY,ElbowLeftZ,ElbowRightX,ElbowRightY,ElbowRightZ,Myo_Pose_left,Myo_Pose_Right,Kinect_pose_left,Kinect_pose_right
0.9702148,-0.2094727,0.1074219,0.9648438,0.09082031,0.2099609,-2,-7,1,0,-1,0,-2,-1,2,-2,2,0,-1,-4,-3,1,-1.4375,-1.4375,-1.4375,1.125,1.125,1.125,3.258205,2.869812,7.61937,5.619176,2.858945,0.1626393,-0.1969198,-0.3878939,1.648651,0.1394968,-0.3847677,1.639244,-0.03183733,0.4861884,1.683248,-0.1501741,-0.3720645,1.62028,0.09202816,-0.3984556,1.608514,-0.02794165,0.002937071,1.728691,-0.02994513,-0.3324886,1.730591,-0.2069211,0.1966508,1.704413,-0.1112949,-0.3252032,1.689965,-0.2362463,-0.06624644,1.718858,0.1714544,-0.06981944,1.72617,NA,NA,NotTracked,NotTracked,
0.9731445,-0.2119141,0.1054688,0.9487305,0.07910156,0.2006836,-4,-17,-3,-2,0,-1,0,0,-14,-4,-3,-1,-1,3,-1,-4,-0.5,-0.5,-0.5,-0.5,-0.5,-0.5,3.258205,2.869812,7.61937,5.61907,2.859423,0.1625241,-0.1979606,-0.3869589,1.648284,0.1396569,-0.385121,1.639613,-0.0316231,0.4860765,1.683389,-0.1512102,-0.3819855,1.621429,0.09450248,-0.367198,1.609745,-0.02769778,0.002905116,1.728816,-0.02975259,-0.3325421,1.730698,-0.2067198,0.1967026,1.704773,-0.1110887,-0.3252564,1.690128,-0.2360274,-0.06670352,1.719294,0.1715139,-0.07004314,1.726395,NA,NA,NotTracked,NotTracked,
0.9716797,-0.2080078,0.1049805,0.956543,0.0859375,0.203125,2,2,0,-1,-2,-2,-3,-3,3,0,-2,-1,0,6,4,-1,0.9375,0.9375,0.9375,2,2,2,3.255945,2.871422,7.618371,5.625299,2.859582,0.1587597,-0.197787,-0.3868391,1.64865,0.140227,-0.3845538,1.640947,-0.03141213,0.4859586,1.683631,-0.1513459,-0.3731419,1.620231,0.09539245,-0.3625062,1.610055,-0.02746999,0.002898518,1.728972,-0.02954507,-0.3325236,1.730833,-0.2065107,0.1967087,1.705152,-0.1108991,-0.325247,1.690295,-0.2357947,-0.06667054,1.719573,0.1716797,-0.07011987,1.72651,NA,NA,NotTracked,NotTracked,
0.9658203,-0.1962891,0.1040039,0.9619141,0.05419922,0.1958008,2,-2,-1,-2,-3,-2,-3,-3,0,-2,-1,-1,0,-1,-15,-1,2.125,2.125,2.125,-0.75,-0.75,-0.75,3.254247,2.871751,7.623535,5.620257,2.858711,0.1627149,-0.1968641,-0.3935773,1.648612,0.1401446,-0.3849016,1.640845,-0.03130402,0.4859337,1.683663,-0.1505058,-0.3788372,1.62102,0.0926681,-0.3940677,1.6085,-0.02724635,0.002871846,1.729142,-0.02937913,-0.3325845,1.730983,-0.2063779,0.196769,1.705444,-0.1107589,-0.3252769,1.690401,-0.2356174,-0.06669229,1.719827,0.1717336,-0.07013437,1.726554,NA,NA,NotTracked,NotTracked,
0.9658203,-0.1962891,0.1040039,0.9580078,0.07763672,0.1923828,-2,-1,1,-1,-1,-1,-1,-2,-2,0,-1,-1,-4,-8,3,-1,2.125,2.125,2.125,1.125,1.125,1.125,3.254247,2.871751,7.623535,5.615053,2.858505,0.170941,-0.1980343,-0.3872151,1.648372,0.1404165,-0.384729,1.639262,-0.03121579,0.4858249,1.683607,-0.151436,-0.3718899,1.620729,0.09624128,-0.3619607,1.60892,-0.0270561,0.002822933,1.729271,-0.02923746,-0.3326264,1.731102,-0.2062645,0.1967752,1.70571,-0.1106113,-0.3252926,1.690587,-0.2355389,-0.06663194,1.720015,0.1717491,-0.0701739,1.726585,NA,NA,NotTracked,NotTracked,
0.9624023,-0.203125,0.109375,0.9663086,0.07275391,0.1953125,-2,-9,-2,-2,-1,-1,-2,-1,4,-1,0,-3,-8,6,5,1,0.9375,0.9375,0.9375,-2.9375,-2.9375,-2.9375,3.253852,2.869981,7.627762,5.60216,2.86011,0.179135,-0.1982817,-0.3874471,1.650193,0.1401291,-0.384405,1.639888,-0.03115971,0.4857505,1.683683,-0.1514124,-0.3713976,1.621266,0.09471048,-0.3749914,1.609217,-0.02699781,0.002752671,1.729376,-0.0291799,-0.3326761,1.731225,-0.2061165,0.1967383,1.706086,-0.1105398,-0.3253715,1.690731,-0.2353491,-0.06691097,1.720474,0.1718378,-0.07020377,1.72666,NA,NA,NotTracked,NotTracked,
0.9672852,-0.215332,0.1079102,0.9536133,0.09765625,0.2089844,-5,-4,-2,2,1,-1,-1,3,-2,-2,-2,-2,-2,12,-3,-1,0.125,0.125,0.125,-1.4375,-1.4375,-1.4375,3.252489,2.86876,7.628911,5.600068,2.861228,0.1797469,-0.1984886,-0.385105,1.650503,0.1398445,-0.3846613,1.640101,-0.03110718,0.4856489,1.683727,-0.1518506,-0.3660412,1.620973,0.09400403,-0.3859852,1.609786,-0.02690067,0.002723158,1.729439,-0.02916579,-0.3326952,1.73129,-0.2060593,0.1967654,1.706367,-0.1105238,-0.3253742,1.690819,-0.2352136,-0.06684777,1.720802,0.1719533,-0.07016705,1.72684,NA,NA,NotTracked,NotTracked,
0.9682617,-0.2216797,0.1049805,0.9570313,0.0859375,0.2124023,2,-2,1,-2,0,-1,-2,-4,-5,0,1,-1,-1,2,2,-3,-1.25,-1.25,-1.25,0.125,0.125,0.125,3.24524,2.868861,7.634913,5.603642,2.862846,0.1757485,-0.1986973,-0.3847204,1.650238,0.1397141,-0.3852163,1.639984,-0.03100464,0.485615,1.683713,-0.1515738,-0.3711917,1.621172,0.09440678,-0.3792607,1.609741,-0.0267894,0.002682179,1.729454,-0.02913704,-0.3327143,1.731303,-0.206037,0.1967423,1.706451,-0.1104982,-0.3253778,1.69084,-0.2351973,-0.06689461,1.720853,0.17196,-0.07018141,1.726923,NA,NA,NotTracked,NotTracked,
0.9667969,-0.2207031,0.1049805,0.9614258,0.07568359,0.2094727,0,4,0,0,-1,0,-1,0,0,1,1,0,-3,-4,-8,-3,-1.6875,-1.6875,-1.6875,0.4375,0.4375,0.4375,3.245056,2.869546,7.63425,5.60385,2.869464,0.1762241,-0.1977799,-0.388447,1.649882,0.1398649,-0.38484,1.639749,-0.03088444,0.4856111,1.684001,-0.1514618,-0.3706973,1.62287,0.09518079,-0.3701724,1.609377,-0.02677575,0.002647668,1.729526,-0.02913174,-0.3327895,1.731338,-0.2060242,0.1967348,1.706591,-0.1104849,-0.325452,1.690851,-0.2351191,-0.06692496,1.720843,0.1720072,-0.07015263,1.72705,NA,NA,NotTracked,NotTracked,
0.972168,-0.2163086,0.1083984,1.018066,0.0625,0.1762695,-1,0,-1,0,-2,-1,-1,9,-5,-1,-1,-3,-1,0,-1,-2,-4.25,-4.25,-4.25,1.4375,1.4375,1.4375,3.242325,2.871981,7.631299,5.583631,2.887745,0.1966798,-0.1976687,-0.3883021,1.647728,0.1388732,-0.3854433,1.63783,-0.03072823,0.4855978,1.684786,-0.1520727,-0.3805321,1.620474,0.09548978,-0.3877197,1.607566,-0.02674932,0.002625978,1.729596,-0.0291214,-0.3328179,1.731347,-0.2060095,0.1966386,1.706673,-0.1104777,-0.3254534,1.690825,-0.2351092,-0.06694986,1.72078,0.1720724,-0.07007718,1.727213,NA,NA,NotTracked,NotTracked,
0.9897461,-0.2060547,0.1000977,1.04541,0.1040039,0.2954102,-1,-4,-1,-3,-4,-2,3,-2,1,4,0,0,1,-2,0,-2,-2.625,-2.625,-2.625,18.625,18.625,18.625,3.240057,2.877943,7.627771,5.56835,2.961801,0.2350513,-0.1943324,-0.3897562,1.638351,0.1370055,-0.3792039,1.629808,-0.03064402,0.4855721,1.685629,-0.1517863,-0.3792251,1.608192,0.09321421,-0.3691284,1.605884,-0.02674404,0.00261702,1.729627,-0.02907469,-0.3328055,1.731157,-0.205966,0.1965593,1.706855,-0.1104052,-0.3254159,1.690561,-0.235146,-0.06674308,1.720912,0.1724272,-0.06871671,1.728677,NA,NA,NotTracked,NotTracked,
1.053711,-0.2954102,0.21875,0.9667969,0.1835938,0.4799805,1,2,2,4,1,-22,-25,4,-4,-7,-6,0,-2,0,-1,-1,-18.4375,-18.4375,-18.4375,3,3,3,3.367858,3.014596,7.481932,5.610756,3.166709,0.2232686,-0.1881436,-0.3726856,1.616951,0.1321052,-0.3540767,1.614664,-0.03046732,0.4856775,1.686599,-0.1544637,-0.3732358,1.568824,0.09008472,-0.3376957,1.603628,-0.02673713,0.002625814,1.729619,-0.02915598,-0.3327215,1.730395,-0.2058614,0.1965614,1.707101,-0.1105117,-0.3253549,1.689614,-0.2356541,-0.06405967,1.722608,0.1727591,-0.06471213,1.733593,NA,NA,NotTracked,NotTracked,
0.9433594,-0.4482422,0.3642578,0.9174805,0.1977539,0.5756836,-2,1,-1,-9,-24,-2,13,0,2,8,1,-3,-1,0,1,2,-3.875,-3.875,-3.875,19.625,19.625,19.625,3.4582,3.292348,7.379942,5.629866,3.299815,0.2193117,-0.1820564,-0.332812,1.578988,0.1192764,-0.3462352,1.580517,-0.03011694,0.4857188,1.687815,-0.1490212,-0.3280621,1.52204,0.1146272,-0.382361,1.606909,-0.02670388,0.002647134,1.729572,-0.02872278,-0.3325252,1.728998,-0.2058187,0.1967833,1.708073,-0.1101666,-0.3253793,1.688321,-0.2371925,-0.05500888,1.72843,0.1719348,-0.0583892,1.739285,NA,NA,NotTracked,Unknown,
0.8310547,-0.6386719,0.4174805,0.809082,0.328125,0.6508789,0,1,-4,8,15,-7,4,0,1,1,0,-3,-1,0,-2,1,-11.875,-11.875,-11.875,44.25,44.25,44.25,3.463446,3.557076,7.345496,5.734059,3.703667,0.2179614,-0.1531448,-0.2911178,1.565669,0.09680474,-0.3000289,1.572741,-0.02985918,0.4858742,1.689092,-0.1558954,-0.2597178,1.487114,0.07860499,-0.3633649,1.603606,-0.02669895,0.002668878,1.729559,-0.02821064,-0.332495,1.727609,-0.2053512,0.1976269,1.70958,-0.1095507,-0.3255698,1.686877,-0.2368866,-0.04696106,1.732414,0.1698597,-0.04911694,1.744783,NA,NA,Unknown,Unknown,
0.7036133,-0.6567383,0.440918,0.6508789,0.4169922,0.703125,1,-2,1,5,9,3,15,11,-2,3,6,0,-1,-1,2,0,-24,-24,-24,30,30,30,3.455199,3.845163,7.320977,5.793467,3.974842,0.2245898,-0.1392982,-0.2389451,1.543673,0.08323316,-0.253761,1.542751,-0.029533,0.4859498,1.690072,-0.1128214,-0.3010971,1.5655,0.06533936,-0.3002665,1.586136,-0.02671635,0.00264348,1.729598,-0.02841761,-0.3325902,1.727071,-0.2048885,0.1984289,1.711052,-0.1096412,-0.3256068,1.686261,-0.2393786,-0.02928694,1.733945,0.168795,-0.04047753,1.745174,NA,NA,Unknown,Unknown,
0.5185547,-0.7475586,0.4516602,0.5151367,0.4111328,0.7685547,-4,-3,3,2,5,2,2,-4,3,-5,3,0,0,15,5,0,-25,-25,-25,3.5625,3.5625,3.5625,3.422082,4.130085,7.301827,5.802334,4.248653,0.2398239,-0.1287936,-0.17195,1.508802,0.08456342,-0.1961925,1.478561,-0.02909852,0.4858587,1.692612,-0.1053,-0.2038171,1.464267,0.04176573,-0.2409682,1.459833,-0.02713607,0.002672624,1.730619,-0.02908673,-0.3325614,1.727552,-0.204277,0.2001726,1.713038,-0.1098572,-0.325521,1.686453,-0.2393796,-0.0234055,1.733169,0.1676835,-0.03221549,1.744514,NA,NA,Unknown,Unknown,
0.4291992,-0.737793,0.5,0.269043,0.4326172,0.7519531,-14,-1,14,6,24,4,-11,7,-9,-5,-1,0,-6,-66,-26,5,-16.4375,-16.4375,-16.4375,25.1875,25.1875,25.1875,3.405326,4.401067,7.272133,5.823353,4.581354,0.2720822,-0.1320511,-0.1070937,1.439046,0.0774221,-0.1351224,1.443805,-0.02861588,0.4857648,1.694776,-0.1378947,-0.14756,1.413048,0.05972171,-0.182751,1.429625,-0.02744581,0.002833548,1.731757,-0.02991694,-0.3318611,1.728497,-0.2035421,0.201319,1.713856,-0.1102214,-0.3249618,1.687077,-0.2419712,-0.01802797,1.715483,0.1716272,-0.04943645,1.691059,NA,NA,Unknown,Unknown,
0.2329102,-0.7177734,0.4794922,0.1376953,0.4370117,0.6987305,5,0,-2,-3,-1,13,22,34,8,4,13,2,0,4,6,10,-25.6875,-25.6875,-25.6875,0.375,0.375,0.375,3.375972,4.653536,7.245678,5.834514,4.773335,0.3046702,-0.1207939,-0.05519865,1.429371,0.06603865,-0.08196416,1.439354,-0.02817676,0.4858566,1.696843,-0.1329313,-0.09322531,1.400586,0.06270261,-0.1185208,1.411834,-0.02770304,0.003201016,1.73353,-0.03069001,-0.3311287,1.729941,-0.2020943,0.2027037,1.715005,-0.1108947,-0.3242018,1.688736,-0.2875933,-0.02610427,1.688138,0.2173688,-0.03284378,1.720732,NA,NA,NotTracked,NotTracked,
0.1494141,-0.7675781,0.4013672,0.1298828,0.40625,0.7573242,10,9,-1,1,5,3,-34,-23,-6,-17,-2,0,2,9,-7,8,-11.4375,-11.4375,-11.4375,20.125,20.125,20.125,3.322172,4.888108,7.209129,5.839611,4.880975,0.3510097,-0.1149618,-0.03504293,1.427752,0.04265145,-0.05539263,1.417337,-0.02778385,0.4859687,1.698972,-0.1256295,-0.07372402,1.398939,0.04691185,-0.08475115,1.404462,-0.02795588,0.003413864,1.734951,-0.03088787,-0.3304202,1.730857,-0.2012364,0.2036562,1.715941,-0.1110503,-0.3235477,1.68969,-0.2890373,-0.03216678,1.684047,0.1712544,-0.02687702,1.710787,NA,NA,NotTracked,NotTracked,
0.1728516,-0.7988281,0.4692383,0.09326172,0.4472656,0.8208008,-6,-8,-5,2,5,5,9,9,20,-11,8,0,0,-1,-4,13,15.5625,15.5625,15.5625,-1.375,-1.375,-1.375,3.340011,4.899061,7.193017,5.849099,4.913755,0.3998013,-0.1119115,-0.03528829,1.429368,0.03379031,-0.04208349,1.420331,-0.02739648,0.4859982,1.701073,-0.08781436,0.03547233,1.418133,-0.01476622,-0.06766583,1.401667,-0.02838263,0.003517976,1.735119,-0.03135505,-0.3298762,1.731661,-0.2007644,0.2038462,1.716334,-0.1114421,-0.3229669,1.690384,-0.2370888,-0.01666109,1.688333,0.1710858,-0.0266343,1.706163,NA,NA,NotTracked,NotTracked,
0.2016602,-0.878418,0.5195313,0.1064453,0.5336914,0.8378906,33,14,-4,-2,-6,2,-4,-7,-4,11,0,-1,-3,-47,2,-10,-6.5625,-6.5625,-6.5625,11.6875,11.6875,11.6875,3.34264,4.862609,7.180361,5.859369,4.883235,0.4377427,-0.1080553,-0.03976376,1.434058,0.02889105,-0.04613016,1.421901,-0.02715828,0.4860209,1.702729,-0.08620475,0.03544486,1.419412,0.02259516,-0.08521385,1.414,-0.02874163,0.003742564,1.735372,-0.03176952,-0.3292305,1.73236,-0.2002871,0.2040837,1.716661,-0.1117623,-0.3222622,1.690896,-0.2821304,-0.03622776,1.685965,0.1702338,-0.02640313,1.703422,NA,NA,NotTracked,NotTracked,
0.09375,-0.8867188,0.5166016,0.1489258,0.5078125,0.9008789,-9,5,1,2,2,3,4,16,13,7,-4,-3,-3,-4,0,2,9.625,9.625,9.625,-2,-2,-2,3.352809,4.839094,7.162709,5.864062,4.846287,0.4607749,-0.105671,-0.04447003,1.441404,-0.03360509,-0.06074594,1.412414,-0.02699847,0.4859393,1.703469,-0.08437625,0.02935009,1.423086,-0.1039466,-0.07901178,1.402333,-0.02892858,0.003732259,1.734758,-0.03212889,-0.328889,1.73289,-0.2001118,0.2041841,1.716876,-0.1120747,-0.3218029,1.691412,-0.2855768,-0.03995533,1.686957,0.170188,-0.02632101,1.703264,NA,NA,NotTracked,NotTracked,
0.04394531,-0.8759766,0.5039063,0.08398438,0.5673828,0.8808594,3,12,-3,0,-1,5,-14,-17,14,15,-7,-4,-1,67,8,13,7.1875,7.1875,7.1875,-3.5625,-3.5625,-3.5625,3.366922,4.828891,7.151962,5.859794,4.829788,0.4797016,-0.1068522,-0.04681159,1.444777,-0.03670799,-0.06435885,1.415022,-0.02704742,0.486078,1.704211,-0.08510096,0.02592019,1.426642,-0.1032587,-0.08131614,1.404487,-0.02922114,0.003904521,1.735082,-0.03245112,-0.3285752,1.733199,-0.1999206,0.2044367,1.71728,-0.1124176,-0.3213416,1.691715,-0.2359639,-0.0163293,1.69661,0.1699427,-0.02634488,1.703523,NA,NA,NotTracked,NotTracked,
0.08496094,-0.890625,0.5131836,0.09863281,0.5390625,0.8764648,2,12,-9,-2,-3,4,6,-1,-7,2,0,2,1,-8,-2,-3,8.8125,8.8125,8.8125,5.5625,5.5625,5.5625,3.374293,4.822296,7.153333,5.860406,4.825093,0.4958008,-0.09806649,-0.05080362,1.460043,0.03023603,-0.0585666,1.454825,-0.02709692,0.486102,1.704653,-0.08716217,0.02547195,1.426854,0.01929939,-0.09503943,1.417053,-0.0296144,0.004091328,1.736627,-0.03264381,-0.3284097,1.733587,-0.1998383,0.2046517,1.717714,-0.1126,-0.3211018,1.692024,-0.2917599,-0.03309847,1.691038,0.1692709,-0.02641733,1.704183,NA,NA,NotTracked,NotTracked,
0.1025391,-0.8701172,0.5322266,0.1079102,0.5185547,0.8813477,-1,5,-3,-3,-2,3,-6,13,-6,2,9,2,4,32,15,10,0.25,0.25,0.25,-3.1875,-3.1875,-3.1875,3.384349,4.817719,7.150805,5.86296,4.824074,0.5092684,-0.0931611,-0.05365284,1.470658,-0.02480305,-0.05776389,1.430581,-0.02716199,0.4860515,1.704904,-0.08654896,0.02614362,1.425759,0.002618676,-0.04962336,1.355118,-0.02980769,0.003912524,1.736653,-0.03290462,-0.3284512,1.733973,-0.1994616,0.2040855,1.717483,-0.1128875,-0.3211121,1.692455,-0.2915025,-0.03673763,1.69372,0.1686167,-0.02647041,1.704512,NA,NA,NotTracked,NotTracked,
0.109375,-0.8554688,0.5263672,0.1142578,0.519043,0.8466797,-8,-24,-2,2,2,3,5,-4,-7,-5,-4,-1,-2,-10,-30,-3,1.9375,1.9375,1.9375,-2.0625,-2.0625,-2.0625,3.388307,4.815905,7.141353,5.862477,4.817204,0.5178663,-0.09089699,-0.05519662,1.478052,0.0227371,-0.05936192,1.451541,-0.02719994,0.4860292,1.705107,-0.08564565,0.02277571,1.430052,0.01077362,-0.09876508,1.421577,-0.02992586,0.003921319,1.736607,-0.03305616,-0.3283965,1.73432,-0.1993907,0.2041669,1.717753,-0.1130435,-0.3210261,1.692878,-0.291436,-0.038102,1.693048,0.1682972,-0.02656648,1.705158,NA,NA,NotTracked,NotTracked,
0.1108398,-0.8320313,0.5078125,0.1635742,0.5166016,0.8598633,-1,-9,-1,3,4,5,-3,-3,9,4,-11,-5,-2,0,1,8,3.125,3.125,3.125,7.0625,7.0625,7.0625,3.391798,4.809783,7.137134,5.864195,4.798282,0.5172929,-0.09338093,-0.04862116,1.435613,-0.04225006,-0.0728341,1.429163,-0.02731949,0.485907,1.70539,-0.1052134,-0.08075865,1.411543,-0.1161223,-0.07858141,1.42925,-0.03000909,0.00389796,1.736009,-0.03336114,-0.3282083,1.734816,-0.1994004,0.2041446,1.718036,-0.113353,-0.3207797,1.693386,-0.2451226,-0.01446904,1.709584,0.167579,-0.02679482,1.705668,NA,NA,NotTracked,NotTracked,
0.1416016,-0.8901367,0.5166016,0.2148438,0.6728516,0.8579102,-10,6,3,-1,-1,0,8,44,19,2,-3,-2,-3,38,1,-3,3.1875,3.1875,3.1875,4.6875,4.6875,4.6875,3.394659,4.794239,7.130495,5.884099,4.784482,0.4935914,-0.08885873,-0.06465248,1.493738,0.02249842,-0.06502134,1.458723,-0.02741089,0.4859323,1.705553,-0.01190146,-0.07872523,1.40729,0.01044833,-0.1036385,1.423294,-0.03011202,0.003866797,1.735551,-0.03353311,-0.3281479,1.735093,-0.1993906,0.2042005,1.718205,-0.1134984,-0.3206774,1.693553,-0.2423185,-0.01503608,1.709269,0.1671457,-0.0268686,1.706494,NA,NA,NotTracked,NotTracked,
0.2382813,-1.052734,0.4555664,0.2114258,0.7231445,0.815918,-4,-7,-3,-2,15,5,-2,-18,-14,-6,-9,-4,-3,-5,-15,-3,-5.5,-5.5,-5.5,-5.375,-5.375,-5.375,3.366877,4.793502,7.161873,5.921443,4.80712,0.3767681,-0.103223,-0.0554688,1.481542,0.03961868,-0.06042267,1.455873,-0.02761088,0.4859198,1.705816,-0.1128002,-0.09483217,1.421187,0.03004074,0.008290319,1.439667,-0.03056664,0.003786336,1.737616,-0.03364781,-0.328267,1.735522,-0.1991817,0.2037536,1.718002,-0.1136003,-0.3208791,1.694016,-0.2417587,-0.01551876,1.709767,0.1667778,-0.02698355,1.708067,NA,NA,NotTracked,NotTracked,
0.1992188,-0.9833984,0.3461914,0.1464844,0.6362305,0.8349609,-1,-9,3,2,-3,27,3,-10,-1,7,0,-3,0,-9,-37,3,-19.625,-19.625,-19.625,19.875,19.875,19.875,3.301909,4.823056,7.256134,5.964089,4.851378,0.2420438,-0.1405377,-0.03371951,1.448235,0.05726587,-0.05188996,1.418874,-0.02784213,0.4858294,1.705932,-0.1457612,-0.07641762,1.416091,0.07099359,-0.02147942,1.3915,-0.03082746,0.003807372,1.738544,-0.03366221,-0.3282404,1.735751,-0.1993863,0.2041508,1.718464,-0.1135932,-0.3208862,1.694319,-0.2340867,-0.03371044,1.667946,0.1677984,-0.02676419,1.71006,NA,NA,NotTracked,NotTracked,
0.1948242,-0.9038086,0.4624023,0.09130859,0.6313477,0.7924805,7,8,-3,0,6,5,-1,5,14,4,1,-1,-3,-14,1,5,-46.6875,-46.6875,-46.6875,24.875,24.875,24.875,3.21954,4.836473,7.355873,6.024326,4.901835,0.08059137,-0.1735014,-0.02102052,1.446214,0.1062369,-0.02594082,1.42701,-0.02812117,0.4857344,1.705951,-0.1775603,-0.06840844,1.41475,0.1018408,0.05573143,1.4251,-0.03096888,0.00368333,1.739225,-0.03370066,-0.3284371,1.735993,-0.1999371,0.2044566,1.719204,-0.1136439,-0.3210756,1.694543,-0.2640357,-0.009101807,1.713309,0.1827609,-0.02341311,1.698773,NA,NA,Lasso,Lasso,
0.09667969,-0.8349609,0.4829102,0.06591797,0.503418,0.8007813,-6,-30,0,-12,-1,-2,-4,3,7,-2,-5,-4,-3,24,53,9,-37.9375,-37.9375,-37.9375,31.3125,31.3125,31.3125,3.141574,4.842143,7.474001,6.07171,4.932949,9.908572,-0.208997,-0.01398646,1.451318,0.1541699,-0.008200119,1.440798,-0.02836222,0.4856734,1.705768,-0.2312149,-0.05202212,1.421586,0.1477947,0.0687097,1.438,-0.0309896,0.003447881,1.739515,-0.03366777,-0.3291212,1.73623,-0.1998814,0.2037004,1.718513,-0.1136966,-0.3216819,1.694624,-0.2831306,-0.002989556,1.710387,0.1597594,-0.02005075,1.771879,NA,NA,Lasso,Lasso,
0.1459961,-0.8173828,0.5107422,0.03027344,0.5141602,0.8051758,-4,-8,4,10,2,-8,1,-2,8,5,8,6,-3,4,20,7,-33.875,-33.875,-33.875,38.6875,38.6875,38.6875,3.065327,4.837869,7.652638,6.131305,4.939308,9.733209,-0.2521343,-0.01393375,1.456062,0.2009339,0.003004395,1.449236,-0.02857183,0.4855838,1.705472,-0.2671668,-0.05883546,1.426531,0.1916268,0.07563951,1.441708,-0.03101411,0.003241422,1.739604,-0.0337821,-0.3296623,1.736221,-0.2004605,0.2043369,1.7188,-0.1139765,-0.322338,1.694677,-0.320971,0.01275956,1.684478,0.1916591,-0.04071957,1.71495,NA,NA,Lasso,Lasso,
0.08349609,-0.8554688,0.496582,0.06689453,0.5170898,0.9086914,18,5,-2,-31,-9,-18,-14,26,27,6,-14,-5,0,11,-9,4,-9.9375,-9.9375,-9.9375,13.875,13.875,13.875,3.035121,4.815168,7.864602,6.167045,4.892464,9.552503,-0.2839693,-0.01270526,1.467546,0.2358839,-0.002097163,1.459836,-0.02880237,0.485471,1.705038,-0.2940762,-0.06229123,1.43054,0.2220921,0.07161328,1.438222,-0.03101243,0.003135192,1.739583,-0.03383496,-0.3299777,1.73618,-0.2001273,0.2040702,1.718249,-0.1141138,-0.3226752,1.69466,-0.2679792,0.00346946,1.768592,0.2050437,-0.07493555,1.742993,NA,NA,Lasso,Unknown,
0.0546875,-0.902832,0.4526367,0.002929688,0.5664063,0.8657227,3,-8,2,2,-7,-15,-1,28,-6,-1,-4,-3,-1,25,-9,-3,1.25,1.25,1.25,5.8125,5.8125,5.8125,3.033513,4.775071,7.988925,6.174059,4.845469,9.457229,-0.2985686,-0.01701599,1.474504,0.2559576,-0.009050773,1.470065,-0.02914443,0.4852994,1.704004,-0.3117653,-0.07015262,1.437452,0.240826,0.0638027,1.445292,-0.03110886,0.002962196,1.739461,-0.03404554,-0.3302117,1.736062,-0.2000159,0.2046512,1.718598,-0.1144233,-0.3229263,1.694505,-0.2738194,0.007879909,1.773207,0.2070745,-0.06948306,1.753748,NA,NA,Lasso,Lasso,
0.03515625,-0.9067383,0.4140625,0.04541016,0.6459961,0.8139648,-6,31,-5,-5,3,9,16,1,-3,13,3,1,0,-8,-5,-7,7.625,7.625,7.625,-1.1875,-1.1875,-1.1875,3.045015,4.756416,8.009366,6.162678,4.833113,9.431166,-0.3014583,-0.02495229,1.47784,0.2617412,-0.01539906,1.476171,-0.02934546,0.4849841,1.702983,-0.3147183,-0.07836267,1.442412,0.2465347,0.05663354,1.450905,-0.03119226,0.002929676,1.739395,-0.0341292,-0.3302206,1.736047,-0.199706,0.2053987,1.718955,-0.1145763,-0.3228794,1.694441,-0.2782661,0.01343642,1.780447,0.2076552,-0.06990088,1.761601,NA,NA,Lasso,Lasso,
0.1298828,-0.984375,0.3745117,0.05761719,0.6679688,0.7910156,1,-13,6,0,-3,4,25,0,6,0,10,0,3,21,19,2,8.375,8.375,8.375,-13.3125,-13.3125,-13.3125,3.063714,4.729845,8.008753,6.144833,4.830556,9.433183,-0.2968536,-0.03141337,1.478393,0.258573,-0.01923133,1.476905,-0.02954512,0.4847566,1.701888,-0.3062306,-0.08454189,1.439286,0.2436511,0.05373787,1.453857,-0.03127692,0.002913099,1.739307,-0.0343502,-0.3302074,1.735991,-0.1994158,0.2072667,1.71973,-0.1149438,-0.322795,1.694312,-0.2739728,-0.03404035,1.796775,0.2069739,-0.06907834,1.762905,NA,NA,Lasso,Lasso,
0.1391602,-0.9628906,0.324707,0.09033203,0.715332,0.75,10,-12,4,-4,-6,-6,-6,31,-16,1,-2,-2,-3,3,20,-11,10.875,10.875,10.875,-5.25,-5.25,-5.25,3.085012,4.730853,7.995369,6.134111,4.833802,9.443966,-0.2910645,-0.03234102,1.477698,0.2535408,-0.02093145,1.474262,-0.02975608,0.4845761,1.701012,-0.2989476,-0.08492497,1.44175,0.2394984,0.05503311,1.450547,-0.03144843,0.002875367,1.739129,-0.03457746,-0.3302063,1.735957,-0.1995095,0.2079828,1.719895,-0.1152584,-0.3226938,1.694172,-0.2730964,-0.03232408,1.798289,0.2048303,-0.06816468,1.763139,NA,NA,Lasso,Lasso,
0.1669922,-0.9545898,0.3164063,0.1000977,0.7304688,0.746582,-1,-12,-2,5,1,-2,-6,-2,6,-9,-3,-2,2,-1,1,-3,5.5,5.5,5.5,-7.1875,-7.1875,-7.1875,3.093626,4.737953,7.976096,6.125136,4.844912,9.450219,-0.2866669,-0.03180746,1.478354,0.249521,-0.02042536,1.472249,-0.03013612,0.4845171,1.700294,-0.3029271,-0.08038969,1.44106,0.2363266,0.05437612,1.449339,-0.03157736,0.002810432,1.739068,-0.03473787,-0.3302301,1.736041,-0.1994891,0.2085651,1.719897,-0.1154252,-0.3226967,1.694244,-0.2694421,-0.03219876,1.798695,0.202182,-0.06773286,1.761837,NA,NA,Unknown,Lasso,
0.1894531,-0.940918,0.3076172,0.1103516,0.6865234,0.7524414,4,-3,-5,-2,-3,0,10,-6,-5,-10,-10,-2,-5,3,-2,-5,4.0625,4.0625,4.0625,-1.5625,-1.5625,-1.5625,3.094635,4.737058,7.967788,6.122881,4.846641,9.452641,-0.2856014,-0.03486996,1.475799,0.2481209,-0.02160642,1.472301,-0.03042323,0.4843492,1.699982,-0.2953639,-0.08444045,1.439734,0.2349402,0.05289605,1.449678,-0.03172244,0.002802495,1.739072,-0.034956,-0.3302184,1.736156,-0.1996012,0.2091626,1.720051,-0.1156699,-0.322647,1.694316,-0.2677527,-0.03163566,1.799434,0.1997711,-0.06758614,1.75614,NA,NA,Lasso,Lasso,
0.1982422,-0.9458008,0.324707,0.1035156,0.6464844,0.7382813,9,-5,4,1,-3,-7,-18,18,1,-5,-1,4,5,-2,-9,0,-1.375,-1.375,-1.375,3.6875,3.6875,3.6875,3.091429,4.730329,7.965016,6.128438,4.838499,9.45768,-0.284442,-0.03371451,1.474971,0.2473632,-0.02218227,1.47175,-0.03064571,0.4843777,1.700016,-0.2930076,-0.08460931,1.44022,0.2340608,0.05270562,1.448888,-0.03184964,0.002797244,1.739118,-0.03521218,-0.330226,1.736457,-0.1998657,0.2095138,1.720303,-0.1159241,-0.3225933,1.69467,-0.2667395,-0.03133656,1.799946,0.1971244,-0.06759652,1.760836,NA,NA,Lasso,Lasso,
0.175293,-0.9072266,0.3540039,0.01367188,0.543457,0.6733398,-3,1,-1,1,0,1,-1,-2,9,4,0,0,0,12,7,1,0.375,0.375,0.375,-19.1875,-19.1875,-19.1875,3.086082,4.712945,7.960258,6.110956,4.784379,9.477855,-0.2842484,-0.0372567,1.476867,0.2451319,-0.02837605,1.470834,-0.03103486,0.4843818,1.699972,-0.2952089,-0.08476172,1.441479,0.2286033,0.04387127,1.445476,-0.03197986,0.002727484,1.739163,-0.03542567,-0.3302987,1.736591,-0.2007075,0.2099173,1.720789,-0.1161517,-0.3226698,1.694713,-0.2645106,-0.02859187,1.800108,0.1964906,-0.06655534,1.760011,NA,NA,Lasso,Lasso,
0.08496094,-0.6923828,0.2958984,0.0703125,0.3417969,0.5273438,-1,2,0,0,0,-1,1,-3,8,-3,-7,-10,-2,-3,-4,0,5.5625,5.5625,5.5625,8.8125,8.8125,8.8125,3.103367,4.639063,7.947833,6.083378,4.624565,9.507929,-0.2868921,-0.06779209,1.47188,0.2378452,-0.06920519,1.463518,-0.03154212,0.4844105,1.69978,-0.2943756,-0.1203467,1.445714,0.2163912,0.004679477,1.441143,-0.03228649,0.002749848,1.739195,-0.03564106,-0.3302278,1.736759,-0.2013322,0.2101866,1.721046,-0.116333,-0.3225767,1.69485,-0.2701316,-0.02067636,1.795536,0.1925124,-0.05740837,1.770899,NA,NA,Lasso,Lasso,
0.1030273,-0.6191406,0.2734375,0.2724609,0.5053711,0.6850586,0,-2,-2,-2,1,2,-5,-1,4,-7,5,24,1,-4,-8,-5,-3.5625,-3.5625,-3.5625,81.3125,81.3125,81.3125,3.104048,4.470235,7.953291,6.163887,4.32979,9.558669,-0.2893316,-0.131541,1.475078,0.228041,-0.1474463,1.459709,-0.03209648,0.484376,1.699762,-0.3013761,-0.178081,1.457588,0.209064,-0.08969662,1.442833,-0.03270231,0.002605987,1.739295,-0.03572255,-0.3303376,1.736867,-0.2024437,0.2077982,1.720324,-0.1164293,-0.3226487,1.694951,-0.2900996,-0.01216144,1.776882,0.1984158,-0.03770078,1.770713,NA,NA,Unknown,Lasso,
0.5332031,-0.7456055,0.3891602,0.6279297,0.5058594,0.6074219,0,-1,-2,1,8,11,0,-5,26,9,-4,-3,-5,-1,-1,2,-33.875,-33.875,-33.875,15.625,15.625,15.625,3.060466,4.180079,7.984516,6.192923,3.831591,9.635325,-0.2918141,-0.2179539,1.488366,0.217309,-0.2425582,1.48235,-0.03298873,0.4843673,1.699945,-0.3073525,-0.2472755,1.496071,0.1853662,-0.1957299,1.453,-0.03314262,0.00242296,1.739599,-0.03582991,-0.330777,1.737194,-0.2034177,0.2062303,1.720176,-0.1165906,-0.3230913,1.695347,-0.2815609,-0.01531306,1.76478,0.1927754,-0.02477131,1.765242,NA,NA,Unknown,Unknown,
0.5400391,-0.8554688,0.4135742,1.127441,0.2915039,0.4223633,-4,-1,-2,-2,0,-3,-4,-1,-8,-6,-2,-1,0,1,-6,-2,-3.4375,-3.4375,-3.4375,-67.5625,-67.5625,-67.5625,3.008068,3.886011,8.010921,6.11138,3.402664,9.648263,-0.2830129,-0.292956,1.528136,0.2015833,-0.3156,1.539824,-0.0337764,0.4843395,1.700214,-0.2941138,-0.3552211,1.513333,0.1627273,-0.3025063,1.501923,-0.03350478,0.002257526,1.74002,-0.03598858,-0.3312836,1.73781,-0.2055859,0.2052527,1.720942,-0.1167656,-0.3237267,1.696093,-0.2772605,-0.03438623,1.744689,0.1917596,-0.03799463,1.748599,NA,NA,Unknown,Unknown,
