ALX,ALY,ALZ,ARX,ARY,ARZ,EMG0L,EMG1L,EMG2L,EMG3L,EMG4L,EMG5L,EMG6L,EMG7L,EMG0R,EMG1R,EMG2R,EMG3R,EMG4R,EMG5R,EMG6R,EMG7R,GLX,GLY,GLZ,GRX,GRY,GRZ,ORL,OPL,OYL,ORR,OPR,OYR,LHNX,LHNY,LHNZ,RHNX,RHNY,RHNZ,HX,HY,HZ,LTX,LTY,LTZ,RTX,RTY,RTZ,SpineMidX,SpineMidY,SpineMidZ,SpineBaseX,SpineBaseY,SpineBaseZ,ShoulderLeftX,ShoulderLeftY,ShoulderLeftZ,ShoulderRightX,ShoulderRightY,ShoulderRightZ,ElbowLeftX,ElbowLeftY,ElbowLeftZ,ElbowRightX,ElbowRightY,ElbowRightZ,Myo_Pose_left,Myo_Pose_Right,Kinect_pose_left,Kinect_pose_right
0.9575195,-0.2700195,0.0625,0.9189453,0.2773438,0.1132813,2,-3,0,0,1,-1,-2,-1,-1,-1,-1,-1,0,-2,-1,-1,-3,-3,-3,4.3125,4.3125,4.3125,2.816648,2.95319,5.113319,6.877456,2.990712,7.734014,-0.1307402,-0.3945764,1.464607,0.2481263,-0.3962972,1.441762,0.08645165,0.4946619,1.552868,-0.08220971,-0.3746075,1.446014,0.200908,-0.3965048,1.406964,0.06766574,0.01985052,1.56575,0.0657444,-0.3127373,1.549974,-0.1035445,0.197675,1.540728,-0.01911131,-0.3045983,1.512768,-0.1536396,-0.08842836,1.528826,0.284407,-0.0806907,1.524069,NA,NA,NotTracked,NotTracked,
0.9575195,-0.2700195,0.0625,0.9355469,0.2841797,0.1191406,2,-3,0,0,1,-1,-2,-1,2,0,-1,0,0,-1,0,0,-3,-3,-3,5.25,5.25,5.25,2.816648,2.95319,5.113319,6.881738,2.989643,7.738875,-0.1310386,-0.3948451,1.465616,0.2479345,-0.3963634,1.441227,0.08657695,0.494635,1.553112,-0.08265933,-0.3694627,1.447028,0.2016432,-0.374702,1.412372,0.06772223,0.01992938,1.565893,0.06582442,-0.3126387,1.55026,-0.1030428,0.1981462,1.540506,-0.01899875,-0.3045038,1.513079,-0.1535162,-0.08829968,1.529018,0.2844493,-0.08068682,1.524244,NA,NA,NotTracked,NotTracked,
0.9575195,-0.2700195,0.0625,0.9272461,0.2749023,0.1098633,2,-3,0,0,1,-1,-2,-1,-1,0,-1,2,0,0,1,0,-3,-3,-3,4.125,4.125,4.125,2.816648,2.95319,5.113319,6.885132,2.99014,7.741601,-0.1309056,-0.3947861,1.466137,0.2478542,-0.3963189,1.441709,0.08663712,0.4946072,1.553488,-0.08266348,-0.3826794,1.446709,0.2001422,-0.3970308,1.406138,0.06776872,0.02001155,1.566136,0.06588445,-0.3125488,1.550621,-0.1029628,0.1983001,1.540613,-0.01894596,-0.3044271,1.513397,-0.1535008,-0.08836985,1.529207,0.2845819,-0.08031713,1.524601,NA,NA,NotTracked,NotTracked,
0.9575195,-0.2700195,0.0625,0.9267578,0.2661133,0.1147461,2,-3,0,0,1,-1,-2,-1,1,0,1,-1,-1,0,-1,0,-3,-3,-3,2.75,2.75,2.75,2.816648,2.95319,5.113319,6.885527,2.989422,7.751216,-0.1308418,-0.3953084,1.466298,0.2478771,-0.3963431,1.441819,0.08670979,0.4946892,1.554051,-0.08278657,-0.3725401,1.447596,0.2015406,-0.3710171,1.413818,0.06765199,0.02013846,1.56668,0.06566639,-0.3124554,1.551212,-0.1029314,0.1985229,1.54084,-0.01910288,-0.3043003,1.513881,-0.153479,-0.08814431,1.529499,0.284628,-0.08015647,1.524829,NA,NA,NotTracked,NotTracked,
0.9575195,-0.2700195,0.0625,0.9306641,0.2724609,0.1079102,2,-3,0,0,1,-1,-2,-1,-2,0,-1,0,0,0,-1,-4,-3,-3,-3,0.3125,0.3125,0.3125,2.816648,2.95319,5.113319,6.882744,2.989042,7.756082,-0.1311694,-0.3954603,1.466845,0.2478918,-0.396362,1.442037,0.08669736,0.4946887,1.554551,-0.08218805,-0.3757216,1.446522,0.2016207,-0.3723791,1.413801,0.06763923,0.02015157,1.567104,0.06560808,-0.3124914,1.551715,-0.1032311,0.1980706,1.541013,-0.0190932,-0.3042884,1.514261,-0.1535182,-0.08819517,1.529741,0.2846982,-0.08008006,1.525003,NA,NA,NotTracked,NotTracked,
0.9575195,-0.2700195,0.0625,0.9306641,0.2724609,0.1069336,2,-3,0,0,1,-1,-2,-1,-1,-1,0,-1,0,-2,0,-1,-3,-3,-3,0.125,0.125,0.125,2.816648,2.95319,5.113319,6.882744,2.989042,7.756082,-0.1309302,-0.3949006,1.465945,0.2476667,-0.3962532,1.441916,0.08678475,0.4946962,1.555102,-0.08226294,-0.3718251,1.447394,0.1994619,-0.4063458,1.405385,0.06769422,0.02020547,1.567403,0.06576498,-0.3124103,1.552031,-0.102934,0.1983555,1.540809,-0.01893211,-0.3042054,1.514636,-0.1534968,-0.08815632,1.529796,0.284793,-0.08003757,1.525238,NA,NA,NotTracked,NotTracked,
0.9575195,-0.2700195,0.0625,0.9272461,0.2744141,0.1201172,2,-3,0,0,1,-1,-2,-1,3,-3,-2,-1,0,0,-4,3,-3,-3,-3,-1.4375,-1.4375,-1.4375,2.816648,2.95319,5.113319,6.879351,2.985815,7.755074,-0.1309344,-0.3945768,1.46565,0.247961,-0.3961134,1.44213,0.08679204,0.4947214,1.555276,-0.08198587,-0.3638041,1.447958,0.2015516,-0.369619,1.41415,0.0677361,0.02026561,1.567483,0.06577189,-0.3122936,1.552228,-0.1025094,0.198852,1.540369,-0.01892722,-0.3040699,1.514828,-0.153451,-0.08806893,1.529707,0.2848701,-0.0798676,1.525457,NA,NA,NotTracked,NotTracked,
0.9575195,-0.2700195,0.0625,0.9755859,0.3164063,0.1054688,2,-3,0,0,1,-1,-2,-1,-21,-24,-17,-9,0,-3,-7,-23,-3,-3,-3,8.5625,8.5625,8.5625,2.816648,2.95319,5.113319,6.882886,2.986568,7.757379,-0.1306889,-0.3947894,1.466485,0.2472153,-0.3959389,1.441302,0.08681454,0.4947545,1.555506,-0.08200481,-0.3687714,1.447593,0.201425,-0.3742841,1.413392,0.06769136,0.02036619,1.5676,0.06563327,-0.3121346,1.552519,-0.1027336,0.198754,1.540395,-0.01905958,-0.3039114,1.515079,-0.1534614,-0.08802444,1.529706,0.2850735,-0.07947059,1.525985,NA,NA,NotTracked,NotTracked,
0.9575195,-0.2700195,0.0625,1.183105,0.2602539,0.2792969,2,-3,0,0,1,-1,-2,-1,4,3,18,21,1,1,0,5,-3,-3,-3,-64.6875,-64.6875,-64.6875,2.816648,2.95319,5.113319,6.692857,3.073519,7.88816,-0.1309067,-0.3951044,1.467348,0.2446597,-0.3928393,1.429139,0.08681767,0.494775,1.555822,-0.08264524,-0.3706613,1.448472,0.199178,-0.3743788,1.413748,0.06772519,0.02039994,1.567663,0.06569343,-0.3119801,1.55292,-0.1028727,0.1986752,1.540414,-0.01898434,-0.3037389,1.515446,-0.1534832,-0.08786241,1.52974,0.2862197,-0.07743378,1.528804,NA,NA,NotTracked,NotTracked,
0.9575195,-0.2700195,0.0625,1.17334,0.5722656,0.4702148,2,-3,0,0,1,-1,-2,-1,1,-3,4,16,3,1,-2,0,-3,-3,-3,65.875,65.875,65.875,2.816648,2.95319,5.113319,6.510185,3.276267,8.133104,-0.1312346,-0.3946373,1.468723,0.2312461,-0.3645003,1.381699,0.08683107,0.4947642,1.555938,-0.08168548,-0.378193,1.448905,0.1965619,-0.3681822,1.40836,0.06763414,0.02050917,1.567632,0.06493723,-0.3113725,1.553355,-0.102626,0.1989939,1.539997,-0.0198292,-0.3030485,1.515839,-0.1534856,-0.08774132,1.52977,0.2914898,-0.07015494,1.536585,NA,NA,NotTracked,Unknown,
0.9575195,-0.2700195,0.0625,0.9492188,0.7958984,0.625,2,-3,0,0,1,-1,-2,-1,-1,-4,-6,-2,-5,1,2,-4,-3,-3,-3,29.4375,29.4375,29.4375,2.816648,2.95319,5.113319,6.448393,3.649691,8.31512,-0.1319014,-0.3948206,1.470675,0.1867864,-0.2863799,1.331881,0.0868754,0.4947893,1.555997,-0.08255987,-0.3675896,1.450159,0.1526915,-0.2960225,1.353,0.06574868,0.02109257,1.567438,0.05734915,-0.3092181,1.553874,-0.1020312,0.1996259,1.539475,-0.02797535,-0.2996155,1.516139,-0.153548,-0.08757264,1.529943,0.3010578,-0.04504913,1.544321,NA,NA,NotTracked,Unknown,
0.9575195,-0.2700195,0.0625,0.8085938,0.6948242,0.6386719,2,-3,0,0,1,-1,-2,-1,4,-4,-8,-12,-6,1,1,-5,-3,-3,-3,16.9375,16.9375,16.9375,2.816648,2.95319,5.113319,6.416216,3.789958,8.372075,-0.131891,-0.3948966,1.470885,0.1251762,-0.1836003,1.321057,0.08694223,0.4948559,1.555899,-0.08278717,-0.3745505,1.449648,0.08636927,-0.1661416,1.3825,0.06524186,0.02134638,1.567358,0.05583943,-0.3085041,1.554136,-0.101368,0.2001924,1.538905,-0.02930415,-0.2988829,1.516189,-0.1535206,-0.08747701,1.53009,0.3079547,-0.03997705,1.542346,NA,NA,NotTracked,Unknown,
0.9575195,-0.2700195,0.0625,0.2592773,0.5639648,0.6582031,2,-3,0,0,1,-1,-2,-1,10,3,7,3,0,2,8,0,-3,-3,-3,45.6875,45.6875,45.6875,2.816648,2.95319,5.113319,6.359137,4.225346,8.545711,-0.1315856,-0.3951972,1.468045,0.07979035,-0.09666421,1.324704,0.0871338,0.4945939,1.555518,-0.08196745,-0.368519,1.448423,0.08081019,-0.1639146,1.38256,0.06523313,0.02159146,1.567606,0.05662257,-0.3079064,1.555222,-0.1006885,0.2003898,1.538591,-0.02791765,-0.2986034,1.517372,-0.1533507,-0.08609002,1.530191,0.3153833,-0.03736013,1.517336,NA,NA,NotTracked,Unknown,
0.9575195,-0.2700195,0.0625,-0.06640625,0.5136719,0.6333008,2,-3,0,0,1,-1,-2,-1,-19,-7,-1,3,3,0,-3,-6,-3,-3,-3,17.8125,17.8125,17.8125,2.816648,2.95319,5.113319,6.375044,4.97958,8.960481,-0.1310631,-0.3955877,1.466596,0.04367379,-0.02266812,1.333039,0.08734116,0.4943224,1.555633,-0.08171264,-0.3809777,1.448204,0.0001579598,0.005085251,1.369167,0.06521434,0.02190554,1.568441,0.0563596,-0.307128,1.555968,-0.09979409,0.2009211,1.53864,-0.02786615,-0.2978233,1.518494,-0.1526297,-0.08499273,1.530448,0.3393656,-0.03767487,1.492491,NA,NA,NotTracked,Unknown,
0.9575195,-0.2700195,0.0625,-0.1547852,0.5512695,0.6450195,2,-3,0,0,1,-1,-2,-1,9,-3,-8,-6,-2,-2,-7,2,-3,-3,-3,12.375,12.375,12.375,2.816648,2.95319,5.113319,6.412237,5.219563,9.203679,-0.1302987,-0.3951554,1.46293,0.01035046,0.02420588,1.34623,0.08751141,0.4940552,1.555724,-0.0821138,-0.377109,1.447677,-0.01541553,0.008320285,1.308107,0.06541322,0.02218245,1.568974,0.05640276,-0.3066227,1.556155,-0.1006116,0.2007654,1.540787,-0.02741389,-0.2972037,1.519335,-0.1521694,-0.08559057,1.530784,0.3145979,-0.02705029,1.448586,NA,NA,NotTracked,Unknown,
0.9575195,-0.2700195,0.0625,-0.1259766,0.5297852,0.565918,2,-3,0,0,1,-1,-2,-1,34,15,-2,-2,-3,-1,-4,6,-3,-3,-3,12.75,12.75,12.75,2.816648,2.95319,5.113319,6.459221,5.364964,9.429188,-0.1301458,-0.3950159,1.462618,-0.01624987,0.04827334,1.364139,0.08772476,0.4938576,1.556231,-0.08221969,-0.3757052,1.448097,-0.07937539,0.03205216,1.356222,0.06554168,0.02242454,1.569417,0.05631413,-0.3062125,1.556235,-0.1018576,0.2013878,1.543,-0.02731156,-0.2966734,1.520508,-0.1508391,-0.08809675,1.531391,0.2866519,-0.02082114,1.424482,NA,NA,NotTracked,Unknown,
0.9575195,-0.2700195,0.0625,-0.199707,0.7441406,0.5537109,2,-3,0,0,1,-1,-2,-1,-4,-3,0,8,5,-1,-3,-13,-3,-3,-3,17.125,17.125,17.125,2.816648,2.95319,5.113319,6.547366,5.435153,9.631962,-0.1300379,-0.3956801,1.464842,-0.02304185,0.05311904,1.376812,0.08814836,0.4936787,1.557258,-0.08204088,-0.3693872,1.44955,0.01829324,0.09664939,1.4208,0.06574149,0.02268726,1.570018,0.05625319,-0.305858,1.556378,-0.1023193,0.2022177,1.544105,-0.02715864,-0.296317,1.522197,-0.1502031,-0.08946329,1.531786,0.2667646,-0.01615603,1.408523,NA,NA,NotTracked,Unknown,
0.9575195,-0.2700195,0.0625,-0.02099609,0.7431641,0.5239258,2,-3,0,0,1,-1,-2,-1,-1,3,0,-7,-8,6,0,-7,-3,-3,-3,5.75,5.75,5.75,2.816648,2.95319,5.113319,6.617783,5.436108,9.872917,-0.1301107,-0.3970642,1.466261,-0.0212187,0.05093276,1.382709,0.08851476,0.4936114,1.558409,-0.08183811,-0.3766451,1.448257,0.02217175,0.09463268,1.425187,0.06594474,0.02285604,1.570353,0.05629857,-0.3056351,1.556416,-0.1024809,0.2021827,1.544516,-0.02679616,-0.296239,1.523646,-0.1496469,-0.09047533,1.532264,0.254315,-0.01170751,1.398204,NA,NA,NotTracked,Closed,
0.9575195,-0.2700195,0.0625,-0.112793,0.9462891,0.2392578,2,-3,0,0,1,-1,-2,-1,21,-3,-1,-6,-11,-3,0,7,-3,-3,-3,-6.875,-6.875,-6.875,2.816648,2.95319,5.113319,6.656205,5.407218,9.952145,-0.1303008,-0.3972813,1.469259,-0.03255927,0.05692225,1.383652,0.08861236,0.4937086,1.559378,-0.08190964,-0.3787505,1.449854,-0.05936226,0.1084806,1.379,0.06616658,0.02294752,1.57054,0.05627067,-0.3055244,1.556391,-0.1020489,0.2023899,1.544282,-0.02668986,-0.2962932,1.524757,-0.1487886,-0.08989667,1.533815,0.2480193,-0.009826995,1.393029,NA,NA,NotTracked,Closed,
0.9575195,-0.2700195,0.0625,-0.01074219,0.7143555,0.8178711,2,-3,0,0,1,-1,-2,-1,-19,-10,2,1,0,-2,-8,-4,-3,-3,-3,-4.4375,-4.4375,-4.4375,2.816648,2.95319,5.113319,6.632124,5.381402,9.965112,-0.1304366,-0.3973339,1.471242,-0.03273639,0.05619404,1.3873,0.08845945,0.4937511,1.560041,-0.08082828,-0.3850012,1.448692,0.007728311,0.09856431,1.425805,0.06623318,0.02303177,1.570689,0.05615371,-0.3054326,1.556408,-0.1019203,0.2024585,1.544281,-0.02677327,-0.2963792,1.525442,-0.1486634,-0.09090231,1.534893,0.2461876,-0.009269119,1.391059,NA,NA,NotTracked,Unknown,
0.9575195,-0.2700195,0.0625,-0.02832031,0.7226563,0.8891602,2,-3,0,0,1,-1,-2,-1,13,-1,-7,-2,-3,-4,-2,2,-3,-3,-3,-22.5625,-22.5625,-22.5625,2.816648,2.95319,5.113319,6.564132,5.226945,9.872343,-0.1319575,-0.3974937,1.470052,-0.02685643,0.05149509,1.384441,0.08788637,0.4939615,1.560497,-0.08138178,-0.3882702,1.447485,0.01103472,0.1016921,1.422929,0.06617264,0.02312751,1.570583,0.05546568,-0.3050624,1.555876,-0.1019096,0.2024643,1.544292,-0.02719021,-0.2962875,1.525521,-0.1489026,-0.09253226,1.536118,0.2499528,-0.01052728,1.393085,NA,NA,NotTracked,Closed,
0.9575195,-0.2700195,0.0625,-0.1376953,0.9326172,0.28125,2,-3,0,0,1,-1,-2,-1,5,-1,-10,-10,-7,-5,-2,-4,-3,-3,-3,4.6875,4.6875,4.6875,2.816648,2.95319,5.113319,6.554411,5.198378,9.72015,-0.1337434,-0.3996827,1.469422,0.01045828,0.04203211,1.361053,0.08610288,0.4939507,1.560924,-0.08211182,-0.3837243,1.446832,0.02246739,0.01839969,1.403792,0.06596464,0.02314151,1.570488,0.05466282,-0.3050105,1.555362,-0.1019208,0.202419,1.544363,-0.02774447,-0.2963738,1.52529,-0.1497038,-0.09326556,1.537233,0.2822958,-0.01657285,1.410734,NA,NA,NotTracked,Unknown,
0.9575195,-0.2700195,0.0625,-0.5073242,0.8061523,0.300293,2,-3,0,0,1,-1,-2,-1,-11,-2,-1,-1,-2,-4,-6,-10,-3,-3,-3,0.4375,0.4375,0.4375,2.816648,2.95319,5.113319,6.522897,5.148003,9.413939,-0.1341122,-0.3988379,1.468243,0.05267374,0.02332473,1.366149,0.08304253,0.4939586,1.561432,-0.08192722,-0.3854429,1.446955,0.02841834,-0.03010884,1.397936,0.0655174,0.02305574,1.570256,0.05364087,-0.3050748,1.554774,-0.1019042,0.202196,1.5445,-0.0286837,-0.2965737,1.524558,-0.1509398,-0.09120213,1.538463,0.3126841,-0.01697598,1.429978,NA,NA,NotTracked,Unknown,
0.9575195,-0.2700195,0.0625,-0.1772461,0.7407227,0.8320313,2,-3,0,0,1,-1,-2,-1,2,1,2,6,1,-1,1,0,-3,-3,-3,13.0625,13.0625,13.0625,2.816648,2.95319,5.113319,6.511338,5.115818,9.146508,-0.1347299,-0.4002463,1.466666,0.117536,0.02076412,1.360362,0.07921562,0.4937632,1.561255,-0.08224227,-0.3851709,1.446277,0.09143901,-0.02630645,1.396425,0.0649612,0.02293001,1.569756,0.05258833,-0.305232,1.554119,-0.1017813,0.2019824,1.544462,-0.02989718,-0.2969464,1.522967,-0.1516127,-0.09021184,1.538872,0.3389947,-0.01526968,1.457634,NA,NA,NotTracked,Closed,
0.9575195,-0.2700195,0.0625,-0.3525391,0.6474609,0.8232422,2,-3,0,0,1,-1,-2,-1,-4,-3,0,8,3,-2,-2,1,-3,-3,-3,25.6875,25.6875,25.6875,2.816648,2.95319,5.113319,6.532753,5.056838,8.779918,-0.1360022,-0.3998557,1.466797,0.1376324,0.0159073,1.367256,0.07625344,0.4938557,1.560368,-0.0827637,-0.3865309,1.445296,0.1184448,-0.04206921,1.40024,0.06416557,0.02275016,1.5689,0.05152215,-0.3054664,1.553301,-0.1018293,0.2018369,1.544371,-0.03114039,-0.2974688,1.521467,-0.1524766,-0.08946463,1.538818,0.353745,-0.01109669,1.474592,NA,NA,NotTracked,Unknown,
0.9575195,-0.2700195,0.0625,-0.3623047,0.6425781,0.7553711,2,-3,0,0,1,-1,-2,-1,2,0,-2,1,1,0,0,2,-3,-3,-3,28.5,28.5,28.5,2.816648,2.95319,5.113319,6.568089,5.039055,8.539477,-0.1380817,-0.4007942,1.467601,0.1515187,0.01676368,1.380667,0.07410228,0.4936696,1.558633,-0.08528525,-0.3833131,1.444579,0.1551308,0.08700953,1.42616,0.06316758,0.02271784,1.567694,0.05072371,-0.3057089,1.55231,-0.1035623,0.2000494,1.545188,-0.0320946,-0.297934,1.519591,-0.1529067,-0.08923305,1.538645,0.3589069,-0.008634154,1.484926,NA,NA,NotTracked,Unknown,
0.9575195,-0.2700195,0.0625,-0.3720703,0.6782227,0.6669922,2,-3,0,0,1,-1,-2,-1,-6,-2,-7,-3,-1,-5,-1,-4,-3,-3,-3,29.125,29.125,29.125,2.816648,2.95319,5.113319,6.593891,5.061479,8.364776,-0.1381806,-0.3999172,1.46708,0.1910305,0.01864972,1.36942,0.07276753,0.4937333,1.556316,-0.08580501,-0.3869164,1.444082,0.1550125,-0.03335907,1.410102,0.06248445,0.0227172,1.5666,0.05024592,-0.3058473,1.55131,-0.1041689,0.1992422,1.544667,-0.03267245,-0.2982126,1.517977,-0.1536168,-0.0891962,1.537707,0.3592738,-0.006966609,1.487638,NA,NA,NotTracked,Unknown,
0.9575195,-0.2700195,0.0625,-0.2802734,0.7158203,0.6157227,2,-3,0,0,1,-1,-2,-1,-3,0,3,1,1,0,1,-5,-3,-3,-3,10.6875,10.6875,10.6875,2.816648,2.95319,5.113319,6.591786,5.098023,8.220318,-0.1391828,-0.3996532,1.465805,0.2021032,0.01841584,1.368565,0.07265791,0.4933602,1.555199,-0.09155078,-0.4130779,1.446175,0.1795536,0.06897152,1.430118,0.06230925,0.02234349,1.565852,0.0499706,-0.3063043,1.550511,-0.103476,0.199446,1.543522,-0.03318482,-0.2987075,1.516324,-0.1541509,-0.08893321,1.536535,0.3560972,-0.007809159,1.484793,NA,NA,NotTracked,Unknown,
0.9575195,-0.2700195,0.0625,-0.2250977,0.7543945,0.5888672,2,-3,0,0,1,-1,-2,-1,0,-1,0,0,0,-2,-4,0,-3,-3,-3,-7.5625,-7.5625,-7.5625,2.816648,2.95319,5.113319,6.579735,5.100519,8.162791,-0.1379778,-0.3992077,1.461427,0.2086721,0.01434467,1.365388,0.07315588,0.4932405,1.553739,-0.08641068,-0.3967144,1.441258,0.1782109,0.0672463,1.430231,0.06233113,0.02199515,1.565204,0.05000059,-0.3066548,1.549728,-0.1029941,0.1994927,1.54223,-0.03312653,-0.2990804,1.51446,-0.1545514,-0.08874365,1.534224,0.3560113,-0.00863803,1.490887,NA,NA,NotTracked,Unknown,
0.9575195,-0.2700195,0.0625,-0.112793,0.8188477,0.6049805,2,-3,0,0,1,-1,-2,-1,5,-4,-4,-2,0,0,-1,-2,-3,-3,-3,-6.6875,-6.6875,-6.6875,2.816648,2.95319,5.113319,6.56577,5.07844,8.134167,-0.1364734,-0.3972754,1.458291,0.2152793,0.00203129,1.357871,0.07422767,0.4932318,1.552381,-0.08620273,-0.3705255,1.441384,0.1833977,0.04667793,1.428818,0.06240768,0.02183607,1.564779,0.05010353,-0.3069638,1.549204,-0.1029793,0.1990626,1.541394,-0.03308521,-0.2993288,1.513281,-0.1547941,-0.08791636,1.531665,0.3456058,-0.0151966,1.499002,NA,NA,NotTracked,Unknown,
0.9575195,-0.2700195,0.0625,-0.0078125,0.7094727,0.5737305,2,-3,0,0,1,-1,-2,-1,0,3,3,7,6,1,0,8,-3,-3,-3,-5,-5,-5,2.816648,2.95319,5.113319,6.53949,5.001115,8.123316,-0.1344449,-0.3963027,1.453591,0.2025173,-0.01888098,1.369304,0.07551353,0.4933755,1.551586,-0.08552148,-0.3630119,1.441893,0.1636086,-0.0820034,1.4055,0.06257958,0.02184199,1.564306,0.05035307,-0.306925,1.54861,-0.1028204,0.1989122,1.54051,-0.03284633,-0.2991508,1.512069,-0.1543504,-0.08640481,1.529456,0.3383037,-0.01636957,1.489764,NA,NA,NotTracked,Unknown,
0.9575195,-0.2700195,0.0625,-0.09960938,0.6386719,0.5195313,2,-3,0,0,1,-1,-2,-1,0,-3,-2,-4,-2,0,0,-10,-3,-3,-3,0.625,0.625,0.625,2.816648,2.95319,5.113319,6.535044,4.937776,8.123836,-0.1333141,-0.3957128,1.45247,0.2186745,-0.05343497,1.350562,0.0765285,0.4934978,1.551187,-0.08601105,-0.3768732,1.442008,0.1823102,-0.1133247,1.402278,0.06277402,0.02186898,1.564115,0.05085172,-0.3067902,1.548314,-0.1029711,0.1986306,1.540419,-0.03238139,-0.2989612,1.511526,-0.1541777,-0.08514498,1.528319,0.3254949,-0.02640268,1.506133,NA,NA,NotTracked,Unknown,
0.9575195,-0.2700195,0.0625,0.1088867,0.6811523,0.5488281,2,-3,0,0,1,-1,-2,-1,-1,4,4,2,1,1,1,-4,-3,-3,-3,-7.8125,-7.8125,-7.8125,2.816648,2.95319,5.113319,6.521609,4.781024,8.120583,-0.1321355,-0.3962009,1.453496,0.1997109,-0.1063545,1.357645,0.07714687,0.4935797,1.550958,-0.08474502,-0.3763815,1.441401,0.144027,-0.07730974,1.40105,0.06311577,0.02180241,1.564007,0.05138208,-0.3068767,1.54828,-0.1028482,0.1984788,1.540164,-0.03187344,-0.2990314,1.511242,-0.1539862,-0.08484369,1.527851,0.3317254,-0.01393324,1.59165,NA,NA,NotTracked,Unknown,
0.9575195,-0.2700195,0.0625,0.2963867,0.5932617,0.5454102,2,-3,0,0,1,-1,-2,-1,-1,0,-1,0,2,-1,2,-4,-3,-3,-3,25.8125,25.8125,25.8125,2.816648,2.95319,5.113319,6.530947,4.455936,8.117108,-0.13191,-0.3968638,1.456035,0.210747,-0.1748364,1.369867,0.07769831,0.4936146,1.55069,-0.08263148,-0.3859651,1.439572,0.1676948,-0.1890161,1.409644,0.06321585,0.02173663,1.563852,0.05140201,-0.3071042,1.548007,-0.1028042,0.1981944,1.539986,-0.03188273,-0.2992043,1.51096,-0.1538685,-0.08472988,1.527637,0.3282034,-0.01908824,1.583705,NA,NA,NotTracked,Unknown,
0.9575195,-0.2700195,0.0625,0.4541016,0.5864258,0.4291992,2,-3,0,0,1,-1,-2,-1,-3,-2,-5,-2,0,0,-3,-5,-3,-3,-3,82.75,82.75,82.75,2.816648,2.95319,5.113319,6.653345,4.04028,8.069249,-0.1333572,-0.396349,1.461094,0.2245327,-0.2701188,1.382679,0.07786676,0.493654,1.550723,-0.08339175,-0.3716189,1.441909,0.1877337,-0.3072483,1.420212,0.06327061,0.02167616,1.563747,0.05145789,-0.3073,1.547882,-0.102549,0.1983863,1.539849,-0.03191106,-0.2992518,1.510869,-0.1537786,-0.08474642,1.527684,0.325868,-0.02316406,1.577108,NA,NA,NotTracked,Unknown,
0.9575195,-0.2700195,0.0625,0.8442383,0.7670898,0.3208008,2,-3,0,0,1,-1,-2,-1,-1,-2,0,1,2,0,-1,7,-3,-3,-3,4.1875,4.1875,4.1875,2.816648,2.95319,5.113319,6.717673,3.809646,8.026662,-0.1341266,-0.3975407,1.464103,0.2594069,-0.3438742,1.378617,0.07792825,0.4937274,1.550894,-0.08249284,-0.3874462,1.442,0.229433,-0.3247462,1.413385,0.06386955,0.02146258,1.563745,0.05388119,-0.3082929,1.547899,-0.1026238,0.1983334,1.540099,-0.03005619,-0.3000205,1.510788,-0.1535126,-0.08592184,1.528093,0.3170445,-0.04526168,1.559438,NA,NA,NotTracked,Unknown,
0.9575195,-0.2700195,0.0625,1.024902,0.5024414,0.402832,2,-3,0,0,1,-1,-2,-1,1,1,0,-3,-2,-1,-3,-2,-3,-3,-3,-47.8125,-47.8125,-47.8125,2.816648,2.95319,5.113319,6.881309,3.281842,7.766876,-0.1350746,-0.3981669,1.465729,0.2598263,-0.3867081,1.419481,0.07799671,0.4936879,1.551066,-0.08408961,-0.3804529,1.442065,0.2127784,-0.3723062,1.413194,0.0654678,0.02076632,1.563846,0.05785342,-0.3100759,1.548073,-0.1027087,0.1978592,1.540843,-0.02617245,-0.301943,1.5111,-0.1534388,-0.08750905,1.528826,0.3069634,-0.06510562,1.544538,NA,NA,NotTracked,Unknown,
0.9575195,-0.2700195,0.0625,1.214844,0.2905273,0.1318359,2,-3,0,0,1,-1,-2,-1,-1,-1,-3,-1,-1,-1,1,1,-3,-3,-3,-23.625,-23.625,-23.625,2.816648,2.95319,5.113319,7.109783,3.043475,7.428811,-0.1356568,-0.3986923,1.466642,0.2629029,-0.4020959,1.445054,0.07819993,0.4935871,1.551622,-0.08445138,-0.3799702,1.442458,0.2122208,-0.3945295,1.407072,0.06691296,0.02014332,1.564292,0.06047465,-0.31147,1.548529,-0.1030615,0.1966859,1.542149,-0.02353296,-0.3034374,1.511879,-0.1533369,-0.08901609,1.529779,0.2957143,-0.0774877,1.529332,NA,NA,NotTracked,Unknown,
0.9575195,-0.2700195,0.0625,1.153809,0.3393555,-0.1328125,2,-3,0,0,1,-1,-2,-1,0,-3,-2,-2,-3,0,-2,-2,-3,-3,-3,40.625,40.625,40.625,2.816648,2.95319,5.113319,7.3427,2.910041,7.21228,-0.1349319,-0.3991152,1.464914,0.2606177,-0.4003581,1.458814,0.07850689,0.4936568,1.552199,-0.08466246,-0.3749756,1.445161,0.2140681,-0.3968246,1.40776,0.06779195,0.01979148,1.564309,0.06125196,-0.3120035,1.548488,-0.1028983,0.1966695,1.542501,-0.02282708,-0.3039116,1.512238,-0.1530441,-0.08960604,1.530164,0.2913258,-0.08190443,1.52381,NA,NA,NotTracked,NotTracked,
0.9575195,-0.2700195,0.0625,0.9204102,0.2553711,0.06933594,2,-3,0,0,1,-1,-2,-1,-3,1,-1,1,0,2,0,-2,-3,-3,-3,-52.75,-52.75,-52.75,2.816648,2.95319,5.113319,7.241654,2.910207,7.305737,-0.1335637,-0.3981661,1.46361,0.2577308,-0.3966425,1.459699,0.07911121,0.4938523,1.552664,-0.08800609,-0.4073467,1.448258,0.2139944,-0.398338,1.408981,0.06810376,0.01972528,1.564373,0.06158525,-0.3121758,1.548603,-0.1030056,0.1962309,1.543488,-0.02245486,-0.304181,1.512589,-0.1528333,-0.08962024,1.530578,0.2901489,-0.08301149,1.523207,NA,NA,NotTracked,NotTracked,
0.9575195,-0.2700195,0.0625,0.8823242,0.2631836,0.1689453,2,-3,0,0,1,-1,-2,-1,1,0,-2,-2,-1,5,0,2,-3,-3,-3,35.375,35.375,35.375,2.816648,2.95319,5.113319,7.140955,2.935638,7.416806,-0.132614,-0.3987052,1.463712,0.2580572,-0.3976655,1.455347,0.07956458,0.4940246,1.552781,-0.08351289,-0.3835098,1.443649,0.2144697,-0.3860987,1.410785,0.06845485,0.01973643,1.564308,0.0618877,-0.3122148,1.548613,-0.1026615,0.1965668,1.543466,-0.02221268,-0.3042075,1.512718,-0.152702,-0.08973168,1.530985,0.2897958,-0.08303621,1.52331,NA,NA,NotTracked,NotTracked,
0.9575195,-0.2700195,0.0625,0.8886719,0.2714844,0.09423828,2,-3,0,0,1,-1,-2,-1,-11,-3,-3,-4,-4,-4,-1,-25,-3,-3,-3,30.125,30.125,30.125,2.816648,2.95319,5.113319,7.145654,2.955731,7.449916,-0.1318752,-0.3981635,1.466399,0.2591338,-0.4003097,1.452659,0.08000295,0.4940439,1.552816,-0.08373842,-0.3841931,1.445009,0.2132613,-0.385409,1.411747,0.06876317,0.01960182,1.564315,0.06249892,-0.3125072,1.548733,-0.1026447,0.196356,1.543688,-0.02166708,-0.304487,1.513011,-0.1525743,-0.08989508,1.531208,0.2897331,-0.08300728,1.523383,NA,NA,NotTracked,NotTracked,
0.9575195,-0.2700195,0.0625,0.980957,0.2104492,0.09863281,2,-3,0,0,1,-1,-2,-1,2,-1,-1,-1,-2,-4,0,2,-3,-3,-3,-4.625,-4.625,-4.625,2.816648,2.95319,5.113319,7.128191,2.971834,7.48178,-0.1324537,-0.3979114,1.467405,0.2590044,-0.4003847,1.449654,0.08027413,0.4940154,1.552837,-0.08223408,-0.3731444,1.44549,0.2132296,-0.3874339,1.410464,0.06906678,0.01943537,1.564582,0.06307165,-0.312844,1.549177,-0.1028567,0.1960056,1.544102,-0.02115982,-0.3048237,1.51342,-0.1524217,-0.0900863,1.5315,0.2895692,-0.08300209,1.523513,NA,NA,NotTracked,NotTracked,
0.9575195,-0.2700195,0.0625,0.9418945,0.2485352,0.08984375,2,-3,0,0,1,-1,-2,-1,0,0,-2,-1,-2,-1,-1,-1,-3,-3,-3,2.5,2.5,2.5,2.816648,2.95319,5.113319,7.082117,2.975286,7.529777,-0.1325161,-0.3980307,1.46734,0.2574576,-0.3995581,1.447621,0.0804702,0.4939975,1.552918,-0.08278111,-0.3708552,1.447014,0.2130061,-0.3871322,1.410543,0.06921926,0.01930912,1.564693,0.06339785,-0.3130654,1.549432,-0.1030307,0.1957653,1.54434,-0.02085744,-0.305024,1.513693,-0.1522875,-0.0901727,1.531897,0.2894754,-0.08296744,1.523782,NA,NA,NotTracked,NotTracked,
0.9575195,-0.2700195,0.0625,0.9072266,0.2509766,0.1201172,2,-3,0,0,1,-1,-2,-1,-2,-5,-3,-2,-5,-4,-2,0,-3,-3,-3,-4.5625,-4.5625,-4.5625,2.816648,2.95319,5.113319,7.018728,2.973981,7.582303,-0.1321537,-0.3984644,1.467292,0.2566396,-0.3994087,1.449694,0.08063737,0.494055,1.553042,-0.0832964,-0.3763182,1.446131,0.2126129,-0.3869634,1.410819,0.06938106,0.01927974,1.564885,0.06372688,-0.3130536,1.549685,-0.1020836,0.1968848,1.543648,-0.02056415,-0.3049805,1.514012,-0.1521482,-0.09005179,1.532244,0.289162,-0.08235662,1.52431,NA,NA,NotTracked,NotTracked,
