ALX,ALY,ALZ,ARX,ARY,ARZ,EMG0L,EMG1L,EMG2L,EMG3L,EMG4L,EMG5L,EMG6L,EMG7L,EMG0R,EMG1R,EMG2R,EMG3R,EMG4R,EMG5R,EMG6R,EMG7R,GLX,GLY,GLZ,GRX,GRY,GRZ,ORL,OPL,OYL,ORR,OPR,OYR,LHNX,LHNY,LHNZ,RHNX,RHNY,RHNZ,HX,HY,HZ,LTX,LTY,LTZ,RTX,RTY,RTZ,SpineMidX,SpineMidY,SpineMidZ,SpineBaseX,SpineBaseY,SpineBaseZ,ShoulderLeftX,ShoulderLeftY,ShoulderLeftZ,ShoulderRightX,ShoulderRightY,ShoulderRightZ,ElbowLeftX,ElbowLeftY,ElbowLeftZ,ElbowRightX,ElbowRightY,ElbowRightZ,Myo_Pose_left,Myo_Pose_Right,Kinect_pose_left,Kinect_pose_right
0.9399414,-0.3271484,0.08056641,0.909668,0.3139648,0.1835938,0,11,0,0,1,2,-2,-1,-1,-2,0,-2,0,-3,3,1,-1.25,-1.25,-1.25,-0.875,-0.875,-0.875,2.839955,3.055193,5.241458,6.650329,3.114735,8.474565,-0.1254792,-0.3784837,1.448826,0.2045238,-0.393423,1.411561,0.08095279,0.492842,1.56369,-0.07852638,-0.3623239,1.434672,0.1599999,-0.390279,1.39061,0.05307694,0.01979446,1.568604,0.04626217,-0.310899,1.550512,-0.114396,0.1965875,1.543401,-0.03833827,-0.3031797,1.514182,-0.1626519,-0.07520303,1.519436,0.2670284,-0.08242074,1.50494,NA,NA,Unknown,Unknown,
0.9360352,-0.3261719,0.07958984,0.9067383,0.3188477,0.1855469,1,-1,-1,0,-2,-2,-1,-2,0,0,0,-1,0,0,-2,-2,-1.1875,-1.1875,-1.1875,-1.5,-1.5,-1.5,2.839379,3.053891,5.239522,6.649024,3.113857,8.473992,-0.122606,-0.3745612,1.447767,0.204086,-0.3939001,1.410569,0.0810864,0.4928458,1.563681,-0.07828249,-0.3672656,1.430881,0.1598151,-0.3816603,1.395039,0.05311152,0.01983856,1.568676,0.04619283,-0.3108431,1.550658,-0.1141768,0.1967198,1.543383,-0.03843559,-0.3030606,1.514364,-0.1625997,-0.07509952,1.51954,0.2670735,-0.08243804,1.504958,NA,NA,Unknown,Unknown,
0.9423828,-0.3266602,0.08789063,0.9038086,0.3183594,0.1791992,-9,-5,-2,-2,-3,2,-1,-1,-2,-1,0,-2,0,-1,-4,-2,-1.5,-1.5,-1.5,-0.8125,-0.8125,-0.8125,2.839687,3.053337,5.237023,6.648044,3.113822,8.473799,-0.1266782,-0.3727588,1.448867,0.2046711,-0.3937626,1.411165,0.08117215,0.4928267,1.56365,-0.07934617,-0.3562938,1.437312,0.1593632,-0.3845052,1.395018,0.05351555,0.01972912,1.568223,0.04715529,-0.310909,1.550759,-0.1142806,0.1965159,1.541711,-0.03748204,-0.3034376,1.514475,-0.1623648,-0.07471298,1.519354,0.267116,-0.08243518,1.505057,NA,NA,Unknown,Unknown,
0.9414063,-0.3310547,0.07470703,0.9101563,0.3198242,0.1855469,0,-2,2,1,0,0,0,-4,1,-1,-1,0,-1,-2,0,1,0.0625,0.0625,0.0625,-1.3125,-1.3125,-1.3125,2.840359,3.053242,5.23643,6.647358,3.11315,8.473257,-0.1253185,-0.376628,1.448984,0.2046611,-0.394082,1.411586,0.08130732,0.4928024,1.563619,-0.07871483,-0.3618264,1.434136,0.1596911,-0.3833278,1.394567,0.05356627,0.01973161,1.568395,0.04702373,-0.3109084,1.55097,-0.1140577,0.1965839,1.541909,-0.03762094,-0.3033685,1.514621,-0.1624454,-0.07478014,1.519454,0.2671266,-0.08247604,1.505199,NA,NA,NotTracked,Unknown,
0.9379883,-0.3325195,0.08300781,0.9077148,0.3183594,0.1806641,1,-2,-4,-4,-1,-1,-2,0,-1,0,1,1,-3,0,1,1,0.6875,0.6875,0.6875,-0.6875,-0.6875,-0.6875,2.841032,3.053146,5.235836,6.64728,3.112762,8.472958,-0.1242216,-0.3778963,1.449027,0.2045081,-0.3934994,1.411517,0.08141903,0.4928036,1.563632,-0.07744046,-0.376671,1.427216,0.1595435,-0.3827356,1.395287,0.05359296,0.01975797,1.568474,0.04695569,-0.3108358,1.551117,-0.1139429,0.1967164,1.542063,-0.03771363,-0.3032278,1.514742,-0.1624183,-0.0747874,1.519453,0.2671429,-0.0823936,1.50534,NA,NA,NotTracked,Unknown,
0.9360352,-0.3310547,0.08740234,0.9077148,0.3125,0.190918,2,-4,2,0,-2,-1,-2,-3,1,0,-2,-2,-1,-4,-2,-1,2.5,2.5,2.5,-1.5,-1.5,-1.5,2.845641,3.054884,5.235003,6.64401,3.111474,8.473789,-0.1242803,-0.3792571,1.448038,0.2044387,-0.3941622,1.411013,0.08153702,0.4928182,1.563363,-0.07808149,-0.365318,1.43319,0.1596462,-0.3830009,1.394867,0.05361117,0.0198103,1.568528,0.04691673,-0.3107934,1.55118,-0.1138693,0.1967835,1.54225,-0.03774926,-0.3031642,1.514785,-0.1624258,-0.0747845,1.519453,0.2671795,-0.08233229,1.505456,NA,NA,NotTracked,Unknown,
0.9365234,-0.3378906,0.08398438,0.9067383,0.3203125,0.1884766,-2,1,0,-2,-1,-1,1,-1,-1,-2,-2,-1,-1,1,1,1,1.3125,1.3125,1.3125,-1.375,-1.375,-1.375,2.848331,3.0571,5.235593,6.643439,3.112067,8.473052,-0.1241545,-0.3798056,1.447677,0.205081,-0.3940425,1.411541,0.08159462,0.4928342,1.563259,-0.07814967,-0.3650882,1.43315,0.1600097,-0.3838766,1.394724,0.0536067,0.0198181,1.568543,0.04687328,-0.3107911,1.551206,-0.1138651,0.1967715,1.542387,-0.03782456,-0.3031148,1.514806,-0.1624217,-0.07487793,1.519525,0.2671954,-0.08233231,1.505494,NA,NA,NotTracked,Unknown,
1.001953,-0.3496094,0.06445313,0.9150391,0.3227539,0.1860352,-6,-3,-4,-7,-18,-15,-2,-19,-34,-1,6,6,1,0,1,6,10.625,10.625,10.625,-0.0625,-0.0625,-0.0625,2.871959,3.065279,5.221891,6.644744,3.113449,8.471665,-0.1243267,-0.3799113,1.448057,0.2045999,-0.3939145,1.41107,0.08163069,0.4928021,1.563225,-0.07781297,-0.3645281,1.433426,0.1592535,-0.3845087,1.394748,0.05365341,0.0197994,1.568633,0.04688926,-0.3108074,1.551267,-0.1137782,0.1967325,1.542627,-0.03780721,-0.3031093,1.514884,-0.1624022,-0.07504509,1.519457,0.2672349,-0.08240788,1.505549,NA,NA,NotTracked,Unknown,
1.037598,-0.3842773,0.1381836,0.9555664,0.3530273,0.1772461,-3,-2,-3,-7,-14,4,-7,9,-11,13,27,5,0,-1,-2,0,54.875,54.875,54.875,-7.625,-7.625,-7.625,3.023812,3.107426,5.124591,6.636825,3.14386,8.474932,-0.1234743,-0.3800007,1.445237,0.2030617,-0.3935577,1.406434,0.08165951,0.4928083,1.563253,-0.07785644,-0.3750212,1.425441,0.1578792,-0.3744979,1.39845,0.05364072,0.01980761,1.568716,0.04683373,-0.3107966,1.551282,-0.1136984,0.1966605,1.542959,-0.03787269,-0.3030706,1.514892,-0.1625384,-0.07495745,1.519804,0.2674848,-0.08192375,1.505912,NA,NA,Unknown,Unknown,
0.9926758,-0.4560547,0.1811523,0.9404297,0.4135742,0.2275391,-3,-3,0,-7,-12,-17,-20,-1,-1,7,6,5,0,2,2,-9,38,38,38,4.875,4.875,4.875,3.219016,3.21542,5.006366,6.601331,3.213273,8.511705,-0.1208368,-0.3825244,1.431878,0.1994091,-0.388938,1.393968,0.08174222,0.4927836,1.563498,-0.07921934,-0.3751634,1.416512,0.155192,-0.3754221,1.388164,0.0539091,0.01972383,1.568231,0.04729065,-0.3108296,1.55118,-0.1139074,0.1964355,1.54227,-0.03730384,-0.3034159,1.514851,-0.163506,-0.07165322,1.522734,0.2686373,-0.08013054,1.508702,NA,NA,Unknown,Unknown,
0.9145508,-0.5761719,0.3525391,0.9155273,0.5458984,0.3759766,8,5,7,8,4,0,5,9,-4,-9,-6,-2,-1,-2,-2,-2,19.75,19.75,19.75,4.875,4.875,4.875,3.338851,3.48228,4.933392,6.527627,3.416902,8.597225,-0.1186519,-0.3638217,1.398669,0.1886772,-0.3688967,1.365239,0.08185446,0.4928736,1.563667,-0.08167062,-0.3384779,1.432686,0.147591,-0.3544742,1.353773,0.05390362,0.01973308,1.568233,0.04710269,-0.3108035,1.551066,-0.1138693,0.1963068,1.543106,-0.03761303,-0.3034489,1.514838,-0.1661279,-0.06808629,1.529338,0.2709394,-0.07425782,1.515109,NA,NA,Unknown,Unknown,
0.8613281,-0.7402344,0.4189453,0.8759766,0.6230469,0.4707031,9,5,2,-8,-5,-4,-14,-11,-1,-7,-10,-2,-1,-2,-1,-2,-0.4375,-0.4375,-0.4375,4.125,4.125,4.125,3.341801,3.744067,4.93423,6.511538,3.653549,8.629825,-0.1220296,-0.3148508,1.36321,0.1790203,-0.3235084,1.329612,0.08201959,0.4928582,1.563801,-0.08448656,-0.3069312,1.369615,0.1479883,-0.3133828,1.305407,0.053827,0.01978737,1.568112,0.0464037,-0.3106537,1.550429,-0.1139174,0.1962046,1.543988,-0.03853526,-0.3034323,1.514487,-0.1677559,-0.06571691,1.534612,0.2727717,-0.06696733,1.520994,NA,NA,Unknown,Unknown,
0.6484375,-0.7578125,0.434082,0.7241211,0.6914063,0.5063477,-14,-19,-23,-9,-6,-5,-5,-19,-2,5,-7,-7,-8,-31,-69,-59,-15.1875,-15.1875,-15.1875,26.5,26.5,26.5,3.333992,4.043923,4.922134,6.523201,3.931293,8.643961,-0.1086347,-0.2592216,1.348505,0.1617207,-0.2586693,1.327847,0.08229573,0.4929602,1.563971,-0.08245563,-0.2898871,1.27475,0.1375002,-0.3035955,1.318667,0.05371052,0.01987107,1.567904,0.04569737,-0.3103966,1.549498,-0.1140431,0.1964268,1.544619,-0.03918488,-0.3032148,1.513912,-0.1704875,-0.05951167,1.540352,0.2750034,-0.05636407,1.526741,NA,NA,Closed,Closed,
0.3608398,-0.7084961,0.4321289,0.5400391,0.7016602,0.5092773,-1,-3,-4,1,4,4,-4,-1,-50,-24,-12,-6,-1,-9,-32,-4,-19.6875,-19.6875,-19.6875,-15.5625,-15.5625,-15.5625,3.290129,4.467245,4.889627,6.525486,4.336988,8.642333,-0.1133607,-0.2001847,1.281186,0.1591592,-0.1825717,1.277642,0.08249824,0.4929639,1.564025,-0.08163809,-0.1907279,1.249143,0.1239237,-0.1684769,1.265625,0.05364747,0.01998884,1.567876,0.0452736,-0.3099805,1.549488,-0.1141238,0.1967737,1.54553,-0.03933926,-0.302775,1.513856,-0.1764609,-0.04066287,1.55098,0.2768316,-0.04987296,1.531614,NA,NA,Unknown,Unknown,
0.3149414,-0.8901367,0.4902344,0.2807617,0.7773438,0.5087891,-7,-10,-5,1,-3,-1,3,17,-45,-10,-4,-1,-6,-9,-6,3,-47.1875,-47.1875,-47.1875,21.625,21.625,21.625,3.251529,4.668791,4.866351,6.541361,4.642899,8.653881,-0.1081225,-0.1215071,1.262897,0.1506853,-0.105405,1.257776,0.08279835,0.4930103,1.563925,-0.06695317,-0.1063658,1.2725,0.113257,-0.1030648,1.233,0.05370301,0.0202532,1.568009,0.04527893,-0.3091136,1.550341,-0.1142407,0.1973575,1.54624,-0.0392089,-0.3017748,1.514567,-0.1791712,-0.03136995,1.55367,0.3311681,-0.05614536,1.527784,NA,NA,Closed,Closed,
0.03466797,-0.6318359,0.3564453,0.1606445,0.6845703,0.4633789,5,4,-4,-2,1,-2,-7,-1,5,10,-5,2,1,1,-4,-1,-16.9375,-16.9375,-16.9375,5.3125,5.3125,5.3125,3.236976,5.033423,4.804484,6.549282,4.832339,8.662041,-0.07558452,-0.05064495,1.248825,0.1512137,-0.04036033,1.255263,0.08289955,0.4930236,1.563804,-0.07460107,-0.0339861,1.2265,0.1243319,-0.01846207,1.24275,0.05371264,0.02062402,1.568217,0.04506915,-0.3078727,1.551628,-0.1140457,0.1982251,1.546549,-0.03934775,-0.3002419,1.51558,-0.2252083,-0.03349569,1.554538,0.33335,-0.06049503,1.525995,NA,NA,Closed,Closed,
-0.1625977,-0.5961914,0.2749023,-0.1225586,0.5595703,0.4277344,4,0,0,4,2,-2,2,16,-16,-2,0,-3,-7,-6,-6,9,-2.1875,-2.1875,-2.1875,6.375,6.375,6.375,3.207644,5.217968,4.767933,6.571964,5.129687,8.681672,-0.09425586,0.0006040515,1.266374,0.1427759,0.008461379,1.261084,0.08321157,0.4930547,1.563306,-0.05069736,0.004751978,1.2995,0.1216099,0.03094998,1.261333,0.05370023,0.02101561,1.568309,0.04479121,-0.3068594,1.552481,-0.1139642,0.198822,1.546682,-0.03944639,-0.2992057,1.516112,-0.2055981,-0.02932414,1.549149,0.2891368,-0.04568896,1.516764,NA,NA,Closed,Unknown,
-0.1943359,-0.5268555,0.206543,-0.2231445,0.5107422,0.3305664,-3,1,0,-1,1,6,16,-23,0,-5,-9,-2,-2,-2,-1,31,-5.375,-5.375,-5.375,12.5625,12.5625,12.5625,3.197264,5.263982,4.757404,6.598654,5.225791,8.694448,-0.09286375,0.01004489,1.274296,0.1458385,0.001408534,1.284239,0.08327349,0.4930584,1.563149,-0.05668921,0.004821278,1.287167,0.1121408,-0.009961494,1.385,0.05395514,0.02098364,1.567653,0.04609137,-0.3069598,1.552492,-0.1146306,0.1984768,1.542774,-0.03825039,-0.2996949,1.51585,-0.1959563,-0.03284329,1.538603,0.3304674,-0.08526447,1.532054,NA,NA,Closed,Closed,
-0.284668,-0.6577148,0.6015625,-0.168457,0.5800781,0.2875977,3,0,-3,-4,-2,0,-9,0,12,-2,-3,-3,-1,0,-1,-7,-7,-7,-7,4.4375,4.4375,4.4375,3.195583,5.043167,4.807079,6.613276,5.161178,8.689551,-0.09357649,-0.02006949,1.260498,0.1354979,-0.02295413,1.255491,0.0832971,0.493066,1.563117,-0.05646297,-0.02748292,1.280571,0.1153145,-0.004743523,1.255143,0.05392778,0.02129132,1.567894,0.04601497,-0.3064657,1.552745,-0.114408,0.1993133,1.544097,-0.03822389,-0.2990541,1.515868,-0.231284,-0.06330191,1.553621,0.328082,-0.0854816,1.529167,NA,NA,Closed,Unknown,
0.4155273,-0.8632813,0.4980469,0.1884766,0.8007813,0.4711914,-7,0,2,1,1,8,-12,-2,-1,1,1,6,-1,-4,-4,-11,3.0625,3.0625,3.0625,4.4375,4.4375,4.4375,3.20285,4.575098,4.922107,6.608538,4.688653,8.674207,-0.10438,-0.09993967,1.245874,0.1451848,-0.1138274,1.244945,0.08333051,0.4929924,1.563294,-0.06561887,-0.09130909,1.248,0.1080729,-0.1124109,1.2255,0.05389773,0.02128351,1.567838,0.0462734,-0.3065777,1.552529,-0.114516,0.1990361,1.543672,-0.03780215,-0.299409,1.515479,-0.1904563,-0.02600111,1.547483,0.2838258,-0.04577231,1.522839,NA,NA,Unknown,Closed,
0.9282227,-1.09082,0.6171875,0.6870117,0.8217773,0.4033203,-1,-3,-3,-1,-3,-9,-9,7,-4,-14,-5,-4,1,4,2,7,24.375,24.375,24.375,-9.5,-9.5,-9.5,3.211027,4.220467,4.999489,6.605243,4.313902,8.648158,-0.1153528,-0.1935824,1.260335,0.1510713,-0.2139879,1.25596,0.08350639,0.4928511,1.564136,-0.07909216,-0.1822614,1.272083,0.1091762,-0.2020289,1.26525,0.05361117,0.02120445,1.567971,0.04467091,-0.3071016,1.551028,-0.1142822,0.1986714,1.544761,-0.03913717,-0.2995677,1.513796,-0.1866052,-0.02821355,1.541406,0.3113426,-0.04569732,1.516637,NA,NA,Closed,Unknown,
0.9760742,-0.9077148,0.4726563,0.8657227,1.008301,0.4370117,6,2,4,2,1,-1,7,-2,-9,2,-2,3,-2,-2,-9,-3,6.75,6.75,6.75,18,18,18,3.233017,3.989943,5.013028,6.639032,3.978027,8.67035,-0.1183282,-0.2553091,1.285995,0.1532175,-0.2643511,1.279455,0.08382666,0.4927259,1.565409,-0.09321773,-0.2401981,1.238636,0.104889,-0.2636573,1.2985,0.05345798,0.02110538,1.567919,0.04401971,-0.308044,1.548911,-0.1141693,0.1983685,1.545651,-0.0399064,-0.3002418,1.512032,-0.1781192,-0.03751357,1.534307,0.2754163,-0.04766672,1.507533,NA,NA,Unknown,Closed,
0.6098633,-0.8291016,0.3745117,0.6953125,0.7319336,0.4462891,-1,-4,-3,-1,0,4,17,-1,-13,-3,-2,-2,-3,2,10,1,12.625,12.625,12.625,-8.6875,-8.6875,-8.6875,3.242654,3.899815,5.005097,6.60029,3.885761,8.693847,-0.1163253,-0.2736684,1.299602,0.1525838,-0.276376,1.296206,0.08392666,0.4927692,1.566004,-0.08229488,-0.2625677,1.262282,0.1234156,-0.2868931,1.371286,0.0531665,0.02087395,1.567631,0.04374257,-0.3089451,1.547378,-0.1142523,0.1981421,1.545787,-0.04048626,-0.3010246,1.510697,-0.1742468,-0.04430056,1.530561,0.2729859,-0.04842241,1.506575,NA,NA,Closed,Closed,
0.5952148,-0.6757813,0.3608398,0.5942383,0.7001953,0.3930664,-7,-2,-2,-2,1,-1,4,2,7,1,-2,-4,-1,-2,-2,-3,-13.6875,-13.6875,-13.6875,-8.625,-8.625,-8.625,3.242785,3.889139,4.999524,6.606456,3.881145,8.686589,-0.1173577,-0.2760877,1.305131,0.1566627,-0.2769562,1.295678,0.08391089,0.4929579,1.56635,-0.07765152,-0.2695535,1.296286,0.1219663,-0.2643963,1.310308,0.05291964,0.02091012,1.567102,0.04348556,-0.3090369,1.546473,-0.114314,0.1981056,1.545809,-0.04094493,-0.3011867,1.510002,-0.1726573,-0.04630169,1.529389,0.2717177,-0.04892647,1.506326,NA,NA,Closed,Unknown,
0.6401367,-0.6743164,0.3520508,0.6176758,0.6303711,0.4106445,2,0,-2,-2,-3,1,1,13,-18,0,0,1,-1,-5,-13,-24,0.3125,0.3125,0.3125,0.8125,0.8125,0.8125,3.234044,3.879941,4.996491,6.605753,3.881018,8.681185,-0.1164028,-0.2787802,1.30507,0.1581315,-0.2751072,1.295499,0.08385145,0.4930636,1.566342,-0.07509089,-0.2737303,1.3071,0.1212096,-0.2674048,1.299546,0.0525675,0.02096009,1.566444,0.04327089,-0.3091221,1.545507,-0.1143433,0.1981032,1.545799,-0.04126981,-0.3013491,1.509248,-0.171718,-0.04805248,1.528091,0.2707267,-0.04965311,1.506033,NA,NA,Closed,Closed,
0.644043,-0.6464844,0.3232422,0.6347656,0.5859375,0.3466797,1,3,0,-1,-4,-1,0,10,-4,1,-1,0,0,-1,1,5,-13.75,-13.75,-13.75,-0.375,-0.375,-0.375,3.221012,3.833144,4.99497,6.605843,3.86056,8.669846,-0.117079,-0.2841708,1.307449,0.160545,-0.2767482,1.297068,0.08368748,0.4932106,1.566355,-0.07752078,-0.2764844,1.3105,0.1172759,-0.2696941,1.2876,0.05226946,0.02095855,1.566121,0.04306819,-0.3092204,1.545122,-0.1144795,0.1980802,1.545778,-0.04155153,-0.3015004,1.508892,-0.1711351,-0.04956659,1.527068,0.2700264,-0.05032768,1.505806,NA,NA,Closed,Closed,
0.6811523,-0.5839844,0.2983398,0.6303711,0.5703125,0.3378906,1,1,0,1,0,-1,-5,0,-1,0,0,-1,0,-2,1,-1,18.125,18.125,18.125,1,1,1,3.22772,3.768981,5.002759,6.616804,3.817615,8.657814,-0.1177335,-0.2958677,1.313919,0.1632632,-0.2874553,1.299236,0.08353513,0.4932693,1.566268,-0.08313809,-0.2953694,1.277792,0.1331611,-0.2738816,1.315539,0.05202906,0.02088,1.565795,0.04286999,-0.3094698,1.544489,-0.1147811,0.1978825,1.545627,-0.04187929,-0.3017986,1.508304,-0.1709345,-0.05124531,1.525622,0.2691547,-0.05197413,1.505226,NA,NA,Closed,Closed,
0.7763672,-0.5195313,0.2910156,0.6796875,0.5551758,0.3212891,0,2,0,0,0,2,-13,-9,6,-1,1,1,1,0,-4,2,-12.375,-12.375,-12.375,-33,-33,-33,3.221239,3.656948,5.004832,6.608531,3.734206,8.62967,-0.1162143,-0.3151499,1.326897,0.1690312,-0.3069936,1.310668,0.08330858,0.4933331,1.566121,-0.08048832,-0.3078883,1.335357,0.130836,-0.3075095,1.302546,0.05172381,0.02081124,1.565255,0.04272766,-0.3096607,1.543893,-0.1149759,0.197682,1.545385,-0.04216114,-0.3020703,1.507813,-0.1701312,-0.05415983,1.522568,0.2678861,-0.05462454,1.504528,NA,NA,Closed,Unknown,
0.8374023,-0.4428711,0.2797852,0.7719727,0.5463867,0.2973633,4,5,2,-1,-1,2,3,-2,-3,-6,-2,-2,1,-2,6,3,-26.1875,-26.1875,-26.1875,15.75,15.75,15.75,3.220019,3.458778,4.951567,6.617637,3.564866,8.607877,-0.1135725,-0.3431028,1.350494,0.1772293,-0.3424034,1.329152,0.08296079,0.4933479,1.56598,-0.07660446,-0.330548,1.355952,0.1376461,-0.3416694,1.328364,0.05147274,0.02038837,1.564215,0.04272692,-0.3100382,1.543446,-0.1155413,0.1971026,1.542419,-0.04225108,-0.302794,1.507398,-0.1686803,-0.05827485,1.51846,0.2667608,-0.06056876,1.503226,NA,NA,Closed,Unknown,
0.9174805,-0.3759766,0.2294922,0.7788086,0.4814453,0.246582,-2,4,3,1,-5,-7,1,-2,2,-2,-2,0,-1,2,-6,-3,-37.9375,-37.9375,-37.9375,-75.1875,-75.1875,-75.1875,3.185697,3.290307,4.936181,6.561732,3.436944,8.5894,-0.108218,-0.3673527,1.381311,0.1850436,-0.3771183,1.358592,0.08266447,0.4934131,1.566012,-0.07014006,-0.3539878,1.3802,0.1539521,-0.3496775,1.372667,0.05135908,0.02042297,1.56399,0.04270865,-0.3100746,1.543126,-0.1156009,0.1970806,1.542324,-0.04232808,-0.3029434,1.507077,-0.1683605,-0.06020802,1.516364,0.2659359,-0.06687182,1.501378,NA,NA,Unknown,Unknown,
0.9995117,-0.5327148,0.1806641,0.9248047,0.09765625,0.2353516,-6,1,-1,-5,-4,-4,-2,-7,0,0,-3,-1,-3,-1,0,0,-14.5625,-14.5625,-14.5625,-55.875,-55.875,-55.875,3.052387,3.166162,4.984603,6.463724,3.257433,8.539784,-0.1056562,-0.3742098,1.417274,0.1936341,-0.3877701,1.397988,0.08238563,0.4934125,1.566127,-0.06362816,-0.3712933,1.396728,0.147122,-0.3784497,1.390479,0.0515835,0.02024664,1.563365,0.04357866,-0.3103456,1.542756,-0.1159245,0.1969327,1.540463,-0.04127716,-0.3035625,1.506534,-0.167111,-0.06090303,1.513721,0.2652206,-0.07155641,1.499668,NA,NA,Unknown,Unknown,
0.9663086,-0.2275391,0.1884766,0.7861328,0.2167969,-0.1625977,0,1,-2,-2,0,-1,-1,1,-2,-2,-1,-4,-4,0,4,1,17.25,17.25,17.25,23.5,23.5,23.5,3.062822,3.071008,5.091676,6.66306,3.108873,8.384871,-0.123873,-0.3183824,1.44663,0.2027969,-0.3930677,1.410586,0.0820854,0.4933763,1.566362,-0.08424354,-0.2503139,1.436188,0.1551082,-0.3752009,1.396834,0.0520275,0.01988035,1.562741,0.04527286,-0.3111785,1.542619,-0.1160627,0.1969534,1.538745,-0.03902349,-0.3049378,1.506184,-0.1668268,-0.06124563,1.513327,0.2641046,-0.07755183,1.49863,NA,NA,Unknown,Unknown,
0.8876953,-0.5336914,0.2021484,0.9018555,0.2426758,0.2890625,4,-5,-4,-4,-1,-1,0,-4,-5,-2,0,1,0,-2,-3,-2,-102.125,-102.125,-102.125,-1.9375,-1.9375,-1.9375,2.904198,3.0829,5.120129,6.637121,3.102965,8.29957,-0.1164962,-0.3693094,1.439303,0.2083897,-0.3937581,1.410457,0.08204879,0.4933571,1.566372,-0.07190958,-0.3428512,1.429492,0.1601471,-0.3745172,1.39654,0.05211226,0.01985534,1.562581,0.04539385,-0.3112161,1.542593,-0.1159689,0.19706,1.538518,-0.03893139,-0.3047779,1.506084,-0.1661285,-0.06537665,1.513058,0.2643073,-0.08037185,1.498754,NA,NA,NotTracked,Unknown,
0.9106445,-0.2939453,0.1342773,0.887207,0.3652344,0.2734375,-1,0,1,0,0,2,1,-3,-2,-2,1,-1,-1,-1,-1,1,11.0625,11.0625,11.0625,54.1875,54.1875,54.1875,2.884733,3.090865,5.114487,6.719865,3.113512,8.308246,-0.1201684,-0.3716593,1.439652,0.209239,-0.393236,1.408712,0.08210259,0.4933504,1.566144,-0.07200669,-0.364394,1.4225,0.1592356,-0.3748947,1.394425,0.05213653,0.01978144,1.562392,0.04543399,-0.3112937,1.542609,-0.1159031,0.1972506,1.538065,-0.03892142,-0.3047653,1.506049,-0.1660191,-0.06867611,1.512086,0.2646487,-0.08157535,1.49901,NA,NA,NotTracked,Unknown,
0.9667969,-0.3227539,0.1152344,0.9370117,0.3354492,0.1088867,-9,-9,-5,-3,-3,0,0,-2,-1,-1,-2,0,-1,0,-2,-1,7.8125,7.8125,7.8125,21.0625,21.0625,21.0625,2.882403,3.08195,5.133276,6.756497,3.10913,8.312376,-0.1218397,-0.3745973,1.438385,0.2090235,-0.3942956,1.40872,0.08219488,0.4933805,1.565787,-0.07504492,-0.3499611,1.431069,0.1607462,-0.3861039,1.392577,0.0521287,0.01971074,1.562286,0.0454816,-0.3113949,1.542625,-0.1158994,0.1971656,1.537741,-0.03891507,-0.3047595,1.506012,-0.1658732,-0.07023189,1.511211,0.2646228,-0.08194458,1.49902,NA,NA,NotTracked,Unknown,
0.9438477,-0.3657227,0.03125,0.9145508,0.3115234,0.1313477,-2,0,-2,-2,-3,-2,-2,2,-1,-1,0,-2,0,-2,-1,0,3.4375,3.4375,3.4375,-16.8125,-16.8125,-16.8125,2.887412,3.076623,5.145071,6.767507,3.110445,8.29743,-0.1209198,-0.3749646,1.437031,0.2089574,-0.393164,1.40715,0.08224569,0.4931819,1.564967,-0.07427309,-0.3494317,1.428664,0.1581742,-0.4018378,1.3846,0.05210461,0.01961861,1.562132,0.04551946,-0.3114441,1.542603,-0.1158541,0.1971872,1.537483,-0.0388786,-0.304712,1.505855,-0.1657998,-0.07099333,1.510763,0.2646293,-0.08222649,1.498972,NA,NA,NotTracked,Unknown,
0.9267578,-0.3393555,0.08398438,0.9067383,0.3037109,0.1782227,-4,-1,1,0,0,-2,-1,-3,-2,-2,-1,-1,0,2,-5,-1,24.8125,24.8125,24.8125,-13.5,-13.5,-13.5,2.908056,3.082629,5.156613,6.74034,3.107927,8.301872,-0.1202947,-0.3778185,1.438149,0.2095585,-0.3932763,1.40818,0.08213736,0.4930053,1.564194,-0.07366396,-0.3695889,1.421406,0.1628332,-0.37672,1.395881,0.05215944,0.01955097,1.562065,0.04564057,-0.3114983,1.542578,-0.1158488,0.1970951,1.537386,-0.03880752,-0.3046497,1.505809,-0.1655061,-0.07203586,1.510546,0.2647119,-0.08241615,1.499078,NA,NA,NotTracked,Unknown,
0.9277344,-0.3286133,0.1308594,0.9155273,0.3256836,0.1708984,1,-4,-4,-1,-2,-2,0,-1,-2,-1,-1,0,0,-3,-1,0,-2.6875,-2.6875,-2.6875,4.25,4.25,4.25,2.9076,3.072504,5.174467,6.729849,3.103152,8.302851,-0.1219004,-0.3783984,1.439252,0.2098281,-0.3938895,1.408817,0.08194009,0.4928664,1.563006,-0.07487478,-0.3576044,1.427872,0.1626121,-0.3779905,1.395164,0.05217774,0.01947431,1.561983,0.04568765,-0.3115837,1.54258,-0.1157998,0.1969393,1.537158,-0.03878606,-0.3046452,1.505787,-0.1653382,-0.07233351,1.510666,0.2649292,-0.082835,1.499135,NA,NA,NotTracked,Unknown,
0.9570313,-0.3291016,0.1103516,0.9086914,0.3115234,0.1665039,2,0,3,4,1,0,-1,-2,0,2,0,-2,-1,-1,0,-2,0.375,0.375,0.375,8.25,8.25,8.25,2.909448,3.068267,5.176208,6.73764,3.102694,8.303527,-0.122357,-0.3779941,1.439739,0.2101059,-0.3914518,1.409247,0.08154543,0.4926452,1.561568,-0.07477526,-0.3601108,1.42662,0.1613296,-0.3809582,1.393299,0.0522109,0.01943827,1.56187,0.04573068,-0.3115912,1.542601,-0.1158028,0.1969137,1.537004,-0.03874889,-0.3045931,1.50579,-0.1651858,-0.07307442,1.510449,0.2650468,-0.08311202,1.499059,NA,NA,NotTracked,Unknown,
0.9448242,-0.3374023,0.08398438,0.9135742,0.3125,0.1479492,3,1,-3,-2,-3,-2,0,-1,-1,-1,0,0,0,-1,-2,-1,-4.8125,-4.8125,-4.8125,5.125,5.125,5.125,2.91433,3.069603,5.167264,6.753552,3.09743,8.305425,-0.1219531,-0.3782073,1.438977,0.2097987,-0.3907258,1.407938,0.08144641,0.49249,1.560221,-0.07624929,-0.353988,1.430504,0.1626134,-0.3769735,1.394978,0.05225419,0.01933783,1.561698,0.04576635,-0.3116406,1.54261,-0.1158247,0.1968654,1.536928,-0.03873519,-0.3045898,1.505801,-0.1649935,-0.07360055,1.510612,0.2651438,-0.08351416,1.498949,NA,NA,NotTracked,Unknown,
0.9311523,-0.3295898,0.09472656,0.9125977,0.3100586,0.1582031,-4,-11,-6,-4,-1,-1,-3,-2,1,-3,1,-1,-2,-1,4,-1,-1.75,-1.75,-1.75,-0.375,-0.375,-0.375,2.908598,3.070458,5.164529,6.754635,3.096054,8.306315,-0.1222393,-0.3781604,1.439276,0.2097978,-0.3937417,1.407504,0.08132616,0.4921765,1.559292,-0.07553941,-0.3580045,1.427952,0.1622354,-0.3796301,1.393753,0.05225915,0.01918071,1.561515,0.04579961,-0.311766,1.54264,-0.1158957,0.1967246,1.536764,-0.03872943,-0.3046128,1.505804,-0.1649754,-0.07366094,1.510668,0.2652417,-0.0837828,1.498713,NA,NA,NotTracked,Unknown,
0.9365234,-0.3261719,0.1040039,0.9179688,0.3051758,0.1601563,-1,-1,1,-1,-3,-2,-2,-1,-1,1,-2,-2,0,0,0,-1,-1.875,-1.875,-1.875,0.0625,0.0625,0.0625,2.906662,3.068052,5.164953,6.753622,3.09387,8.308537,-0.1162806,-0.4011091,1.437055,0.2096855,-0.3931518,1.406774,0.08124718,0.4921134,1.558676,-0.06880906,-0.3785675,1.425671,0.1627197,-0.3780863,1.394117,0.05268278,0.01908299,1.560991,0.04711507,-0.3118256,1.542536,-0.1159558,0.1966775,1.535795,-0.03723424,-0.3048925,1.505774,-0.1647793,-0.07203063,1.51069,0.2653099,-0.08398722,1.498527,NA,NA,NotTracked,Unknown,
0.9345703,-0.3295898,0.09960938,0.9169922,0.3110352,0.1538086,-9,-6,-4,-4,-2,-2,-2,-2,-4,-1,0,-1,-3,2,-1,-1,-2.3125,-2.3125,-2.3125,-1.75,-1.75,-1.75,2.905422,3.066671,5.163136,6.752572,3.09329,8.308222,-0.1224489,-0.3782481,1.438813,0.2097402,-0.3930248,1.40666,0.08115909,0.4920326,1.558139,-0.0756512,-0.3577389,1.429038,0.1624953,-0.3779781,1.39365,0.05268557,0.01902832,1.560891,0.04707979,-0.3118653,1.542549,-0.1159279,0.1965542,1.535681,-0.03727222,-0.3048917,1.505782,-0.1646223,-0.07268948,1.510755,0.2654192,-0.084094,1.498398,NA,NA,NotTracked,Unknown,
0.9345703,-0.3286133,0.09716797,0.9189453,0.3085938,0.1552734,-1,-5,1,-1,-2,0,-1,-2,1,-1,-1,-2,0,0,0,1,-0.5,-0.5,-0.5,-0.5625,-0.5625,-0.5625,2.904043,3.065924,5.161967,6.748033,3.092455,8.30818,-0.1220699,-0.3779102,1.438835,0.2098709,-0.3931289,1.407294,0.08104454,0.4920411,1.55776,-0.07572594,-0.3716726,1.423014,0.162848,-0.3781515,1.39457,0.05270337,0.01902333,1.560812,0.04705041,-0.3118669,1.542553,-0.1159248,0.1965333,1.535658,-0.03734196,-0.3048176,1.505761,-0.1646363,-0.07284358,1.510769,0.2654627,-0.08414102,1.498382,NA,NA,NotTracked,Unknown,
0.9379883,-0.3261719,0.09667969,0.9111328,0.3134766,0.1542969,3,1,-3,-4,-2,-3,-3,-1,-1,-3,0,1,0,0,-3,-3,-0.25,-0.25,-0.25,0.0625,0.0625,0.0625,2.905398,3.065742,5.160769,6.7482,3.091927,8.308389,-0.1224409,-0.3789356,1.439493,0.209956,-0.3934091,1.40774,0.08101083,0.4920469,1.557245,-0.07669444,-0.3731295,1.421327,0.1628918,-0.3781017,1.394508,0.05272034,0.01901319,1.560738,0.04704721,-0.3118801,1.542552,-0.1159369,0.1965065,1.535615,-0.03735292,-0.304802,1.505769,-0.1645453,-0.07332026,1.51075,0.265485,-0.08423084,1.49828,NA,NA,NotTracked,Unknown,
