ALX,ALY,ALZ,ARX,ARY,ARZ,EMG0L,EMG1L,EMG2L,EMG3L,EMG4L,EMG5L,EMG6L,EMG7L,EMG0R,EMG1R,EMG2R,EMG3R,EMG4R,EMG5R,EMG6R,EMG7R,GLX,GLY,GLZ,GRX,GRY,GRZ,ORL,OPL,OYL,ORR,OPR,OYR,LHNX,LHNY,LHNZ,RHNX,RHNY,RHNZ,HX,HY,HZ,LTX,LTY,LTZ,RTX,RTY,RTZ,SpineMidX,SpineMidY,SpineMidZ,SpineBaseX,SpineBaseY,SpineBaseZ,ShoulderLeftX,ShoulderLeftY,ShoulderLeftZ,ShoulderRightX,ShoulderRightY,ShoulderRightZ,ElbowLeftX,ElbowLeftY,ElbowLeftZ,ElbowRightX,ElbowRightY,ElbowRightZ,Myo_Pose_left,Myo_Pose_Right,Kinect_pose_left,Kinect_pose_right
0.9384766,-0.324707,0.08691406,0.9111328,0.315918,0.1591797,-3,-5,-3,-4,0,-1,-1,1,0,-1,0,0,-1,0,-1,0,0.625,0.625,0.625,-1.3125,-1.3125,-1.3125,2.93309,3.056782,5.132477,6.737001,3.083765,8.28622,-0.1207762,-0.3791071,1.449247,0.2124836,-0.3970908,1.415688,0.08517818,0.4943575,1.564221,-0.07504319,-0.3643473,1.43445,0.1651833,-0.3863037,1.399793,0.05612838,0.02051483,1.56792,0.04845166,-0.3106748,1.550927,-0.1111516,0.1980603,1.542357,-0.0363581,-0.302502,1.514231,-0.1611782,-0.07498959,1.519709,0.2693502,-0.08508135,1.506351,NA,NA,NotTracked,Unknown,
0.934082,-0.3349609,0.08935547,0.9106445,0.3134766,0.1572266,0,-5,-5,-2,0,1,2,0,-1,-4,-2,-1,0,-1,0,-2,1.3125,1.3125,1.3125,0.4375,0.4375,0.4375,2.931936,3.05698,5.135091,6.735627,3.084314,8.28649,-0.1200988,-0.3796254,1.449387,0.2123109,-0.3970656,1.415754,0.08520784,0.4944804,1.565051,-0.07516895,-0.3750302,1.428487,0.1641969,-0.38675,1.398968,0.05621123,0.02062072,1.568348,0.04855649,-0.310589,1.551232,-0.110996,0.1981865,1.5427,-0.03622881,-0.3023947,1.514541,-0.1610455,-0.0749791,1.520042,0.2694497,-0.08509784,1.506606,NA,NA,NotTracked,Unknown,
0.9360352,-0.3339844,0.09667969,0.9145508,0.3105469,0.1542969,0,-1,0,-1,-3,-1,0,-2,2,-5,-2,0,-1,-1,-1,0,0.3125,0.3125,0.3125,2.25,2.25,2.25,2.932343,3.056692,5.135018,6.735877,3.082942,8.289913,-0.1203109,-0.3799509,1.45008,0.2123845,-0.3967178,1.415976,0.08524196,0.494522,1.566043,-0.07496864,-0.3593737,1.437775,0.1641639,-0.3878019,1.399185,0.05635804,0.02081962,1.568921,0.04865963,-0.3103853,1.551708,-0.1107245,0.1984728,1.543464,-0.0360925,-0.3021929,1.515066,-0.1609528,-0.0748779,1.520515,0.2695449,-0.08487094,1.507143,NA,NA,NotTracked,Unknown,
0.934082,-0.3305664,0.08447266,0.9130859,0.3144531,0.1625977,10,-10,-4,-2,-1,-2,-3,-2,-2,-2,1,0,-2,-2,-2,-2,-0.6875,-0.6875,-0.6875,0.125,0.125,0.125,2.931863,3.05671,5.134911,6.737808,3.082039,8.290282,-0.1201767,-0.3794165,1.450327,0.2122341,-0.3971983,1.416176,0.08530579,0.4944602,1.566486,-0.07570168,-0.3812158,1.426446,0.1650529,-0.3802971,1.403041,0.05641908,0.02082318,1.569495,0.04872793,-0.3103885,1.552142,-0.1106029,0.1984706,1.543659,-0.03605086,-0.3021832,1.515272,-0.1608544,-0.07491466,1.52096,0.2697867,-0.08495692,1.507476,NA,NA,NotTracked,Unknown,
0.9321289,-0.3276367,0.09033203,0.9165039,0.309082,0.1591797,0,-2,3,5,-1,-1,-1,-1,1,-2,1,-1,0,-1,1,-1,1.0625,1.0625,1.0625,0.75,0.75,0.75,2.932709,3.056226,5.134552,6.737808,3.082039,8.290282,-0.1207744,-0.3744463,1.450624,0.2122393,-0.3966257,1.41573,0.08534059,0.4945123,1.56696,-0.07485146,-0.3682041,1.432682,0.1646801,-0.3839427,1.399619,0.05647205,0.02086231,1.569701,0.04882197,-0.3103515,1.552345,-0.1105077,0.1985229,1.543903,-0.03595653,-0.3021594,1.515504,-0.1607543,-0.07511313,1.521265,0.2697887,-0.08476635,1.507731,NA,NA,NotTracked,Unknown,
0.9355469,-0.3359375,0.09033203,0.9091797,0.3125,0.1552734,-1,-4,-4,-5,-4,-3,0,-2,0,-2,-3,-2,-2,-1,-2,-4,0.25,0.25,0.25,-0.75,-0.75,-0.75,2.932636,3.056495,5.134897,6.739749,3.082546,8.288812,-0.1206153,-0.3762238,1.451656,0.2127675,-0.3971611,1.417098,0.08530644,0.4945797,1.567279,-0.07537106,-0.3562773,1.440041,0.1647278,-0.3879636,1.399574,0.05658876,0.02088174,1.570128,0.04893142,-0.3103324,1.552963,-0.1104177,0.1985526,1.544181,-0.03582858,-0.3021677,1.516156,-0.1606344,-0.07526769,1.521696,0.2698753,-0.08468253,1.507997,NA,NA,NotTracked,Unknown,
0.9389648,-0.3330078,0.09082031,0.9150391,0.3139648,0.1669922,-8,-2,0,2,0,-1,-3,-2,1,0,0,-2,0,0,-1,-1,1.125,1.125,1.125,0.625,0.625,0.625,2.93304,3.056405,5.134614,6.739749,3.082546,8.288812,-0.120432,-0.3772382,1.451593,0.21324,-0.3899282,1.418786,0.08534446,0.4945723,1.567437,-0.07465377,-0.3612339,1.437416,0.1642718,-0.3863748,1.399511,0.05661024,0.02087051,1.570297,0.04897194,-0.3103535,1.553166,-0.1104004,0.1984597,1.544411,-0.03580303,-0.3021791,1.516304,-0.1603989,-0.07538588,1.522025,0.2698982,-0.08477359,1.508209,NA,NA,NotTracked,Unknown,
0.940918,-0.331543,0.08691406,0.9116211,0.3105469,0.1645508,-3,1,-1,0,-2,-2,0,-1,0,-2,-2,-1,0,-1,-2,-2,1.6875,1.6875,1.6875,0.8125,0.8125,0.8125,2.934731,3.057335,5.135872,6.739749,3.082546,8.288812,-0.1206926,-0.377115,1.452655,0.2134004,-0.392965,1.418905,0.08530214,0.4945564,1.567602,-0.07532284,-0.3552855,1.440761,0.1661969,-0.3786305,1.405047,0.05667193,0.02082032,1.570606,0.04913905,-0.3104321,1.553634,-0.1103951,0.1983458,1.544694,-0.03566398,-0.3022834,1.516696,-0.1602102,-0.07561803,1.522421,0.269991,-0.08480238,1.508487,NA,NA,NotTracked,Unknown,
0.9506836,-0.3476563,0.08886719,0.9116211,0.3164063,0.1577148,-1,-4,-2,-3,6,0,-7,-9,-9,-3,0,0,-2,1,1,1,3.3125,3.3125,3.3125,0.8125,0.8125,0.8125,2.937526,3.060398,5.137239,6.740783,3.08257,8.289491,-0.1202743,-0.3767095,1.452539,0.2133677,-0.3928442,1.419085,0.0852593,0.4945405,1.567632,-0.07478791,-0.3633772,1.43688,0.1671484,-0.3753132,1.407747,0.05668041,0.02076071,1.5709,0.04916643,-0.3104974,1.553982,-0.1104148,0.1983022,1.545037,-0.03560112,-0.3023337,1.517084,-0.1601252,-0.07576997,1.52281,0.2700749,-0.08478215,1.508796,NA,NA,NotTracked,Unknown,
1.017578,-0.3876953,0.1591797,0.9794922,0.3496094,0.137207,8,0,0,1,-1,-7,-13,-6,35,16,23,14,3,1,0,0,28.625,28.625,28.625,9.25,9.25,9.25,3.008611,3.081904,5.091003,6.736394,3.095852,8.304658,-0.119641,-0.3776194,1.451828,0.2129277,-0.392819,1.417069,0.08517347,0.494552,1.567819,-0.07106972,-0.3785445,1.43175,0.165774,-0.3805993,1.403424,0.0566541,0.0207636,1.571337,0.04907592,-0.3104171,1.55446,-0.1104241,0.1982603,1.54548,-0.03568944,-0.302252,1.517661,-0.160101,-0.07583835,1.523264,0.2703426,-0.08482599,1.50943,NA,NA,NotTracked,Unknown,
1.019531,-0.3828125,0.1347656,0.9936523,0.394043,0.2246094,-2,1,-2,-1,3,-2,-6,-2,13,1,3,3,0,-2,-4,-1,57.375,57.375,57.375,-11.5,-11.5,-11.5,3.245195,3.192999,4.974592,6.666348,3.15731,8.370932,-0.1191079,-0.3812518,1.440579,0.2117106,-0.3945823,1.403003,0.0850949,0.4945872,1.568009,-0.07459194,-0.375321,1.425885,0.1645768,-0.3887613,1.397092,0.05668151,0.02075233,1.571438,0.04912271,-0.3104046,1.554595,-0.1105877,0.1979961,1.545805,-0.03565792,-0.3022755,1.517873,-0.1605154,-0.07530347,1.525146,0.271039,-0.08344908,1.511996,NA,NA,NotTracked,Unknown,
0.9082031,-0.6137695,0.3178711,0.9101563,0.4311523,0.3012695,14,3,0,-9,-5,-3,10,17,4,0,-3,-4,-9,-2,2,36,18,18,18,-15.25,-15.25,-15.25,3.314332,3.359514,4.937434,6.568939,3.28229,8.459391,-0.1184679,-0.3700187,1.417093,0.2028408,-0.3823336,1.377203,0.08499257,0.494544,1.568096,-0.08014636,-0.3606323,1.40476,0.165133,-0.3844739,1.400389,0.05668893,0.02074071,1.571471,0.04907049,-0.3103894,1.554699,-0.1108057,0.1978296,1.546356,-0.03579945,-0.3023484,1.51814,-0.1625158,-0.07163891,1.531992,0.2724506,-0.07863386,1.518136,NA,NA,Unknown,Unknown,
0.921875,-0.5874023,0.3862305,0.8847656,0.5195313,0.4077148,0,2,17,9,3,-5,3,5,10,2,-1,-6,-10,-7,-5,5,12.375,12.375,12.375,2.8125,2.8125,2.8125,3.377623,3.660116,4.950583,6.522748,3.458641,8.509118,-0.1200735,-0.3344193,1.385533,0.1952372,-0.3394571,1.350036,0.08481859,0.4944703,1.568152,-0.07841805,-0.374689,1.403636,0.1634012,-0.3410789,1.3765,0.05660574,0.02071155,1.571501,0.04883957,-0.3103973,1.554787,-0.1110523,0.1974326,1.547063,-0.0362707,-0.302573,1.51843,-0.1646532,-0.06789101,1.54028,0.2741719,-0.07136117,1.524761,NA,NA,Unknown,Unknown,
0.8032227,-0.8110352,0.487793,0.8764648,0.5932617,0.4306641,2,-8,-5,-11,-12,-8,-1,0,-6,-4,1,-2,-1,-3,-5,-13,-13.375,-13.375,-13.375,7,7,7,3.358263,3.943934,4.955479,6.513777,3.672716,8.531894,-0.1210365,-0.2845871,1.352528,0.1853507,-0.2905917,1.314192,0.08453491,0.4943652,1.568075,-0.08008538,-0.2885233,1.341167,0.1548556,-0.2773996,1.323167,0.05609288,0.02057135,1.570889,0.048427,-0.3103846,1.554689,-0.1121655,0.1971397,1.545883,-0.03687509,-0.3027939,1.518601,-0.166188,-0.06398199,1.546062,0.2754944,-0.06402931,1.52954,NA,NA,Closed,Closed,
0.5195313,-0.8208008,0.4609375,0.7075195,0.7524414,0.5258789,11,8,11,7,-3,0,-7,5,-1,3,2,0,3,-3,-5,-9,-12.9375,-12.9375,-12.9375,13.8125,13.8125,13.8125,3.336246,4.271817,4.952445,6.542161,4.142372,8.539419,-0.1194872,-0.2300774,1.307006,0.1737096,-0.2242084,1.286228,0.08426674,0.4942847,1.567879,-0.08493747,-0.2279221,1.2801,0.1400475,-0.2099343,1.288125,0.05587137,0.02063857,1.570817,0.04733392,-0.3099297,1.554339,-0.112724,0.1971952,1.548089,-0.03771369,-0.3024411,1.518515,-0.1713732,-0.04829789,1.556429,0.2762135,-0.0528893,1.534148,NA,NA,Closed,Closed,
0.2578125,-0.7553711,0.4150391,0.3364258,0.7949219,0.5229492,2,2,-5,4,9,0,4,5,0,-8,-6,-1,-5,-4,-8,-3,-22.75,-22.75,-22.75,5.375,5.375,5.375,3.314704,4.596623,4.939554,6.557065,4.471932,8.54633,-0.1221549,-0.1491188,1.295123,0.1633427,-0.1454065,1.267066,0.08388419,0.4942993,1.567571,-0.0834393,-0.1432508,1.266,0.1326771,-0.1252864,1.326667,0.05555362,0.02090212,1.570995,0.04639011,-0.3089659,1.555041,-0.1131271,0.19768,1.549779,-0.03825716,-0.3014492,1.519592,-0.1764712,-0.03428316,1.564949,0.2804687,-0.04941698,1.537951,NA,NA,Closed,Unknown,
0.06298828,-0.7412109,0.3950195,0.1269531,0.6679688,0.4443359,1,-5,2,3,2,2,-3,-13,9,-12,-8,-4,0,2,1,5,-20.8125,-20.8125,-20.8125,6.25,6.25,6.25,3.268027,4.895748,4.916302,6.557053,4.786747,8.568099,-0.1195854,-0.07973614,1.267004,0.1567602,-0.07258822,1.254191,0.08346844,0.4941917,1.567008,-0.07993243,-0.06468134,1.271625,0.1423437,-0.04266494,1.237083,0.05535745,0.02124664,1.571589,0.04604695,-0.3077483,1.556871,-0.1137133,0.1984542,1.551642,-0.03853624,-0.3001365,1.521823,-0.1998943,-0.02540839,1.551631,0.3355005,-0.05349024,1.529661,NA,NA,Closed,Closed,
-0.1025391,-0.7548828,0.3857422,-0.02783203,0.6552734,0.4663086,-2,-2,-15,-11,0,-2,-2,5,-2,0,-3,-3,-14,-7,-1,-10,-9.4375,-9.4375,-9.4375,21.75,21.75,21.75,3.223469,5.206997,4.866288,6.579566,5.046352,8.604668,-0.1184634,-0.02199704,1.265791,0.1507546,-0.01469254,1.258118,0.08284768,0.4941018,1.566563,-0.08945905,-0.002273736,1.2478,0.1331891,0.01475148,1.245125,0.05525668,0.02142871,1.571928,0.04582552,-0.3071803,1.557684,-0.1137462,0.198949,1.552267,-0.03870648,-0.2995346,1.522667,-0.1993163,-0.02232726,1.557274,0.3356923,-0.06611265,1.528445,NA,NA,Closed,Closed,
-0.1958008,-0.6220703,0.3188477,-0.1386719,0.6879883,0.4370117,2,2,8,1,7,5,-5,8,5,13,4,3,4,12,41,7,-9.3125,-9.3125,-9.3125,12.875,12.875,12.875,3.213988,5.348656,4.834016,6.616818,5.240164,8.633752,-0.1133676,0.02028574,1.273714,0.1487788,0.01847567,1.274292,0.08239123,0.4940043,1.566196,-0.07262804,0.01705295,1.277111,0.1344143,0.05908063,1.274333,0.05513981,0.02159153,1.572089,0.04571067,-0.30664,1.558052,-0.1144512,0.1997692,1.549605,-0.03874958,-0.2990536,1.522846,-0.1970904,-0.02693439,1.552441,0.3377731,-0.08572055,1.540262,NA,NA,Closed,Closed,
-0.2299805,-0.6499023,0.315918,-0.2128906,0.5263672,0.4047852,-3,-1,3,0,-6,-2,-4,14,-34,-12,-8,-1,-3,-3,4,-8,6.1875,6.1875,6.1875,-0.125,-0.125,-0.125,3.205602,5.391109,4.821744,6.617195,5.359785,8.662448,-0.1102493,0.03113072,1.278784,0.1469435,0.02705397,1.28478,0.08188284,0.494065,1.566073,-0.0723653,0.02719144,1.285667,0.1249172,0.0164654,1.299355,0.05496815,0.02182822,1.572295,0.04563114,-0.3062847,1.558405,-0.1145687,0.2003614,1.55054,-0.03875308,-0.2987616,1.523013,-0.1942243,-0.03138047,1.548079,0.3314092,-0.09021448,1.542781,NA,NA,Closed,Closed,
-0.105957,-0.7861328,0.3842773,-0.2875977,0.6279297,0.3227539,-2,-4,-10,-6,-4,-3,4,0,-32,1,-10,-1,1,9,11,1,3,3,3,-1.4375,-1.4375,-1.4375,3.220543,5.269825,4.847252,6.630567,5.325381,8.664351,-0.1089257,0.0153609,1.272976,0.1442966,0.004495079,1.285815,0.08123925,0.4940436,1.566072,-0.06604989,0.008191871,1.2875,0.1204734,-0.0190075,1.3515,0.0547294,0.02211603,1.572401,0.04555592,-0.3057833,1.558464,-0.1146038,0.2009957,1.551364,-0.03871073,-0.2981708,1.522824,-0.1936169,-0.03339783,1.547505,0.3297355,-0.08912162,1.540902,NA,NA,Closed,Closed,
0.1342773,-0.8798828,0.4106445,-0.03564453,0.8540039,0.01660156,-1,4,2,-2,-4,-2,-27,-8,-10,-2,2,-2,-7,0,17,-2,-12.4375,-12.4375,-12.4375,12.5625,12.5625,12.5625,3.255694,4.954101,4.903931,6.613443,5.059385,8.628831,-0.1112293,-0.03378407,1.263823,0.1457301,-0.05023015,1.263674,0.08070407,0.4939619,1.566145,-0.06856514,-0.03373088,1.2762,0.1174872,-0.06909038,1.306571,0.05442847,0.02223421,1.572457,0.0454762,-0.3056776,1.55841,-0.1146971,0.2009617,1.551624,-0.03880862,-0.2980183,1.522701,-0.228171,-0.05434157,1.557463,0.3282691,-0.08258692,1.531776,NA,NA,Closed,Closed,
0.07861328,-0.8330078,0.3520508,0,0.6982422,0.902832,3,-1,-5,-1,-6,-5,-5,1,31,15,-2,-2,-7,-4,8,21,30.75,30.75,30.75,-35.875,-35.875,-35.875,3.281128,4.645568,4.947789,6.565597,4.785824,8.602765,-0.1171595,-0.1085787,1.258306,0.1500939,-0.1272689,1.244065,0.07995774,0.4938148,1.566658,-0.07509825,-0.09852226,1.2696,0.1211206,-0.1042251,1.233667,0.05421457,0.02220242,1.572583,0.04536094,-0.3057151,1.558264,-0.115527,0.2001319,1.550013,-0.0389149,-0.2980466,1.522547,-0.2168036,-0.02861107,1.559669,0.3253323,-0.06819222,1.527772,NA,NA,Closed,Closed,
0.6108398,-1.07666,0.5639648,0.1152344,0.8149414,0.7841797,1,-5,-3,-5,-3,-7,1,6,-5,-3,-3,-3,-11,-1,-16,-17,7.1875,7.1875,7.1875,-1.125,-1.125,-1.125,3.264735,4.376036,4.973072,6.550419,4.442302,8.588237,-0.1231463,-0.1819065,1.275057,0.1552531,-0.1873044,1.25698,0.07946364,0.493663,1.567498,-0.08364602,-0.1721446,1.264417,0.1254488,-0.1645748,1.241929,0.05376992,0.02211731,1.572737,0.0444204,-0.3060789,1.557433,-0.1154774,0.1996984,1.551669,-0.0395068,-0.2982942,1.521861,-0.1877606,-0.02781237,1.55732,0.3189455,-0.05378047,1.526122,NA,NA,Closed,Unknown,
0.8330078,-0.9702148,0.5678711,0.7294922,0.7915039,1.009766,-4,-4,-4,-2,1,-6,-15,-11,-4,4,6,5,5,-5,-1,16,1.8125,1.8125,1.8125,1.3125,1.3125,1.3125,3.28232,4.181965,4.973635,6.536314,4.271271,8.605593,-0.1246432,-0.225562,1.289379,0.1547105,-0.2155131,1.264667,0.07887648,0.4935502,1.568286,-0.09478747,-0.2131958,1.254737,0.1131478,-0.206073,1.29075,0.05333592,0.0219992,1.572591,0.0435821,-0.3065546,1.555351,-0.1155883,0.1988813,1.552259,-0.040197,-0.2989092,1.519749,-0.1813912,-0.0341501,1.551695,0.2771286,-0.04586137,1.524986,NA,NA,Unknown,Unknown,
0.4824219,-0.9130859,0.4453125,0.5083008,0.8325195,0.519043,-3,-2,0,-3,-2,-1,4,2,-11,1,7,3,1,-6,-11,-4,4.0625,4.0625,4.0625,-8.8125,-8.8125,-8.8125,3.288317,4.103412,4.954605,6.541593,4.200085,8.614416,-0.1214631,-0.242703,1.299112,0.1532748,-0.2225726,1.269065,0.07834899,0.4934175,1.56877,-0.08391447,-0.2332194,1.277643,0.1157419,-0.2125532,1.274417,0.05281717,0.02181037,1.572159,0.04320329,-0.3069486,1.55396,-0.1158439,0.1982329,1.552683,-0.04062596,-0.2994344,1.518354,-0.1789526,-0.036921,1.550065,0.2766925,-0.04611102,1.524934,NA,NA,Closed,Unknown,
0.5249023,-0.7382813,0.390625,0.4208984,0.7592773,0.4570313,-3,-2,-3,-2,1,0,-9,-5,8,-2,-3,-3,-7,1,-2,-10,9.3125,9.3125,9.3125,1.0625,1.0625,1.0625,3.308974,4.099702,4.956135,6.543845,4.196977,8.618484,-0.120361,-0.245258,1.303267,0.152806,-0.2235802,1.270662,0.07802627,0.4935159,1.56886,-0.0826443,-0.2340417,1.306462,0.1120158,-0.2107476,1.298,0.05238071,0.02168997,1.571705,0.04300292,-0.3071826,1.55311,-0.1159538,0.1980777,1.552792,-0.04084409,-0.2997964,1.517709,-0.1770725,-0.03969283,1.549588,0.276152,-0.04627922,1.524875,NA,NA,Closed,Unknown,
0.5253906,-0.7924805,0.4282227,0.4731445,0.7329102,0.472168,-12,-4,0,0,-5,-1,-1,-5,0,-13,0,-3,5,-1,0,0,4.8125,4.8125,4.8125,1.3125,1.3125,1.3125,3.306143,4.105606,4.958673,6.546916,4.195188,8.617089,-0.1204845,-0.2460466,1.303955,0.1518464,-0.2237054,1.268964,0.07754745,0.4934618,1.568824,-0.08015763,-0.2368273,1.299273,0.1135973,-0.2084925,1.289978,0.0520334,0.02153804,1.571274,0.04291197,-0.3074206,1.552446,-0.1162132,0.1977403,1.552989,-0.04097164,-0.3001502,1.516981,-0.1762238,-0.04087871,1.549484,0.2753783,-0.04685484,1.524182,NA,NA,Closed,Unknown,
0.5185547,-0.7431641,0.3959961,0.5078125,0.7207031,0.4667969,-4,-2,-1,-1,-2,-3,-11,-11,13,-1,5,5,1,2,9,14,0.625,0.625,0.625,-0.125,-0.125,-0.125,3.307405,4.112571,4.969706,6.550176,4.19098,8.612804,-0.1220444,-0.2453801,1.302002,0.1530416,-0.2232356,1.270202,0.07673641,0.4934371,1.568611,-0.08643746,-0.2343608,1.27725,0.112148,-0.2109817,1.2995,0.05162128,0.02140056,1.5708,0.0427733,-0.3075922,1.551872,-0.1166459,0.1972222,1.553065,-0.04112521,-0.3003441,1.516477,-0.1756312,-0.04221731,1.548857,0.2746667,-0.04720812,1.523493,NA,NA,Closed,Unknown,
0.5605469,-0.6987305,0.3945313,0.4824219,0.6728516,0.4228516,3,1,2,-1,1,1,7,11,-1,0,-1,-2,5,1,-5,-6,-2.0625,-2.0625,-2.0625,-5.0625,-5.0625,-5.0625,3.303538,4.102604,4.978573,6.555744,4.17132,8.597044,-0.1218396,-0.245976,1.299405,0.156549,-0.2233527,1.272107,0.07599744,0.493433,1.568354,-0.08428122,-0.2350455,1.284088,0.1158406,-0.2132758,1.281788,0.05132744,0.02135371,1.570464,0.04264797,-0.3076319,1.551359,-0.1169508,0.1968632,1.553185,-0.04126202,-0.3004683,1.5161,-0.1753505,-0.04272862,1.548426,0.2741455,-0.0473797,1.523056,NA,NA,Closed,Unknown,
0.5341797,-0.6870117,0.3681641,0.4580078,0.6821289,0.409668,0,-11,-3,-1,-2,-3,3,-2,3,-1,-3,-1,-2,-4,-1,-1,-2,-2,-2,1.5,1.5,1.5,3.296797,4.071996,4.979328,6.56951,4.139996,8.576678,-0.1218294,-0.2523197,1.299809,0.1595972,-0.2337117,1.269541,0.07542787,0.4934003,1.568125,-0.09040619,-0.2434459,1.264889,0.1205713,-0.222146,1.289333,0.05089319,0.02120975,1.569987,0.04230827,-0.3078458,1.550465,-0.1172591,0.1965791,1.553272,-0.0416564,-0.3007348,1.515464,-0.1747922,-0.04387216,1.547317,0.2734579,-0.04753734,1.522428,NA,NA,Closed,Unknown,
0.5576172,-0.6884766,0.3334961,0.4765625,0.5810547,0.4101563,-2,2,0,-1,0,0,-8,0,1,2,-2,0,-4,-2,-5,5,-8.375,-8.375,-8.375,-16.625,-16.625,-16.625,3.283011,3.974545,4.971423,6.561396,4.039822,8.550054,-0.1224979,-0.2653154,1.306525,0.1677358,-0.2526975,1.275094,0.07502498,0.4933267,1.568119,-0.09062155,-0.2573556,1.280478,0.1323677,-0.2413621,1.275091,0.05054957,0.02105482,1.569655,0.04187084,-0.3081052,1.54978,-0.1176145,0.1962244,1.553422,-0.04217626,-0.3010913,1.514917,-0.1742308,-0.04511623,1.545864,0.2728449,-0.04770441,1.522246,NA,NA,Closed,Closed,
0.6601563,-0.6220703,0.3325195,0.6401367,0.6518555,0.4072266,0,0,0,-1,-3,-6,-10,-1,11,-5,-1,-1,-1,2,1,2,-4.6875,-4.6875,-4.6875,1.3125,1.3125,1.3125,3.297781,3.85263,4.948981,6.574134,3.916502,8.525112,-0.1217951,-0.2888879,1.321165,0.179385,-0.280232,1.296637,0.0747976,0.4932222,1.568202,-0.08288352,-0.2830418,1.309,0.1389652,-0.2766895,1.2943,0.05037799,0.02095099,1.569529,0.04149962,-0.3082973,1.549281,-0.1177381,0.1961514,1.553542,-0.04275848,-0.3014196,1.514485,-0.1739828,-0.04732645,1.543699,0.2712298,-0.04796339,1.52106,NA,NA,Closed,Closed,
0.7270508,-0.5693359,0.3325195,0.6557617,0.6245117,0.3842773,1,2,1,1,3,-4,-3,-3,5,-4,-1,-1,0,0,1,-6,-7.375,-7.375,-7.375,-13.6875,-13.6875,-13.6875,3.306963,3.706856,4.916934,6.576999,3.780165,8.506965,-0.1173922,-0.3210278,1.338607,0.1833947,-0.3203966,1.309882,0.07465097,0.4933031,1.568484,-0.07877098,-0.3115199,1.328579,0.1494807,-0.3088181,1.3235,0.05026833,0.02082885,1.569365,0.04149959,-0.3087384,1.548838,-0.117789,0.1960106,1.553418,-0.04299414,-0.3020286,1.514065,-0.1725012,-0.05344145,1.537867,0.2700812,-0.05196065,1.518707,NA,NA,Closed,Unknown,
0.8266602,-0.5180664,0.3095703,0.8549805,0.5087891,0.3974609,-2,1,0,0,1,2,10,-3,-20,-4,-1,0,1,3,-1,-6,-30.5625,-30.5625,-30.5625,33.6875,33.6875,33.6875,3.31383,3.509807,4.852194,6.572306,3.562761,8.494532,-0.110852,-0.3499441,1.364527,0.1888475,-0.3580056,1.333205,0.07463118,0.4933664,1.5689,-0.0735641,-0.3353816,1.354565,0.1534056,-0.3503221,1.311,0.05027242,0.02068623,1.569321,0.04183271,-0.3092616,1.548595,-0.1178154,0.1957011,1.553131,-0.04281615,-0.3027979,1.513666,-0.1717056,-0.05731835,1.533935,0.2695855,-0.0561831,1.516362,NA,NA,Closed,Unknown,
0.909668,-0.5205078,0.2817383,0.8330078,0.5224609,0.3154297,3,-5,2,3,3,0,-5,2,-11,1,-1,-1,0,-1,0,1,-17.5625,-17.5625,-17.5625,-17.5,-17.5,-17.5,3.275202,3.385659,4.841656,6.588302,3.444483,8.489927,-0.108185,-0.3672518,1.387332,0.1927902,-0.3822184,1.35975,0.07473509,0.4934224,1.569275,-0.06698037,-0.3490285,1.394447,0.1535447,-0.3717267,1.352304,0.05036272,0.02058096,1.569199,0.04239537,-0.3095619,1.548296,-0.1177858,0.1955509,1.552815,-0.04242489,-0.3032072,1.513322,-0.1709359,-0.05881414,1.530543,0.2687754,-0.06088405,1.513677,NA,NA,Unknown,Unknown,
0.9316406,-0.4384766,0.1972656,0.8632813,0.4794922,0.1943359,-1,2,-3,-1,-3,-5,-13,-2,1,-4,-1,2,3,3,-1,0,-8,-8,-8,21.125,21.125,21.125,3.251891,3.292665,4.851171,6.602594,3.331741,8.478243,-0.1068325,-0.37506,1.405525,0.1958695,-0.3912334,1.387748,0.07477133,0.4934411,1.569348,-0.06676161,-0.3533894,1.409204,0.1529368,-0.382063,1.3789,0.05047554,0.02053696,1.569055,0.04297693,-0.3097602,1.547986,-0.1175834,0.195405,1.55176,-0.04193936,-0.3034545,1.512912,-0.1691525,-0.06194649,1.526298,0.2681892,-0.06771474,1.510927,NA,NA,Unknown,Unknown,
0.9189453,-0.4194336,0.184082,0.9042969,0.4023438,0.1914063,4,-1,-1,2,0,4,-3,-1,3,-3,-1,0,2,9,-6,0,5.6875,5.6875,5.6875,-29,-29,-29,3.20386,3.216193,4.883976,6.61518,3.2513,8.445643,-0.107624,-0.3667051,1.422769,0.1973838,-0.3887804,1.404737,0.07485855,0.493483,1.569333,-0.06178122,-0.3685171,1.403741,0.1504754,-0.3815552,1.391595,0.05064696,0.0204702,1.56878,0.04366691,-0.3099391,1.547822,-0.1173535,0.1953558,1.550533,-0.0413236,-0.3036089,1.512544,-0.1681513,-0.06281502,1.524307,0.2678978,-0.07148079,1.509475,NA,NA,Unknown,Unknown,
0.9179688,-0.3432617,0.1586914,0.8891602,0.3837891,0.2719727,-9,-5,1,1,-1,-1,5,-2,-1,0,-3,-2,-4,-4,0,1,12.625,12.625,12.625,-29.125,-29.125,-29.125,3.219428,3.184353,4.895037,6.597714,3.183465,8.393072,-0.1073177,-0.3670988,1.432407,0.2004018,-0.3881695,1.410778,0.07493691,0.4935932,1.569004,-0.06129895,-0.3705744,1.410543,0.1534582,-0.3681143,1.401666,0.05096893,0.02043968,1.568455,0.04459788,-0.309997,1.547667,-0.1173652,0.195314,1.549561,-0.04047482,-0.30358,1.512203,-0.1674476,-0.06346335,1.523334,0.2678516,-0.07384542,1.509002,NA,NA,Unknown,Unknown,
0.9013672,-0.418457,0.1982422,0.8984375,0.3735352,0.2670898,-5,-3,-1,-1,-2,-1,-1,1,-12,-3,-2,-2,-1,-3,-6,-6,6.5,6.5,6.5,23.3125,23.3125,23.3125,3.210752,3.169776,4.910954,6.605677,3.168361,8.392553,-0.1090336,-0.3661702,1.438475,0.2022085,-0.3886852,1.412787,0.07504898,0.4938078,1.568187,-0.06287932,-0.3664271,1.419031,0.1558387,-0.3642382,1.404953,0.05117814,0.02037107,1.568244,0.04522717,-0.3101736,1.547748,-0.1173154,0.195213,1.548888,-0.03992657,-0.3036475,1.512143,-0.1669159,-0.06426027,1.522904,0.2678922,-0.07542893,1.50884,NA,NA,Unknown,Unknown,
0.9125977,-0.3613281,0.1796875,0.8930664,0.3217773,0.2207031,0,0,-2,-2,-2,-5,-1,-1,0,0,-3,-1,-2,-4,-3,-1,-3.75,-3.75,-3.75,19.0625,19.0625,19.0625,3.207372,3.160919,4.920249,6.62615,3.164903,8.402537,-0.1107505,-0.3640433,1.438852,0.2021907,-0.3890026,1.411401,0.07554295,0.4938496,1.566301,-0.0642034,-0.3629542,1.419178,0.15369,-0.3705757,1.397836,0.05128568,0.02029376,1.568043,0.04573365,-0.3102828,1.547841,-0.1172364,0.1950509,1.548299,-0.0395095,-0.3037038,1.512144,-0.1663229,-0.06588563,1.522472,0.2678308,-0.07671999,1.508402,NA,NA,Unknown,Unknown,
0.9238281,-0.3769531,0.1611328,0.8974609,0.3427734,0.1586914,1,6,1,0,-1,-1,-3,-1,-1,-1,-2,-3,-4,-4,-4,-1,-3.3125,-3.3125,-3.3125,8.4375,8.4375,8.4375,3.189438,3.15413,4.928493,6.663013,3.156797,8.407124,-0.1145035,-0.3548819,1.442324,0.2020341,-0.3894748,1.411643,0.07604183,0.4937449,1.565489,-0.06959368,-0.338953,1.435571,0.1536098,-0.3718432,1.397803,0.05130623,0.02021282,1.567821,0.04601567,-0.310326,1.547981,-0.1171078,0.1949842,1.547758,-0.03920735,-0.3037257,1.512223,-0.1661652,-0.0660409,1.522483,0.2678172,-0.07727656,1.508091,NA,NA,Unknown,Unknown,
0.9316406,-0.362793,0.1552734,0.9033203,0.3256836,0.1938477,-1,-3,-5,-7,-2,-5,-2,-4,-1,-1,0,0,1,-2,0,-1,3.8125,3.8125,3.8125,1.25,1.25,1.25,3.186742,3.150064,4.934941,6.665413,3.148647,8.408751,-0.1101861,-0.3730624,1.440429,0.2018837,-0.3897249,1.410789,0.07658514,0.4936588,1.564728,-0.06536787,-0.3553588,1.426932,0.1536625,-0.371783,1.397652,0.05135385,0.02020554,1.567661,0.04628936,-0.3103157,1.548059,-0.1170402,0.1950315,1.547451,-0.03896861,-0.3037002,1.512296,-0.1659802,-0.0662182,1.52251,0.2677297,-0.07759731,1.507616,NA,NA,Unknown,Unknown,
0.9223633,-0.3554688,0.1601563,0.9033203,0.3334961,0.1767578,0,-3,-1,-1,-2,-4,-2,-2,1,-1,-1,-1,0,0,1,1,-0.25,-0.25,-0.25,4.1875,4.1875,4.1875,3.181103,3.146186,4.947152,6.673958,3.143332,8.409399,-0.1106497,-0.3724711,1.44095,0.2034319,-0.3904472,1.410941,0.07736462,0.4935365,1.564104,-0.06639546,-0.3506747,1.430065,0.1566742,-0.3833566,1.392558,0.05133821,0.02016072,1.567531,0.0464002,-0.3103695,1.548087,-0.1169014,0.1948572,1.546971,-0.03886355,-0.3037211,1.512321,-0.1657583,-0.06636883,1.522592,0.2676035,-0.07826342,1.507135,NA,NA,Unknown,Unknown,
0.9165039,-0.3623047,0.1591797,0.9057617,0.3305664,0.1743164,0,-3,4,1,0,1,0,-2,0,1,-2,0,-3,1,-1,-2,-4.1875,-4.1875,-4.1875,-1.375,-1.375,-1.375,3.169807,3.144053,4.954065,6.676102,3.1418,8.40817,-0.1150563,-0.3581546,1.44438,0.2032416,-0.3903941,1.411231,0.078095,0.4933922,1.563627,-0.06495778,-0.3666451,1.419773,0.1545798,-0.3751654,1.397118,0.05138387,0.02010957,1.567382,0.04650996,-0.31043,1.548137,-0.1168216,0.194866,1.5468,-0.03875674,-0.303744,1.512359,-0.1655491,-0.06649075,1.522665,0.2674849,-0.07885457,1.506582,NA,NA,Unknown,Unknown,
