ALX,ALY,ALZ,ARX,ARY,ARZ,EMG0L,EMG1L,EMG2L,EMG3L,EMG4L,EMG5L,EMG6L,EMG7L,EMG0R,EMG1R,EMG2R,EMG3R,EMG4R,EMG5R,EMG6R,EMG7R,GLX,GLY,GLZ,GRX,GRY,GRZ,ORL,OPL,OYL,ORR,OPR,OYR,LHNX,LHNY,LHNZ,RHNX,RHNY,RHNZ,HX,HY,HZ,LTX,LTY,LTZ,RTX,RTY,RTZ,SpineMidX,SpineMidY,SpineMidZ,SpineBaseX,SpineBaseY,SpineBaseZ,ShoulderLeftX,ShoulderLeftY,ShoulderLeftZ,ShoulderRightX,ShoulderRightY,ShoulderRightZ,ElbowLeftX,ElbowLeftY,ElbowLeftZ,ElbowRightX,ElbowRightY,ElbowRightZ,Myo_Pose_left,Myo_Pose_Right,Kinect_pose_left,Kinect_pose_right
0.9482422,-0.3012695,0.03173828,0.9272461,0.2724609,0.144043,-1,-2,-3,-3,0,0,-2,-1,-1,2,0,-1,0,-2,-1,2,-2.0625,-2.0625,-2.0625,-1,-1,-1,2.657026,2.999629,4.450562,6.756742,3.007172,4.36678,-0.1236099,-0.4000404,1.630439,0.2602299,-0.4095858,1.585157,0.1084822,0.4877816,1.721992,-0.1761213,-0.3676294,1.633111,0.2137855,-0.4212634,1.551167,0.08107448,0.01978474,1.727326,0.07170598,-0.305701,1.711138,-0.0846385,0.1929488,1.712434,-0.01167179,-0.2982597,1.677293,-0.1375122,-0.0792347,1.700067,0.3010582,-0.08340006,1.670821,NA,NA,NotTracked,NotTracked,
0.9516602,-0.3081055,0.03076172,0.925293,0.2753906,0.1489258,0,-1,-2,0,-2,0,-3,-3,2,0,-2,0,0,0,1,2,-1.875,-1.875,-1.875,-0.6875,-0.6875,-0.6875,2.653283,2.997759,4.447618,6.755684,3.007376,4.367659,-0.1237269,-0.3995499,1.629484,0.260407,-0.409511,1.585178,0.1087234,0.4878746,1.722443,-0.1718369,-0.3877356,1.625978,0.2138418,-0.4203236,1.552923,0.08112593,0.01979872,1.727272,0.07182927,-0.3057253,1.710967,-0.08453395,0.1928337,1.71177,-0.01153242,-0.2982515,1.677061,-0.1374787,-0.07939899,1.699726,0.3010638,-0.08340362,1.670811,NA,NA,NotTracked,NotTracked,
0.9516602,-0.3081055,0.01660156,0.9316406,0.2773438,0.1518555,0,1,0,0,0,0,-2,0,0,-1,-1,-1,-1,-1,-1,-2,3.6875,3.6875,3.6875,1,1,1,2.655151,2.998151,4.447642,6.755333,3.007337,4.368473,-0.1231305,-0.399765,1.629099,0.2604595,-0.4092898,1.585086,0.1089785,0.4878079,1.722926,-0.1740069,-0.3802,1.629483,0.2151725,-0.401271,1.554553,0.08123502,0.01981896,1.727174,0.0719803,-0.3057262,1.710785,-0.08458932,0.1928218,1.711379,-0.01136024,-0.2982439,1.676807,-0.137476,-0.07952156,1.699314,0.3010982,-0.08321264,1.670825,NA,NA,NotTracked,NotTracked,
0.9472656,-0.3037109,0.03369141,0.9228516,0.2763672,0.1425781,-2,-2,-2,-1,-2,-2,0,1,3,0,-1,1,-1,-2,-1,1,3.9375,3.9375,3.9375,0.625,0.625,0.625,2.665777,2.997317,4.447693,6.756047,3.006769,4.369971,-0.1236644,-0.3991971,1.62997,0.2600715,-0.408931,1.586345,0.1092722,0.487938,1.723347,-0.172546,-0.3969908,1.631015,0.2143309,-0.4061776,1.555159,0.08130234,0.01988345,1.727153,0.07201473,-0.3056664,1.710762,-0.08461465,0.1929416,1.711164,-0.01131634,-0.2981516,1.676725,-0.1375204,-0.07948177,1.69918,0.3011795,-0.08316208,1.670897,NA,NA,NotTracked,NotTracked,
0.9541016,-0.3037109,0.03271484,0.9257813,0.2734375,0.1489258,0,1,-1,-3,-3,-1,-2,0,0,0,-3,-1,0,-1,0,0,2.25,2.25,2.25,0.25,0.25,0.25,2.66615,2.995677,4.452653,6.7549,3.007328,4.370755,-0.1239596,-0.400674,1.631019,0.2599786,-0.4111075,1.585488,0.1096083,0.4880802,1.724021,-0.1742277,-0.3926869,1.636325,0.2143264,-0.4051225,1.555184,0.08136877,0.01992537,1.727106,0.07205771,-0.3056098,1.710697,-0.08463556,0.1929626,1.711006,-0.01126826,-0.2980891,1.676642,-0.1375448,-0.07942705,1.699076,0.3012016,-0.08327356,1.670975,NA,NA,NotTracked,NotTracked,
0.9477539,-0.3037109,0.03564453,0.9267578,0.2734375,0.1464844,-1,1,-1,-2,-1,-1,-3,-2,-1,0,-1,-1,0,-3,0,-1,-3.1875,-3.1875,-3.1875,1.625,1.625,1.625,2.663089,2.993897,4.452718,6.753498,3.006459,4.373534,-0.1239164,-0.3997206,1.630339,0.2597725,-0.4108263,1.584928,0.1098355,0.4882525,1.724406,-0.172417,-0.3911558,1.630679,0.2139362,-0.4081875,1.554078,0.08145097,0.01993756,1.727045,0.07208833,-0.3056115,1.710625,-0.0844907,0.1931678,1.710546,-0.0112165,-0.2980808,1.67641,-0.1377446,-0.07928803,1.698677,0.3012041,-0.08329322,1.670971,NA,NA,NotTracked,NotTracked,
0.9462891,-0.3066406,0.02978516,0.9228516,0.2744141,0.1430664,-1,1,-1,-3,-3,0,2,2,-2,-3,-1,-3,0,1,-2,-4,-7,-7,-7,3.4375,3.4375,3.4375,2.655433,2.993653,4.450797,6.753203,3.005284,4.37886,-0.1236254,-0.3992656,1.630195,0.2593313,-0.4109796,1.584675,0.1099979,0.4883162,1.724654,-0.1720951,-0.3969806,1.631607,0.214341,-0.4058971,1.554807,0.08151935,0.02001147,1.726962,0.0721058,-0.3055894,1.710591,-0.08444754,0.1932423,1.71025,-0.0111989,-0.2980458,1.676337,-0.1378556,-0.07945639,1.698261,0.3012304,-0.08338279,1.670936,NA,NA,NotTracked,NotTracked,
0.9643555,-0.3149414,0.02441406,0.9282227,0.2709961,0.144043,-5,-3,-4,-3,-10,-5,-9,-4,0,-7,-3,-2,-1,-1,-2,3,-6.1875,-6.1875,-6.1875,3.1875,3.1875,3.1875,2.64332,2.993289,4.447715,6.753423,3.00434,4.384714,-0.1232237,-0.3999781,1.630509,0.2589814,-0.4108507,1.585811,0.1101762,0.4885205,1.724885,-0.1709646,-0.3951261,1.6305,0.2140239,-0.4064935,1.555128,0.08153676,0.02009483,1.726913,0.07208082,-0.3055557,1.710557,-0.08422896,0.1934235,1.709751,-0.01122809,-0.2979991,1.676284,-0.1380291,-0.07947535,1.698138,0.3012334,-0.08344728,1.670885,NA,NA,NotTracked,NotTracked,
1.037598,-0.3969727,0.04199219,0.9516602,0.3017578,0.1386719,-3,-1,-2,1,5,-13,-24,-5,-11,-5,-9,-3,-1,-3,-4,-2,6.8125,6.8125,6.8125,-0.5625,-0.5625,-0.5625,2.688351,3.008737,4.401433,6.755506,3.002389,4.384248,-0.1233673,-0.3990175,1.628916,0.2590564,-0.4113851,1.583017,0.1103702,0.4887061,1.725346,-0.1734743,-0.3869347,1.627852,0.2133339,-0.4152017,1.552151,0.081607,0.0201754,1.726713,0.07207201,-0.305525,1.710402,-0.08413427,0.1935753,1.709519,-0.01125901,-0.2979812,1.676072,-0.1382482,-0.07932963,1.697922,0.3012523,-0.08344567,1.670855,NA,NA,NotTracked,NotTracked,
0.9780273,-0.4311523,0.1308594,0.9975586,0.4443359,0.1972656,-2,-6,-4,-2,0,3,1,-2,7,5,21,17,3,3,3,3,0.1875,0.1875,0.1875,-18,-18,-18,2.870714,3.057797,4.21888,6.698461,3.040322,4.420539,-0.116778,-0.3937146,1.62021,0.2574379,-0.4089067,1.571493,0.1105994,0.4888047,1.725922,-0.1604131,-0.3938804,1.613261,0.2131467,-0.4070183,1.554335,0.08169985,0.02024738,1.726557,0.07218034,-0.305456,1.710212,-0.08415464,0.1936682,1.709379,-0.01116063,-0.297888,1.675821,-0.138466,-0.07890489,1.698039,0.3012882,-0.08346506,1.670858,NA,NA,NotTracked,NotTracked,
0.909668,-0.4868164,0.3583984,1.054199,0.5615234,0.3271484,0,2,-8,-14,-13,1,0,-1,-8,-3,4,4,-26,-10,3,5,-53.0625,-53.0625,-53.0625,-27.625,-27.625,-27.625,3.18331,3.226387,3.82953,6.608942,3.124911,4.483898,-0.1039966,-0.3795311,1.598698,0.252903,-0.3962878,1.538025,0.1107695,0.48898,1.726443,-0.1443629,-0.3910283,1.593,0.2194609,-0.4268135,1.55603,0.08182031,0.02034041,1.726306,0.07231329,-0.3053496,1.709948,-0.08414868,0.1937986,1.709213,-0.01112733,-0.2978123,1.675645,-0.140027,-0.07425081,1.698605,0.3019201,-0.08221131,1.671414,NA,NA,NotTracked,Unknown,
0.9462891,-0.5244141,0.4008789,1.016113,0.5913086,0.5551758,1,2,4,8,4,-6,-21,0,-5,-5,-2,1,28,16,17,11,-87,-87,-87,-7.0625,-7.0625,-7.0625,3.308076,3.421276,3.542679,6.450886,3.343009,4.634381,-0.07470576,-0.3610043,1.559343,0.2395975,-0.3298574,1.478383,0.1110432,0.4892718,1.727142,-0.1085975,-0.4046633,1.571429,0.2351577,-0.3617527,1.50325,0.08214602,0.02061307,1.725984,0.07373185,-0.304749,1.70897,-0.08436973,0.1941485,1.709348,-0.01034695,-0.2975991,1.674903,-0.1425289,-0.06532808,1.697915,0.3039926,-0.07484189,1.671215,NA,NA,Unknown,Lasso,
0.9272461,-0.5410156,0.4887695,0.8046875,0.7412109,0.7451172,0,-4,-15,-9,-3,-1,4,1,4,-3,-7,-1,-50,-40,-15,-3,-100.6875,-100.6875,-100.6875,47.125,47.125,47.125,3.376064,3.663923,3.262711,6.348164,3.945541,4.850809,-0.02167304,-0.3319001,1.52207,0.2012653,-0.2408147,1.416151,0.1111402,0.4895388,1.727642,-0.04983868,-0.3819974,1.535072,0.1615266,-0.2798828,1.4526,0.08213843,0.021229,1.72543,0.07324354,-0.303259,1.706972,-0.08427247,0.1946607,1.709276,-0.01129975,-0.2969412,1.673324,-0.1471872,-0.05459716,1.691622,0.3064449,-0.05367092,1.664949,NA,NA,Unknown,Unknown,
0.6953125,-0.5874023,0.4746094,0.5292969,0.644043,0.8447266,0,-6,0,1,6,15,10,-3,-2,-1,4,5,-15,-10,-21,-16,-100.125,-100.125,-100.125,15.125,15.125,15.125,3.390843,4.021175,2.917452,6.331358,4.407872,4.969317,0.03592638,-0.2809252,1.498198,0.1509828,-0.129481,1.372465,0.1111925,0.4897141,1.728515,0.01431828,-0.3282033,1.508818,0.1158864,-0.1160421,1.389,0.08212516,0.02142437,1.725899,0.07307272,-0.3031057,1.708491,-0.08372924,0.1961607,1.709405,-0.01101247,-0.2970473,1.67412,-0.151461,-0.04101285,1.680183,0.309866,-0.04766071,1.643892,NA,NA,Unknown,Closed,
0.4404297,-0.4604492,0.2338867,0.1870117,0.6298828,0.6630859,-2,10,-8,-5,-3,-1,-8,13,-9,-1,-4,2,9,-1,2,2,-191.875,-191.875,-191.875,41.5625,41.5625,41.5625,3.269648,4.248085,2.680737,6.351074,4.873265,5.105758,0.06165671,-0.1888616,1.532723,0.1138251,-0.02135935,1.365383,0.1110973,0.4900849,1.730125,-0.004063162,-0.246976,1.575,0.07895004,-0.04900559,1.365167,0.08183397,0.02211881,1.726661,0.07224799,-0.3019001,1.711242,-0.07774591,0.1997527,1.709198,-0.01098135,-0.2952905,1.676253,-0.1509922,-0.03200869,1.664155,0.3517519,-0.04712062,1.621792,NA,NA,Unknown,Unknown,
0.4130859,-1.012207,0.06738281,-0.07177734,0.6186523,0.5732422,-1,1,1,-2,0,5,15,2,-8,4,3,9,5,2,-3,-1,-219.125,-219.125,-219.125,22.1875,22.1875,22.1875,2.858225,4.437246,2.370702,6.437342,5.430605,5.309212,0.08024577,-0.168804,1.538831,0.07270692,0.07908164,1.374357,0.1111519,0.490449,1.731885,0.01294755,-0.227658,1.567042,0.03892207,0.05758527,1.376,0.08165483,0.02326528,1.728164,0.07101966,-0.2993473,1.712013,-0.07734434,0.1995787,1.703995,-0.01113492,-0.2925895,1.67679,-0.1469299,-0.02600956,1.643327,0.3290673,-0.04805995,1.585269,NA,NA,Unknown,Lasso,
0.456543,-0.7832031,0.1010742,-0.2094727,0.6108398,0.4482422,0,-2,-4,-3,4,-8,-22,-3,-7,-4,-1,-3,-6,-3,-11,1,-110.875,-110.875,-110.875,17.8125,17.8125,17.8125,2.696826,4.529695,2.083114,6.536144,5.758401,5.487307,0.116495,-0.1381382,1.543742,0.0242681,0.1685326,1.389521,0.1109456,0.490483,1.73406,0.06212348,-0.1934719,1.55144,-0.001148456,0.1661066,1.406,0.08179165,0.02349439,1.729381,0.07062973,-0.2993039,1.712327,-0.07830926,0.1967824,1.699337,-0.01127659,-0.2927425,1.676684,-0.1424918,-0.02438562,1.621864,0.2638908,-0.004844621,1.533597,NA,NA,Unknown,Unknown,
0.246582,-0.8798828,0.08056641,-0.3608398,0.5605469,0.46875,-2,-6,-6,-7,-6,16,-5,-3,-3,0,-1,-2,-3,1,3,-5,-3.0625,-3.0625,-3.0625,12.625,12.625,12.625,2.636914,4.6233,1.951276,6.613904,5.921471,5.612604,0.1193081,-0.1298063,1.558444,0.01670745,0.2094321,1.426093,0.1113811,0.4902919,1.735447,0.06292573,-0.1932634,1.553459,-0.0282236,0.2136068,1.451667,0.08241411,0.02303232,1.727359,0.07108939,-0.2997827,1.712094,-0.0785788,0.1947452,1.695369,-0.01083253,-0.2936118,1.673733,-0.1417265,-0.02259116,1.604789,0.2539644,-0.01322415,1.537566,NA,NA,Unknown,Unknown,
0.2504883,-0.8925781,0.1323242,-0.2685547,0.5004883,0.3178711,0,-1,1,1,-7,-14,-7,-3,1,6,-1,5,7,0,-6,-10,-21.0625,-21.0625,-21.0625,-10.875,-10.875,-10.875,2.635405,4.724894,1.892746,6.724007,6.082327,5.807859,0.1241835,-0.1113304,1.559141,-0.002219954,0.2337278,1.457916,0.1122385,0.4903227,1.737133,0.1096335,-0.1747694,1.548197,-0.04310253,0.2316405,1.487,0.08297473,0.02305564,1.726273,0.07186008,-0.2999776,1.711922,-0.07852002,0.1935282,1.6923,-0.01009276,-0.2936842,1.67162,-0.142336,-0.02112393,1.594981,0.2471055,-0.03232556,1.54278,NA,NA,Unknown,Unknown,
0.2368164,-0.1621094,-0.1049805,-0.3574219,0.5249023,0.2841797,-2,-9,-6,-3,1,-7,6,-5,4,5,2,-5,-5,-2,-12,-5,37.3125,37.3125,37.3125,-21.6875,-21.6875,-21.6875,2.693082,4.897364,1.815059,6.795632,6.146967,5.961006,0.1357726,-0.06720416,1.55396,-0.008744301,0.229,1.483073,0.1128886,0.4903086,1.737871,0.1594041,-0.128026,1.556633,-0.03558924,0.2012049,1.487176,0.08326377,0.02269272,1.725326,0.07239965,-0.3009098,1.711329,-0.07878934,0.192445,1.689453,-0.009792081,-0.2944914,1.669928,-0.1426991,-0.02051257,1.587961,0.2447801,-0.03476308,1.543444,NA,NA,Unknown,Unknown,
0.05761719,-1.024902,0.06738281,-0.5820313,0.6943359,0.2041016,-2,2,-1,-6,-10,-9,-26,-12,-2,-3,3,7,22,12,8,2,6.1875,6.1875,6.1875,-31.6875,-31.6875,-31.6875,2.63594,4.900195,1.798509,6.834172,6.163267,6.098436,0.1389007,-0.04951361,1.549588,-0.0001744115,0.2001061,1.510238,0.1135263,0.4900528,1.738556,0.1411895,-0.1156025,1.547881,0.005192546,0.1720377,1.579,0.08352008,0.02251135,1.724478,0.07308776,-0.301154,1.710443,-0.07728955,0.1917589,1.683134,-0.009216753,-0.2946977,1.66838,-0.1431948,-0.0213109,1.583374,0.2443896,-0.02898823,1.542905,NA,NA,NotTracked,NotTracked,
0.03027344,-1.012695,0.03662109,-0.5454102,0.6328125,0.3242188,-4,-4,-4,-6,-17,-7,15,0,-8,-13,-9,-8,-7,2,-11,-15,-18.6875,-18.6875,-18.6875,-13.1875,-13.1875,-13.1875,2.604952,4.91037,1.794267,6.938098,6.066192,6.370175,0.1384079,-0.04213702,1.54786,0.03827814,0.1486097,1.530511,0.1138706,0.4900374,1.738616,0.1294071,-0.1128749,1.541913,0.03924095,0.1054031,1.581805,0.08411549,0.02271876,1.725931,0.07343122,-0.3011188,1.709391,-0.07637866,0.1917077,1.679301,-0.008897051,-0.2945599,1.667994,-0.1430873,-0.02141488,1.580261,0.2443829,-0.02115386,1.541051,NA,NA,NotTracked,NotTracked,
0.09667969,-0.9760742,0.04492188,-0.5844727,0.7084961,0.2910156,-1,2,1,11,24,1,-47,3,9,11,2,2,-2,-4,2,2,-1.0625,-1.0625,-1.0625,-35.75,-35.75,-35.75,2.593375,4.904133,1.782815,6.945034,6.033844,6.415819,0.1385946,-0.0427,1.546739,0.03810759,0.129411,1.544539,0.1142654,0.4899102,1.738849,0.1329292,-0.1129726,1.543298,0.05206571,0.1754304,1.5913,0.08446476,0.02276576,1.726526,0.07378291,-0.3009768,1.708046,-0.07603695,0.1921648,1.678439,-0.008390754,-0.2944421,1.667138,-0.1424181,-0.02047309,1.57792,0.2465221,-0.007746958,1.537513,NA,NA,NotTracked,NotTracked,
0.09570313,-1.007324,0.05908203,-0.5600586,0.8032227,0.3022461,1,-1,-4,0,2,20,23,2,13,0,-1,1,18,6,25,17,-8.1875,-8.1875,-8.1875,-30.1875,-30.1875,-30.1875,2.57747,4.893734,1.788122,6.960969,5.926311,6.545921,0.1370252,0.05495691,1.517,0.006185354,0.140279,1.555672,0.1149974,0.4895662,1.738902,0.07393726,-0.001902428,1.5223,0.04528086,0.1718904,1.595053,0.08458321,0.02269139,1.726912,0.07363053,-0.3011265,1.707128,-0.0751254,0.1922668,1.677579,-0.00834923,-0.2944763,1.666777,-0.1413421,-0.01985515,1.575662,0.247069,-0.007685573,1.535112,NA,NA,NotTracked,NotTracked,
0.03662109,-1.02832,0.01855469,-0.4418945,0.887207,0.2905273,-2,-2,-2,0,2,-17,-44,1,-23,-7,2,11,21,1,-11,-12,-0.6875,-0.6875,-0.6875,-3.5625,-3.5625,-3.5625,2.574903,4.896432,1.812554,6.988212,5.822991,6.645379,0.1366177,0.05808884,1.51639,0.007786145,0.1395443,1.559312,0.1155569,0.4893205,1.739021,0.1481881,0.1136771,1.541429,0.04418839,0.1736498,1.596407,0.08465803,0.02268101,1.727113,0.07346627,-0.3011281,1.706032,-0.07455688,0.1922768,1.677185,-0.008397128,-0.2944156,1.666237,-0.1408653,-0.01965952,1.574885,0.2478026,-0.007517986,1.533321,NA,NA,NotTracked,NotTracked,
0.0859375,-1.012207,0.02832031,-0.4418945,0.887207,0.2905273,1,1,1,0,-3,-10,2,-3,1,-3,-3,-5,-23,-11,1,7,-2,-2,-2,-3.5625,-3.5625,-3.5625,2.569764,4.900919,1.824722,6.988212,5.822991,6.645379,0.1409852,0.04960901,1.513891,0.008621167,0.1408597,1.559665,0.1157622,0.4892757,1.739029,0.162578,0.106364,1.517077,0.04016051,0.1774215,1.599119,0.08470108,0.02263969,1.72719,0.0732973,-0.3012854,1.704916,-0.07412467,0.1924893,1.677107,-0.008429019,-0.2944652,1.665572,-0.140813,-0.01939238,1.574958,0.2486794,-0.00725166,1.531184,NA,NA,NotTracked,NotTracked,
0.06835938,-1.015625,0.01220703,-0.4711914,0.8144531,0.3432617,-3,-2,-4,-5,-9,-13,-2,-5,14,2,0,6,-4,-7,-4,13,-5.0625,-5.0625,-5.0625,2.125,2.125,2.125,2.561118,4.899776,1.822364,7.013368,5.756971,6.716392,0.1427753,0.04584943,1.514156,0.009144307,0.1410012,1.55554,0.115887,0.4891992,1.738956,0.1652804,0.1040544,1.506101,0.04488733,0.1755485,1.595446,0.08470713,0.02263854,1.727195,0.07303303,-0.3013921,1.703699,-0.07379355,0.1925248,1.676881,-0.008715414,-0.2945321,1.66454,-0.1406289,-0.01933948,1.574798,0.2491028,-0.006754798,1.529402,NA,NA,NotTracked,NotTracked,
0.08789063,-1.013672,0.04296875,-0.5058594,0.8896484,0.2631836,3,7,1,-2,-10,0,15,7,-16,-8,-5,-1,0,-4,-3,-9,-4.9375,-4.9375,-4.9375,6.6875,6.6875,6.6875,2.546525,4.88628,1.82047,7.020971,5.757535,6.718213,0.1819403,0.04928365,1.508942,0.006167151,0.1475977,1.551373,0.1158324,0.4891148,1.738909,0.1711385,0.1161897,1.528517,0.0348031,0.1908384,1.598,0.08469384,0.02262078,1.727206,0.07273269,-0.3014148,1.702861,-0.0736839,0.1925568,1.676712,-0.008955158,-0.2945319,1.663722,-0.141164,-0.01883808,1.574003,0.2494854,-0.006437936,1.528594,NA,NA,NotTracked,NotTracked,
0.06347656,-1.030762,0.03076172,-0.5668945,1.121094,0.1992188,0,0,-3,-5,-9,1,5,0,-23,-30,-10,-4,0,-1,-14,-16,-0.5,-0.5,-0.5,45.9375,45.9375,45.9375,2.543277,4.884413,1.819075,7.07286,5.827466,6.636228,0.142552,-0.05438637,1.549897,0.01294763,0.176644,1.534669,0.1154422,0.4887485,1.738904,0.1816659,0.02079601,1.479395,0.02173954,0.1351401,1.584725,0.08454198,0.02224144,1.727188,0.07189522,-0.3025479,1.701639,-0.07366754,0.1924955,1.675242,-0.009798359,-0.2955948,1.662363,-0.1414538,-0.01937317,1.573893,0.2490412,-0.006101266,1.527564,NA,NA,NotTracked,NotTracked,
0.08544922,-1.007324,0.04736328,-0.5234375,1.036133,0.1757813,-1,-2,0,-2,-2,2,-1,-8,-8,17,1,-5,9,4,2,1,-3.5,-3.5,-3.5,61.375,61.375,61.375,2.541801,4.891431,1.820341,7.09556,5.920402,6.551781,0.1357974,-0.06686222,1.551347,0.03444229,0.2325451,1.491718,0.1147969,0.4885584,1.739058,0.1934902,0.01897223,1.482071,0.07403075,0.2418956,1.4944,0.08405095,0.02134054,1.723967,0.07171521,-0.3039021,1.699783,-0.07402679,0.1929003,1.675716,-0.01073362,-0.2972319,1.659085,-0.1430753,-0.01826771,1.57368,0.2485931,-0.004291951,1.525299,NA,NA,NotTracked,Unknown,
0.06396484,-0.9897461,0.005859375,-0.671875,0.6557617,0.2602539,-1,-5,-4,-7,-7,-30,-10,-7,-26,-17,2,3,6,2,-3,0,-2.5,-2.5,-2.5,108.0625,108.0625,108.0625,2.530118,4.911136,1.838306,7.069403,6.463991,6.011262,0.1386793,-0.05202342,1.553113,0.05952756,0.3020023,1.466856,0.1100374,0.4934789,1.737471,0.1955583,0.03147524,1.486714,0.1019397,0.3011233,1.475,0.0814269,0.01539464,1.715178,0.06993952,-0.3089047,1.697859,-0.07955787,0.1910828,1.680274,-0.01317713,-0.3031848,1.66166,-0.1429801,-0.0192183,1.572213,0.2454551,0.01551117,1.502429,NA,NA,Unknown,Unknown,
0.06005859,-1.006836,-0.0009765625,-0.621582,0.4008789,0.3056641,-1,2,-2,0,5,12,9,2,10,-1,-3,-2,1,-5,1,3,1.75,1.75,1.75,119.375,119.375,119.375,2.52705,4.926737,1.851487,6.940499,6.700097,5.636918,0.1353283,-0.03503138,1.553506,0.1225526,0.3463272,1.446863,0.09713918,0.4999914,1.738171,0.1706176,-0.08897814,1.553828,0.1722024,0.3208236,1.464286,0.08027385,0.01489705,1.715031,0.06916776,-0.3092254,1.697364,-0.07943493,0.1913438,1.682016,-0.01394199,-0.3032704,1.662153,-0.1474945,-0.01716635,1.573285,0.2449985,0.0213251,1.495688,NA,NA,Unknown,Unknown,
0.05419922,-1.014648,0.005371094,-0.777832,0.2514648,0.2963867,-2,-1,-1,-4,-2,-6,-2,-4,-21,-15,-5,-8,-14,-7,-8,-9,0,0,0,84.5625,84.5625,84.5625,2.530422,4.93551,1.857392,6.634291,6.873839,5.114315,0.1330629,-0.04201426,1.553136,0.1958821,0.3630599,1.442086,0.09007794,0.4936937,1.738322,0.1659668,-0.09708119,1.549833,0.2403182,0.3103959,1.4624,0.07940268,0.0179865,1.714507,0.06706717,-0.3027592,1.695346,-0.07871699,0.1920084,1.68347,-0.01638492,-0.2960689,1.662115,-0.147714,-0.01631626,1.575016,0.2481984,-0.0002793841,1.521234,NA,NA,Unknown,Unknown,
0.02099609,-1.029785,0.005371094,-0.8447266,0.1459961,0.4150391,-1,1,0,2,-4,-2,1,2,2,0,1,3,-2,1,3,2,-1.75,-1.75,-1.75,65,65,65,2.52696,4.934637,1.850495,6.128907,6.949757,4.418143,0.135126,-0.03743975,1.552964,0.2515349,0.3624537,1.444651,0.09008151,0.4926118,1.73851,0.1690712,-0.0907946,1.552279,0.2828721,0.3247353,1.449,0.07818048,0.01980058,1.717584,0.06650402,-0.301019,1.694276,-0.07884534,0.1933865,1.68502,-0.01716485,-0.2941644,1.660331,-0.1464522,-0.01494567,1.575565,0.2575397,0.006167659,1.51874,NA,NA,Unknown,Unknown,
0.02880859,-1.020996,0.02099609,-0.855957,0.004394531,0.465332,-2,1,1,-1,3,-2,2,-1,-4,3,-6,1,5,-1,-4,-9,-4.8125,-4.8125,-4.8125,77.0625,77.0625,77.0625,2.520692,4.926348,1.828535,5.791635,6.938475,3.976391,0.1353165,-0.04097191,1.553606,0.2831718,0.3551154,1.448954,0.08999859,0.4917378,1.738556,0.1568544,-0.0971094,1.544435,0.2916348,0.3269997,1.473778,0.07735744,0.02010763,1.719157,0.06625753,-0.3011068,1.69405,-0.07932742,0.19389,1.685553,-0.01733348,-0.2944442,1.659762,-0.1454609,-0.01489188,1.576031,0.2575104,0.004230618,1.521484,NA,NA,Unknown,Unknown,
0.06201172,-1.008301,0.01513672,-0.8417969,-0.09033203,0.6274414,-3,-4,-1,-9,-9,-18,-12,-6,8,-2,-1,-1,-9,1,9,16,-1.125,-1.125,-1.125,30.6875,30.6875,30.6875,2.521043,4.915994,1.802304,5.454734,6.858487,3.519919,0.1356526,-0.04203822,1.553723,0.2965869,0.3514902,1.449057,0.08999557,0.4913578,1.738359,0.1596729,-0.09634969,1.545812,0.2702026,0.3363132,1.493182,0.07688686,0.02051817,1.720061,0.06618398,-0.3011304,1.693856,-0.07959949,0.1941275,1.685547,-0.01729588,-0.2946387,1.659043,-0.1448468,-0.01462929,1.575356,0.2589601,0.002376789,1.52489,NA,NA,Unknown,Unknown,
0.07568359,-1.024414,0.02929688,-0.9785156,0.08740234,0.4897461,0,0,2,2,5,16,22,5,-1,-5,-3,2,10,0,-9,-11,0.9375,0.9375,0.9375,9.8125,9.8125,9.8125,2.525854,4.904651,1.782754,5.38784,6.816242,3.410033,0.1363103,-0.04303716,1.553196,0.3002332,0.3470399,1.448221,0.09014294,0.4909736,1.738153,0.1561688,-0.1001844,1.541841,0.2748969,0.3314885,1.500263,0.07682498,0.02054648,1.720234,0.06620004,-0.3013116,1.693489,-0.07984012,0.1944155,1.685396,-0.0170841,-0.2949845,1.657878,-0.1437346,-0.01407627,1.573725,0.2602708,-0.0004474801,1.529215,NA,NA,Unknown,Unknown,
0.07470703,-1.012207,0.01318359,-0.9819336,0.04980469,0.4418945,0,-3,-2,0,4,3,-9,-7,5,3,0,1,11,-4,0,8,0.75,0.75,0.75,2.8125,2.8125,2.8125,2.527974,4.902056,1.780726,5.386386,6.810739,3.400582,0.1363118,-0.04418382,1.553701,0.3004727,0.3436915,1.449748,0.09068353,0.4905574,1.73796,0.1620175,-0.09802265,1.546253,0.2735863,0.3303203,1.4995,0.0767874,0.02056609,1.720348,0.06613985,-0.3015496,1.693114,-0.07993428,0.1945623,1.685307,-0.01702046,-0.2952863,1.656969,-0.1431105,-0.01374366,1.572773,0.2614752,-0.00406542,1.532193,NA,NA,Unknown,Unknown,
0.07861328,-1.016602,0.02441406,-0.9370117,0.07470703,0.4355469,-1,-1,-2,0,0,3,18,3,34,9,1,1,9,-1,0,3,0.8125,0.8125,0.8125,-1.8125,-1.8125,-1.8125,2.527858,4.897619,1.786888,5.382889,6.812772,3.400455,0.1366994,-0.04426959,1.55354,0.3004999,0.343528,1.450089,0.09166241,0.4900393,1.737643,0.1488881,-0.1010642,1.540785,0.2749178,0.3282294,1.498657,0.07683322,0.02057791,1.720482,0.0661742,-0.3017167,1.692821,-0.07994007,0.1947178,1.685231,-0.01687836,-0.2954714,1.656312,-0.1427706,-0.01322406,1.571715,0.2622007,-0.005197009,1.532762,NA,NA,Unknown,Lasso,
0.07275391,-1.01416,0.02539063,-0.9140625,0.06835938,0.4438477,-1,-2,-3,-4,-4,3,7,-4,7,8,-3,1,5,2,-3,7,-1.25,-1.25,-1.25,-7.25,-7.25,-7.25,2.526647,4.894861,1.794301,5.377236,6.816389,3.406811,0.1391695,-0.04254095,1.552639,0.2981177,0.3441903,1.447314,0.09301824,0.489779,1.737289,0.1623846,-0.09844317,1.545248,0.2734926,0.3286782,1.500522,0.0770639,0.02064717,1.720545,0.06645072,-0.3018374,1.692361,-0.07988324,0.1948988,1.685132,-0.01636498,-0.2956032,1.655536,-0.1422328,-0.01302325,1.571267,0.2624879,-0.005323608,1.532694,NA,NA,Unknown,Unknown,
0.07275391,-1.009766,0.01708984,-0.9174805,0.05859375,0.418457,-2,1,-1,-2,1,-11,-6,-6,-5,4,2,0,6,-2,-9,-3,-0.25,-0.25,-0.25,-7.4375,-7.4375,-7.4375,2.524715,4.892619,1.802942,5.387772,6.818018,3.429561,0.1397612,-0.04222986,1.551781,0.2927072,0.3444138,1.444166,0.09444682,0.4894056,1.73684,0.16,-0.09823873,1.544145,0.268562,0.3322229,1.499499,0.077098,0.0206683,1.720576,0.06630445,-0.3018718,1.692064,-0.07981364,0.1950149,1.685093,-0.01645489,-0.2956122,1.655049,-0.1419017,-0.01291552,1.571079,0.2627896,-0.005900647,1.532402,NA,NA,Unknown,Unknown,
0.06347656,-1.00293,0.01220703,-0.9282227,0.06738281,0.4326172,-2,-2,2,0,-1,-9,-5,1,1,-5,0,0,-5,-3,-4,0,1.8125,1.8125,1.8125,-8.625,-8.625,-8.625,2.526793,4.890782,1.814481,5.407234,6.817874,3.461632,0.1403059,-0.04204107,1.552266,0.2818999,0.3406076,1.438074,0.09560692,0.4892528,1.736655,0.0908192,-0.1006928,1.520464,0.2598438,0.3281352,1.504667,0.07731959,0.02102871,1.71892,0.06613185,-0.3017598,1.691869,-0.07966727,0.1951966,1.685047,-0.01658468,-0.2954081,1.654755,-0.1417395,-0.01235014,1.570233,0.2625231,-0.006250537,1.532035,NA,NA,Unknown,Unknown,
0.03955078,-1.014648,-0.05517578,-0.8945313,0.06201172,0.4042969,0,-3,-5,-4,1,1,0,-3,9,2,-2,-1,-3,-1,3,4,13.75,13.75,13.75,-25.5625,-25.5625,-25.5625,2.535472,4.88895,1.828921,5.467554,6.811941,3.568864,0.14178,-0.04069082,1.550828,0.2643643,0.3342054,1.4251,0.09656852,0.4890879,1.736777,0.1643653,-0.09626557,1.543754,0.2429411,0.3201993,1.502,0.07743263,0.02122945,1.719182,0.06585073,-0.3013152,1.691547,-0.0794044,0.1954915,1.685177,-0.0168776,-0.2948754,1.65442,-0.1416436,-0.01219288,1.570744,0.2621519,-0.007771138,1.531838,NA,NA,Unknown,Unknown,
0.08642578,-0.8901367,0.02734375,-0.7734375,0.1206055,0.2607422,-1,-1,-1,0,-2,-2,-4,8,10,10,1,-2,6,2,-1,-1,126.4375,126.4375,126.4375,-19.875,-19.875,-19.875,2.678951,4.878376,1.894799,5.759754,6.761386,3.949507,0.1431327,-0.04582691,1.546804,0.2380183,0.3120207,1.395509,0.09754269,0.4889781,1.736815,0.1685249,-0.05250351,1.485783,0.2183319,0.3089582,1.4794,0.07793357,0.02156189,1.718064,0.06550913,-0.3003213,1.691348,-0.078924,0.1959527,1.68558,-0.01754313,-0.2932943,1.65441,-0.14137,-0.01178603,1.571382,0.2627226,-0.01059507,1.533729,NA,NA,Unknown,Lasso,
0.2402344,-0.7636719,0.1508789,-0.4125977,0.2861328,0.2407227,-3,0,1,-2,-1,-1,-2,-7,-2,-1,1,2,-1,-1,1,-1,254.125,254.125,254.125,30.125,30.125,30.125,3.018426,4.795307,2.023082,6.263875,6.495104,4.493787,0.1395693,-0.07920696,1.529639,0.2027006,0.2489135,1.34705,0.09783548,0.4890631,1.736884,0.135008,-0.09443046,1.486909,0.1953184,0.3103442,1.33925,0.07850364,0.02375257,1.717567,0.0654509,-0.2979617,1.691124,-0.07847725,0.1962408,1.685948,-0.01775873,-0.2908768,1.654261,-0.1424098,-0.01190448,1.573541,0.268922,-0.0146429,1.538119,NA,NA,Unknown,Unknown,
