ALX,ALY,ALZ,ARX,ARY,ARZ,EMG0L,EMG1L,EMG2L,EMG3L,EMG4L,EMG5L,EMG6L,EMG7L,EMG0R,EMG1R,EMG2R,EMG3R,EMG4R,EMG5R,EMG6R,EMG7R,GLX,GLY,GLZ,GRX,GRY,GRZ,ORL,OPL,OYL,ORR,OPR,OYR,LHNX,LHNY,LHNZ,RHNX,RHNY,RHNZ,HX,HY,HZ,LTX,LTY,LTZ,RTX,RTY,RTZ,SpineMidX,SpineMidY,SpineMidZ,SpineBaseX,SpineBaseY,SpineBaseZ,ShoulderLeftX,ShoulderLeftY,ShoulderLeftZ,ShoulderRightX,ShoulderRightY,ShoulderRightZ,ElbowLeftX,ElbowLeftY,ElbowLeftZ,ElbowRightX,ElbowRightY,ElbowRightZ,Myo_Pose_left,Myo_Pose_Right,Kinect_pose_left,Kinect_pose_right
0.9570313,-0.2783203,0.04101563,0.9267578,0.277832,0.144043,0,0,-1,0,-2,-1,0,-1,1,1,-1,-2,0,-1,-1,1,7.0625,7.0625,7.0625,1.75,1.75,1.75,2.741669,2.957312,6.401215,6.724763,3.026386,6.26681,-0.1451228,-0.4067372,1.56217,0.2337733,-0.4035287,1.520274,0.07262398,0.4906586,1.655786,-0.09605249,-0.3904029,1.54164,0.2746403,-0.4196293,1.514725,0.05514897,0.01841521,1.663997,0.04829254,-0.3109541,1.646809,-0.1160809,0.1916342,1.643999,-0.03549219,-0.3044417,1.611434,-0.1615473,-0.08471802,1.629764,0.2735623,-0.08357133,1.619648,NA,NA,NotTracked,NotTracked,
0.9570313,-0.2783203,0.04101563,0.9257813,0.2788086,0.1328125,0,0,-1,0,-2,-1,0,-1,-2,-1,-1,0,-1,-1,-2,0,7.0625,7.0625,7.0625,0.25,0.25,0.25,2.741669,2.957312,6.401215,6.727217,3.02526,6.266737,-0.1459702,-0.404103,1.563789,0.233439,-0.4034079,1.520738,0.07259621,0.490694,1.655583,-0.09593755,-0.3920113,1.542061,0.2691791,-0.4313655,1.504409,0.05510528,0.0185091,1.663879,0.04822689,-0.3108471,1.646764,-0.1160739,0.1917916,1.643842,-0.03556414,-0.3043086,1.611335,-0.1616509,-0.08443461,1.62966,0.2735185,-0.08363029,1.619488,NA,NA,NotTracked,NotTracked,
0.9570313,-0.2783203,0.04101563,0.9262695,0.2783203,0.1420898,0,0,-1,0,-2,-1,0,-1,-6,-2,0,-1,1,-2,0,-3,7.0625,7.0625,7.0625,-1.1875,-1.1875,-1.1875,2.741669,2.957312,6.401215,6.726141,3.024382,6.266494,-0.1463413,-0.4041122,1.563015,0.2332692,-0.4037633,1.519756,0.07258829,0.4907849,1.655143,-0.09662619,-0.3947377,1.541536,0.2720942,-0.4064202,1.512423,0.05498574,0.0185612,1.663705,0.04806862,-0.3108183,1.646634,-0.1160762,0.1918892,1.643574,-0.03575964,-0.3042532,1.611213,-0.1616724,-0.08435546,1.62956,0.2733958,-0.08368689,1.619256,NA,NA,NotTracked,NotTracked,
0.9570313,-0.2783203,0.04101563,0.9282227,0.2827148,0.1416016,0,0,-1,0,-2,-1,0,-1,1,-1,-1,1,-2,0,-2,3,7.0625,7.0625,7.0625,-0.6875,-0.6875,-0.6875,2.741669,2.957312,6.401215,6.726321,3.023376,6.264989,-0.1461179,-0.4047423,1.563447,0.2338045,-0.403834,1.520925,0.07259374,0.4908043,1.65492,-0.09586103,-0.3922589,1.541918,0.2712781,-0.4138912,1.509769,0.05491998,0.01858004,1.663525,0.04798152,-0.3107919,1.64656,-0.1161844,0.1920322,1.643203,-0.03584433,-0.3042254,1.61117,-0.1616909,-0.08425813,1.62946,0.2732023,-0.08354973,1.618954,NA,NA,NotTracked,NotTracked,
0.9570313,-0.2783203,0.04101563,0.9233398,0.2719727,0.1430664,0,0,-1,0,-2,-1,0,-1,-3,-1,0,-1,-1,-2,0,0,7.0625,7.0625,7.0625,0.6875,0.6875,0.6875,2.741669,2.957312,6.401215,6.727086,3.023047,6.264864,-0.1463103,-0.4040462,1.561483,0.2331979,-0.4034336,1.519258,0.07261509,0.4908511,1.654402,-0.09612268,-0.3872394,1.539956,0.2690097,-0.4383113,1.50219,0.05480248,0.0186296,1.663284,0.04784373,-0.3107517,1.646427,-0.1161951,0.1921209,1.642959,-0.0360139,-0.3041638,1.611022,-0.1618199,-0.08551645,1.629017,0.2731029,-0.08364183,1.618699,NA,NA,NotTracked,NotTracked,
0.9570313,-0.2783203,0.04101563,0.9277344,0.277832,0.144043,0,0,-1,0,-2,-1,0,-1,-1,1,-2,1,-1,0,0,-3,7.0625,7.0625,7.0625,-1.5,-1.5,-1.5,2.741669,2.957312,6.401215,6.726809,3.022572,6.262248,-0.1460252,-0.404017,1.561804,0.2331942,-0.4035344,1.519153,0.07249568,0.4909303,1.654034,-0.09592728,-0.3907547,1.538887,0.2719888,-0.4084798,1.513952,0.0546671,0.01865546,1.662984,0.04772359,-0.3107582,1.646244,-0.1162482,0.1921784,1.64268,-0.03615294,-0.3041776,1.610855,-0.1619206,-0.08518509,1.62888,0.2729681,-0.08371012,1.61843,NA,NA,NotTracked,NotTracked,
0.9570313,-0.2783203,0.04101563,0.9223633,0.2763672,0.1420898,0,0,-1,0,-2,-1,0,-1,0,-1,0,0,0,-2,1,1,7.0625,7.0625,7.0625,0.0625,0.0625,0.0625,2.741669,2.957312,6.401215,6.727714,3.022489,6.260437,-0.1460881,-0.4045701,1.561324,0.2331927,-0.4040989,1.518306,0.07239086,0.4909267,1.653748,-0.09578127,-0.3927739,1.540182,0.2711293,-0.4134669,1.510235,0.05447039,0.01864905,1.662649,0.04755072,-0.3108143,1.646007,-0.1163355,0.1922197,1.642406,-0.03632182,-0.3042257,1.610611,-0.1619737,-0.08517204,1.628845,0.2728803,-0.08367145,1.61801,NA,NA,NotTracked,NotTracked,
0.9570313,-0.2783203,0.04101563,0.9321289,0.2783203,0.1376953,0,0,-1,0,-2,-1,0,-1,-1,-1,-3,0,-1,-1,0,3,7.0625,7.0625,7.0625,-1.1875,-1.1875,-1.1875,2.741669,2.957312,6.401215,6.728539,3.021918,6.259095,-0.1461573,-0.406939,1.561621,0.2329786,-0.40369,1.518464,0.07231814,0.4910302,1.653311,-0.09546446,-0.3857657,1.538554,0.2707612,-0.4097574,1.507963,0.05438091,0.01863861,1.662362,0.04744178,-0.3108239,1.64585,-0.1163662,0.1922816,1.642226,-0.03641563,-0.3042364,1.610494,-0.1621611,-0.08565485,1.628602,0.2727696,-0.08365002,1.617585,NA,NA,NotTracked,NotTracked,
0.9570313,-0.2783203,0.04101563,0.9277344,0.2773438,0.1425781,0,0,-1,0,-2,-1,0,-1,-20,-1,-3,-1,-1,-1,-2,-4,7.0625,7.0625,7.0625,-2.125,-2.125,-2.125,2.741669,2.957312,6.401215,6.729267,3.020957,6.25581,-0.1461944,-0.4068905,1.56133,0.2333217,-0.4040157,1.518549,0.07215954,0.4910053,1.65284,-0.09554152,-0.3875613,1.539522,0.2698555,-0.4286295,1.50344,0.0543162,0.01863501,1.662178,0.04738048,-0.3108139,1.645725,-0.1165483,0.1922507,1.642036,-0.03646658,-0.3042418,1.610404,-0.1623341,-0.08500589,1.628404,0.2726562,-0.08375981,1.61726,NA,NA,NotTracked,NotTracked,
0.9570313,-0.2783203,0.04101563,0.9506836,0.3457031,0.09619141,0,0,-1,0,-2,-1,0,-1,19,10,-9,-3,-1,1,0,0,7.0625,7.0625,7.0625,-13.875,-13.875,-13.875,2.741669,2.957312,6.401215,6.733438,3.025861,6.242471,-0.1464351,-0.4072789,1.56165,0.2333238,-0.4044255,1.517144,0.07207193,0.4910442,1.652692,-0.09567021,-0.3881985,1.539464,0.2744638,-0.4304525,1.510714,0.05427086,0.01862426,1.662072,0.04724249,-0.310883,1.645675,-0.116575,0.1922185,1.642003,-0.03656482,-0.3042867,1.610349,-0.1623437,-0.08487495,1.628459,0.2726482,-0.08373001,1.617199,NA,NA,NotTracked,NotTracked,
0.9570313,-0.2783203,0.04101563,1.111816,0.3125,0.2373047,0,0,-1,0,-2,-1,0,-1,7,-4,-6,-11,-4,0,0,-3,7.0625,7.0625,7.0625,-49.5625,-49.5625,-49.5625,2.741669,2.957312,6.401215,6.549098,3.110469,6.329936,-0.1457029,-0.4066838,1.560799,0.2288267,-0.3986957,1.500968,0.0719011,0.4910677,1.652448,-0.09591059,-0.3889904,1.539462,0.2673683,-0.4160496,1.472222,0.05426517,0.01862734,1.661856,0.04717406,-0.31088,1.645563,-0.1167558,0.1921082,1.641834,-0.03664554,-0.3042722,1.610237,-0.1623518,-0.08494222,1.628425,0.2731823,-0.0830387,1.618917,NA,NA,NotTracked,Unknown,
0.9570313,-0.2783203,0.04101563,1.136719,0.5825195,0.4501953,0,0,-1,0,-2,-1,0,-1,-4,-4,0,-1,-3,-4,-3,-3,7.0625,7.0625,7.0625,-11,-11,-11,2.741669,2.957312,6.401215,6.368247,3.334826,6.493811,-0.1457166,-0.4066671,1.561528,0.2248486,-0.3631276,1.460073,0.07165667,0.491089,1.651988,-0.09572223,-0.3892469,1.539135,0.2340259,-0.3446406,1.417341,0.05419464,0.01871045,1.661465,0.04677604,-0.3106734,1.645291,-0.1167928,0.192084,1.641663,-0.03718221,-0.3039997,1.609708,-0.1623284,-0.08487712,1.628414,0.2754534,-0.07674666,1.629448,NA,NA,NotTracked,Unknown,
0.9570313,-0.2783203,0.04101563,1.086426,0.6191406,0.7036133,0,0,-1,0,-2,-1,0,-1,-5,5,-12,2,4,1,3,-2,7.0625,7.0625,7.0625,-34.6875,-34.6875,-34.6875,2.741669,2.957312,6.401215,6.260127,3.696382,6.55845,-0.1458988,-0.4063122,1.561984,0.2116028,-0.2779488,1.408244,0.07141586,0.4911507,1.651399,-0.09552519,-0.3942274,1.538813,0.227678,-0.2579627,1.368714,0.05352049,0.01888877,1.66093,0.04390171,-0.3096874,1.644391,-0.1166486,0.1921598,1.641079,-0.04022697,-0.3027377,1.608374,-0.1621342,-0.08563323,1.628017,0.2779881,-0.06315295,1.643523,NA,NA,NotTracked,Unknown,
0.9570313,-0.2783203,0.04101563,0.5859375,0.6513672,0.7197266,0,0,-1,0,-2,-1,0,-1,6,-4,2,-5,-2,-3,-1,2,7.0625,7.0625,7.0625,-8.0625,-8.0625,-8.0625,2.741669,2.957312,6.401215,6.215599,4.159755,6.584601,-0.1464705,-0.4063201,1.561478,0.1837119,-0.1639181,1.359042,0.07157531,0.4910439,1.650639,-0.09615823,-0.3861977,1.539418,0.1576413,-0.1654429,1.353789,0.05282118,0.01913351,1.660446,0.04161009,-0.3089397,1.643812,-0.1164629,0.1921831,1.640646,-0.04232445,-0.3020952,1.607635,-0.1619821,-0.08464213,1.627725,0.2776313,-0.04329905,1.652279,NA,NA,NotTracked,Unknown,
0.9570313,-0.2783203,0.04101563,0.2319336,0.640625,0.7202148,0,0,-1,0,-2,-1,0,-1,22,7,-5,-6,-3,-4,-6,5,7.0625,7.0625,7.0625,8.1875,8.1875,8.1875,2.741669,2.957312,6.401215,6.219568,4.687377,6.596178,-0.1470164,-0.4053108,1.560237,0.1664364,-0.03333547,1.351135,0.07217403,0.4909722,1.649401,-0.09649342,-0.3973337,1.538839,0.1881422,-0.05551612,1.343417,0.05278936,0.01917087,1.660378,0.04151983,-0.3087924,1.64394,-0.1158264,0.1923362,1.639689,-0.04237401,-0.3020309,1.60768,-0.1619978,-0.08391997,1.627102,0.2883585,-0.04131578,1.631901,NA,NA,NotTracked,Unknown,
0.9570313,-0.2783203,0.04101563,-0.1186523,0.6000977,0.5078125,0,0,-1,0,-2,-1,0,-1,5,-1,-7,0,5,-2,1,1,7.0625,7.0625,7.0625,-6.9375,-6.9375,-6.9375,2.741669,2.957312,6.401215,6.214545,5.239177,6.635599,-0.1458818,-0.4054828,1.559002,0.1595836,0.09229721,1.389164,0.0732871,0.4907475,1.648472,-0.09729132,-0.3856072,1.539513,0.1210944,0.1332443,1.42425,0.05286693,0.019126,1.660308,0.0416082,-0.3087238,1.644065,-0.1150411,0.192123,1.638818,-0.0422444,-0.3022039,1.60766,-0.1617671,-0.08310337,1.62636,0.276325,-0.04133367,1.594867,NA,NA,NotTracked,Closed,
0.9570313,-0.2783203,0.04101563,-0.6015625,0.4526367,0.4174805,0,0,-1,0,-2,-1,0,-1,-26,-9,-1,4,6,2,-2,-3,7.0625,7.0625,7.0625,51.875,51.875,51.875,2.741669,2.957312,6.401215,6.345448,6.074069,6.767377,-0.1461045,-0.4048907,1.559457,0.1536835,0.1765915,1.442145,0.07384231,0.4903834,1.64746,-0.09655192,-0.3910584,1.539257,0.1217935,0.1619219,1.528667,0.05283516,0.01877188,1.660227,0.04177728,-0.3095242,1.644033,-0.1146953,0.1921908,1.638299,-0.04216987,-0.3033359,1.608456,-0.161319,-0.08281607,1.625238,0.3018892,-0.0733458,1.605048,NA,NA,NotTracked,Unknown,
0.9570313,-0.2783203,0.04101563,-0.637207,0.5205078,0.3569336,0,0,-1,0,-2,-1,0,-1,40,7,3,4,1,1,0,4,7.0625,7.0625,7.0625,40.5,40.5,40.5,2.741669,2.957312,6.401215,6.395185,6.207259,6.808185,-0.1458312,-0.4051046,1.559289,0.149692,0.2285984,1.489499,0.07373316,0.4903313,1.647201,-0.09641777,-0.3908966,1.539209,0.1225309,0.1914272,1.554,0.05291022,0.01846787,1.659988,0.04188728,-0.3101833,1.643951,-0.114063,0.1927398,1.637654,-0.04227018,-0.30437,1.609553,-0.1610524,-0.0814815,1.624325,0.2970996,-0.07465177,1.585348,NA,NA,NotTracked,Unknown,
0.9570313,-0.2783203,0.04101563,-0.7431641,0.3417969,0.3276367,0,0,-1,0,-2,-1,0,-1,8,-4,-1,3,1,0,0,-1,7.0625,7.0625,7.0625,12.875,12.875,12.875,2.741669,2.957312,6.401215,6.4938,6.439997,6.918084,-0.1455093,-0.4051777,1.558886,0.1501819,0.2461983,1.510784,0.07362858,0.4903802,1.647052,-0.09658262,-0.3925844,1.539627,0.1203296,0.203479,1.56312,0.05315744,0.01799011,1.6594,0.04193149,-0.3109071,1.643903,-0.1131833,0.1931466,1.637276,-0.04243175,-0.3052709,1.610346,-0.1611148,-0.07980583,1.623661,0.2834669,-0.05802328,1.546783,NA,NA,NotTracked,Unknown,
0.9570313,-0.2783203,0.04101563,-0.6875,0.4169922,0.2304688,0,0,-1,0,-2,-1,0,-1,11,8,7,11,3,0,-3,0,7.0625,7.0625,7.0625,-6.3125,-6.3125,-6.3125,2.741669,2.957312,6.401215,6.883327,6.768135,7.353035,-0.145353,-0.4047551,1.556581,0.1435507,0.2461507,1.52307,0.07389598,0.4900163,1.647011,-0.09671483,-0.3811446,1.53829,0.1071788,0.20512,1.570967,0.05333312,0.017275,1.658861,0.04208734,-0.311872,1.643645,-0.1127418,0.1933317,1.636978,-0.04247129,-0.3063734,1.611166,-0.1609405,-0.07907636,1.623478,0.2724969,-0.02178551,1.516575,NA,NA,NotTracked,NotTracked,
0.9570313,-0.2783203,0.04101563,-0.7612305,0.4667969,0.215332,0,0,-1,0,-2,-1,0,-1,0,0,-3,-5,-4,-1,0,0,7.0625,7.0625,7.0625,-8.25,-8.25,-8.25,2.741669,2.957312,6.401215,6.997192,6.804418,7.503117,-0.145084,-0.4036753,1.556166,0.1409959,0.245939,1.52761,0.07459108,0.4893246,1.646947,-0.09525501,-0.4163882,1.538577,0.1013865,0.2028836,1.570849,0.05328581,0.01621719,1.657985,0.04211598,-0.3128169,1.643217,-0.1123877,0.1935147,1.636814,-0.04260288,-0.3073055,1.611673,-0.1608681,-0.07896372,1.623337,0.2719233,-0.0209994,1.5167,NA,NA,NotTracked,NotTracked,
0.9570313,-0.2783203,0.04101563,-0.8491211,0.4511719,0.07861328,0,0,-1,0,-2,-1,0,-1,-16,-12,-2,-2,0,-2,-6,-4,7.0625,7.0625,7.0625,-7.4375,-7.4375,-7.4375,2.741669,2.957312,6.401215,7.035037,6.822271,7.583793,-0.1457283,-0.404972,1.5564,0.1439763,0.2325052,1.530457,0.0751681,0.4883256,1.646812,-0.09587186,-0.3919161,1.537026,0.09220678,0.1806275,1.561559,0.05317695,0.01542675,1.657273,0.04205659,-0.3135417,1.642758,-0.1122134,0.1936032,1.636763,-0.0427736,-0.3078697,1.611891,-0.1607918,-0.07879462,1.623389,0.2705915,-0.02074598,1.516471,NA,NA,NotTracked,NotTracked,
0.9570313,-0.2783203,0.04101563,-0.9482422,0.4082031,0.2382813,0,0,-1,0,-2,-1,0,-1,6,-1,3,-4,-5,-4,-5,-3,7.0625,7.0625,7.0625,29.125,29.125,29.125,2.741669,2.957312,6.401215,6.983644,6.813019,7.523336,-0.1460839,-0.4045382,1.558843,0.1464825,0.248953,1.527285,0.07556337,0.487913,1.64725,-0.09623221,-0.3922313,1.538412,0.1019433,0.1932028,1.567403,0.05322002,0.01519206,1.657162,0.04200635,-0.3137819,1.642619,-0.1120356,0.1937163,1.636775,-0.04288761,-0.3081623,1.612146,-0.1607699,-0.07868841,1.623474,0.2668661,-0.02026649,1.514279,NA,NA,NotTracked,NotTracked,
0.9570313,-0.2783203,0.04101563,-1.037109,0.4638672,0.1040039,0,0,-1,0,-2,-1,0,-1,1,6,3,1,0,0,-1,0,7.0625,7.0625,7.0625,37.125,37.125,37.125,2.741669,2.957312,6.401215,6.970978,6.825447,7.460948,-0.1461295,-0.4042044,1.557155,0.1580918,0.2558604,1.526539,0.07569145,0.4875793,1.647448,-0.09555361,-0.4052822,1.536,0.1196001,0.2104258,1.57179,0.0534685,0.01531446,1.657017,0.04185137,-0.3137326,1.642284,-0.1100844,0.1937426,1.637892,-0.04302631,-0.3080726,1.612055,-0.1609225,-0.07811874,1.623726,0.2653168,-0.0194892,1.5116,NA,NA,NotTracked,NotTracked,
0.9570313,-0.2783203,0.04101563,-1.040527,0.421875,0.07861328,0,0,-1,0,-2,-1,0,-1,16,5,2,-4,-3,-2,-2,-1,7.0625,7.0625,7.0625,39.6875,39.6875,39.6875,2.741669,2.957312,6.401215,6.990713,6.868665,7.432977,-0.1462732,-0.4042294,1.556937,0.1736844,0.2733357,1.526029,0.07591121,0.4866225,1.647704,-0.09611771,-0.3948672,1.537288,0.1458287,0.2137947,1.578252,0.05597413,0.01779993,1.65738,0.0414856,-0.3122137,1.641702,-0.1088577,0.1942404,1.638103,-0.04350626,-0.3059553,1.610826,-0.1612577,-0.07621308,1.623783,0.2670942,-0.01637711,1.503842,NA,NA,NotTracked,NotTracked,
0.9570313,-0.2783203,0.04101563,-1.044922,0.3212891,0.06445313,0,0,-1,0,-2,-1,0,-1,0,2,-3,-6,-3,1,0,1,7.0625,7.0625,7.0625,55.3125,55.3125,55.3125,2.741669,2.957312,6.401215,7.10739,6.970847,7.46475,-0.1463741,-0.4036522,1.556131,0.1299227,0.3939583,1.55169,0.07677197,0.4855102,1.647841,-0.09483917,-0.3898109,1.53525,0.0893724,0.3503025,1.577306,0.05810722,0.01998338,1.658514,0.0411672,-0.3097648,1.641145,-0.1068307,0.1951376,1.638285,-0.04387955,-0.3030885,1.609527,-0.161487,-0.07488564,1.623397,0.2707666,-0.006728093,1.485999,NA,NA,NotTracked,NotTracked,
0.9570313,-0.2783203,0.04101563,-0.9760742,0.2416992,0.04101563,0,0,-1,0,-2,-1,0,-1,4,-2,-1,-4,1,1,-2,0,7.0625,7.0625,7.0625,53.6875,53.6875,53.6875,2.741669,2.957312,6.401215,7.370738,7.073111,7.640392,-0.1458838,-0.4036784,1.5543,0.1394448,0.3993861,1.54958,0.07795558,0.4842504,1.647725,-0.095185,-0.3811608,1.53526,0.1056877,0.3608865,1.540902,0.05946079,0.02090177,1.658976,0.04127876,-0.3087072,1.640681,-0.1062747,0.1953958,1.638292,-0.04388082,-0.3017222,1.608272,-0.1615936,-0.07328653,1.622755,0.2767629,9.573108E-05,1.475656,NA,NA,NotTracked,NotTracked,
0.9570313,-0.2783203,0.04101563,-0.9428711,0.1679688,0.007324219,0,0,-1,0,-2,-1,0,-1,-7,2,1,5,2,0,1,-2,7.0625,7.0625,7.0625,28.9375,28.9375,28.9375,2.741669,2.957312,6.401215,7.835605,7.125385,8.039917,-0.1453852,-0.4034829,1.553522,0.1371044,0.4007737,1.553961,0.07891314,0.4832971,1.647496,-0.09543172,-0.3921209,1.536677,0.1234571,0.3521041,1.560735,0.0605334,0.02124278,1.659271,0.04152535,-0.3082253,1.640414,-0.1050468,0.1959035,1.638425,-0.0437292,-0.3011991,1.607723,-0.1616781,-0.0727409,1.622208,0.2818826,0.005981191,1.468334,NA,NA,NotTracked,NotTracked,
0.9570313,-0.2783203,0.04101563,-0.9067383,0.1699219,-0.07861328,0,0,-1,0,-2,-1,0,-1,-2,1,4,-3,-2,0,-1,-5,7.0625,7.0625,7.0625,-1.4375,-1.4375,-1.4375,2.741669,2.957312,6.401215,8.204823,7.1259,8.393154,-0.1449958,-0.4033604,1.553124,0.1358874,0.3998712,1.555559,0.07943657,0.4824283,1.647345,-0.0960208,-0.3929669,1.536334,0.1238221,0.3492101,1.558627,0.06143178,0.02142286,1.6595,0.0419771,-0.3078265,1.64021,-0.1044364,0.1960348,1.638492,-0.04330797,-0.3009435,1.607201,-0.1616391,-0.07265873,1.621908,0.2848011,0.009837732,1.464909,NA,NA,NotTracked,NotTracked,
0.9570313,-0.2783203,0.04101563,-0.9243164,0.2026367,-0.125,0,0,-1,0,-2,-1,0,-1,14,3,-1,-2,0,-1,-1,1,7.0625,7.0625,7.0625,-16.8125,-16.8125,-16.8125,2.741669,2.957312,6.401215,8.275627,7.117396,8.490051,-0.1453056,-0.4038481,1.553151,0.1344599,0.4011993,1.554125,0.0797625,0.4818932,1.6472,-0.09559739,-0.3907782,1.536486,0.1602811,0.3940365,1.581148,0.06173837,0.02145048,1.65959,0.04220417,-0.3077182,1.64008,-0.1041541,0.1960519,1.638481,-0.04313783,-0.3009291,1.607089,-0.1616009,-0.07254882,1.621638,0.2854602,0.01054863,1.464347,NA,NA,NotTracked,NotTracked,
0.9570313,-0.2783203,0.04101563,-0.9892578,0.2109375,-0.1293945,0,0,-1,0,-2,-1,0,-1,0,-4,-1,0,-1,-1,0,1,7.0625,7.0625,7.0625,-10.375,-10.375,-10.375,2.741669,2.957312,6.401215,8.259112,7.109566,8.493928,-0.1455604,-0.4030708,1.554685,0.1334356,0.4004659,1.554603,0.08004975,0.4813334,1.647174,-0.09518406,-0.3794286,1.536542,0.1570527,0.3885059,1.579974,0.06191799,0.02136406,1.659624,0.04235279,-0.3077496,1.639969,-0.1038476,0.1960503,1.638474,-0.04302062,-0.3010184,1.607023,-0.1615347,-0.07231928,1.621447,0.2855256,0.0102602,1.464381,NA,NA,NotTracked,NotTracked,
0.9570313,-0.2783203,0.04101563,-0.9931641,0.2294922,-0.1362305,0,0,-1,0,-2,-1,0,-1,0,-2,1,-2,-3,-1,0,0,7.0625,7.0625,7.0625,-8.3125,-8.3125,-8.3125,2.741669,2.957312,6.401215,8.243775,7.104559,8.492378,-0.1450531,-0.4010894,1.554422,0.1326908,0.4012365,1.553707,0.08015993,0.481002,1.647145,-0.09567922,-0.3899227,1.536151,0.1582402,0.3897367,1.580276,0.06198784,0.02131957,1.659622,0.04252597,-0.3078324,1.639831,-0.1036882,0.1959977,1.638467,-0.04285739,-0.3012021,1.606888,-0.161531,-0.07201667,1.621402,0.2854214,0.01007988,1.464175,NA,NA,NotTracked,NotTracked,
0.9570313,-0.2783203,0.04101563,-0.996582,0.2299805,-0.125,0,0,-1,0,-2,-1,0,-1,0,1,-3,1,3,0,-1,-1,7.0625,7.0625,7.0625,-3.125,-3.125,-3.125,2.741669,2.957312,6.401215,8.25423,7.099309,8.510768,-0.1450579,-0.4005523,1.554041,0.1319368,0.399887,1.552862,0.08024565,0.4808014,1.64709,-0.09673614,-0.377081,1.536366,0.1504644,0.379711,1.5776,0.06208121,0.02124835,1.659574,0.04271036,-0.3078704,1.639676,-0.1034783,0.1959114,1.638507,-0.0426701,-0.301365,1.606797,-0.1614515,-0.0719206,1.621326,0.2852658,0.01040991,1.463505,NA,NA,Unknown,NotTracked,
0.9570313,-0.2783203,0.04101563,-0.9462891,0.2226563,-0.1196289,0,0,-1,0,-2,-1,0,-1,-6,-2,-1,2,2,0,-1,-4,7.0625,7.0625,7.0625,1.9375,1.9375,1.9375,2.741669,2.957312,6.401215,8.281036,7.094426,8.536789,-0.1454645,-0.4012303,1.554838,0.1657418,0.3147703,1.53074,0.08028342,0.4807627,1.647084,-0.09553844,-0.3869036,1.535598,0.1321286,0.3260814,1.57495,0.06216114,0.02124044,1.659546,0.04287814,-0.3079168,1.63959,-0.1033496,0.1957992,1.638578,-0.04248993,-0.3014866,1.606728,-0.1614286,-0.07192113,1.621317,0.2866209,0.008933493,1.463814,NA,NA,Unknown,NotTracked,
0.9570313,-0.2783203,0.04101563,-0.9130859,0.2338867,-0.1088867,0,0,-1,0,-2,-1,0,-1,-13,-4,0,-3,0,0,1,-1,7.0625,7.0625,7.0625,1.3125,1.3125,1.3125,2.741669,2.957312,6.401215,8.252094,7.089296,8.506122,-0.1450872,-0.4017445,1.556274,0.1462675,0.3392093,1.534988,0.08029124,0.4806818,1.647009,-0.0957847,-0.3768439,1.537732,0.1663249,0.3710932,1.564444,0.06224444,0.02113266,1.659527,0.04306588,-0.3080309,1.639538,-0.1032398,0.195655,1.638563,-0.04221969,-0.3018301,1.606733,-0.1613996,-0.07196637,1.621292,0.2874754,0.008004881,1.464422,NA,NA,Unknown,NotTracked,
0.9570313,-0.2783203,0.04101563,-0.7709961,0.2333984,-0.09228516,0,0,-1,0,-2,-1,0,-1,-31,-10,-6,-3,-2,-2,-3,-2,7.0625,7.0625,7.0625,-4,-4,-4,2.741669,2.957312,6.401215,8.143308,7.075227,8.397449,-0.144794,-0.398833,1.55419,0.1325084,0.4005172,1.547643,0.08025858,0.4806501,1.646547,-0.09626032,-0.3946213,1.535773,0.1649252,0.3908383,1.567964,0.06229046,0.0211199,1.659338,0.04312012,-0.3080576,1.63948,-0.1032106,0.1956446,1.638461,-0.04214519,-0.3019045,1.606689,-0.1614518,-0.07197197,1.621182,0.2871345,0.006068151,1.466948,NA,NA,Unknown,NotTracked,
0.9570313,-0.2783203,0.04101563,-0.5859375,0.2666016,-0.01269531,0,0,-1,0,-2,-1,0,-1,-7,-2,1,1,1,1,1,-6,7.0625,7.0625,7.0625,-38.6875,-38.6875,-38.6875,2.741669,2.957312,6.401215,7.7565,7.001847,8.03721,-0.1451126,-0.3999502,1.555624,0.1715645,0.2804422,1.504729,0.07920516,0.4810877,1.645908,-0.09674395,-0.375583,1.538014,0.1579427,0.2180525,1.575611,0.06221293,0.02111054,1.6591,0.04308418,-0.3080671,1.639448,-0.1039735,0.1956173,1.638045,-0.0421821,-0.3019425,1.606696,-0.1614512,-0.0719675,1.621177,0.2880898,-0.004965507,1.485912,NA,NA,Unknown,NotTracked,
0.9570313,-0.2783203,0.04101563,-0.6762695,0.2885742,0.2055664,0,0,-1,0,-2,-1,0,-1,13,1,-2,-1,0,0,-1,-2,7.0625,7.0625,7.0625,-74.6875,-74.6875,-74.6875,2.741669,2.957312,6.401215,6.881698,6.513138,7.264615,-0.1449567,-0.3994465,1.554584,0.1547025,0.27716,1.437251,0.07469036,0.4840711,1.644976,-0.09669119,-0.3768289,1.537042,0.147778,0.2943813,1.468778,0.0607296,0.02077476,1.658527,0.04283684,-0.3082312,1.639392,-0.1053127,0.195596,1.637942,-0.04255853,-0.3022437,1.607101,-0.1614875,-0.07202676,1.621214,0.2866194,-0.02206061,1.514943,NA,NA,Unknown,Unknown,
0.9570313,-0.2783203,0.04101563,-0.7602539,0.4448242,0.3891602,0,0,-1,0,-2,-1,0,-1,-1,2,-1,-2,-2,1,3,-1,7.0625,7.0625,7.0625,-72.5625,-72.5625,-72.5625,2.741669,2.957312,6.401215,6.596166,5.980342,7.037317,-0.144507,-0.4033193,1.555461,0.1547743,0.133816,1.376797,0.07365757,0.4847903,1.644998,-0.09618036,-0.384365,1.537227,0.1711975,0.1617523,1.352696,0.05817968,0.01888078,1.658981,0.04265279,-0.3097631,1.639541,-0.1081143,0.1940525,1.639247,-0.04270667,-0.3044205,1.6082,-0.1613905,-0.07337665,1.622138,0.2853434,-0.03155332,1.555972,NA,NA,NotTracked,Lasso,
0.9570313,-0.2783203,0.04101563,-0.1625977,0.550293,0.3608398,0,0,-1,0,-2,-1,0,-1,1,-5,0,-2,1,0,-1,1,7.0625,7.0625,7.0625,-34.25,-34.25,-34.25,2.741669,2.957312,6.401215,6.448956,5.342068,6.904875,-0.1446913,-0.4067107,1.557841,0.1454219,-0.0111823,1.32476,0.07346863,0.4853842,1.644929,-0.09622333,-0.387976,1.536881,0.1535612,0.01948104,1.302,0.05697015,0.01886796,1.659209,0.04248758,-0.309528,1.6397,-0.1090201,0.1936142,1.639433,-0.04265527,-0.304167,1.607751,-0.1612347,-0.07572663,1.623427,0.292823,-0.02979951,1.594782,NA,NA,NotTracked,Unknown,
0.9570313,-0.2783203,0.04101563,0.3701172,0.8613281,0.5942383,0,0,-1,0,-2,-1,0,-1,-1,-1,0,-3,-30,-9,1,7,7.0625,7.0625,7.0625,24.875,24.875,24.875,2.741669,2.957312,6.401215,6.454101,4.513279,6.782575,-0.1458286,-0.405506,1.558295,0.1643389,-0.1768983,1.343541,0.07291422,0.4857754,1.644836,-0.09571595,-0.3902156,1.53543,0.1713048,-0.1514659,1.302467,0.05585368,0.01875371,1.65894,0.0418589,-0.3093116,1.639419,-0.1106871,0.1927183,1.639682,-0.04306214,-0.3037629,1.606066,-0.1611709,-0.07728498,1.623898,0.3164647,-0.04768727,1.619524,NA,NA,NotTracked,Closed,
0.9570313,-0.2783203,0.04101563,1.12207,0.9204102,0.5522461,0,0,-1,0,-2,-1,0,-1,0,-2,-4,-4,-1,-6,-2,-12,7.0625,7.0625,7.0625,3.9375,3.9375,3.9375,2.741669,2.957312,6.401215,6.537055,3.947539,6.65686,-0.1460403,-0.4064467,1.557509,0.2032575,-0.2879733,1.414234,0.07245704,0.4861894,1.644859,-0.09626934,-0.3854647,1.536188,0.2125893,-0.2822153,1.354686,0.05436744,0.01872107,1.658649,0.04011847,-0.3091027,1.638973,-0.1115639,0.1925373,1.639815,-0.04475998,-0.3030302,1.604586,-0.1610934,-0.07797571,1.623997,0.2876427,-0.04990393,1.62751,NA,NA,NotTracked,Closed,
0.9570313,-0.2783203,0.04101563,1.29248,0.8505859,0.4956055,0,0,-1,0,-2,-1,0,-1,-4,1,3,3,-5,-1,1,3,7.0625,7.0625,7.0625,-69.4375,-69.4375,-69.4375,2.741669,2.957312,6.401215,6.60822,3.490884,6.502808,-0.1457808,-0.4062175,1.554965,0.2279161,-0.3718109,1.464368,0.07238346,0.4864957,1.644744,-0.09573627,-0.3883476,1.535536,0.2419014,-0.3748731,1.412803,0.05431778,0.01873245,1.658524,0.04122007,-0.3090863,1.638854,-0.1124625,0.1922768,1.639731,-0.04329531,-0.3029288,1.603972,-0.1612257,-0.079282,1.623773,0.2811327,-0.06418137,1.622927,NA,NA,NotTracked,Unknown,
0.9570313,-0.2783203,0.04101563,1.213379,0.2763672,0.2944336,0,0,-1,0,-2,-1,0,-1,-22,-5,0,0,-3,-1,0,-9,7.0625,7.0625,7.0625,-39.8125,-39.8125,-39.8125,2.741669,2.957312,6.401215,6.770569,3.090849,6.092958,-0.1455995,-0.4074427,1.552121,0.2452387,-0.40464,1.51174,0.07244527,0.4868365,1.644456,-0.09571832,-0.3887359,1.535206,0.2853457,-0.4161862,1.490725,0.05456097,0.01856295,1.658209,0.04378016,-0.3098095,1.638817,-0.113099,0.1920466,1.639344,-0.04043129,-0.3035772,1.603521,-0.1612469,-0.07994259,1.6233,0.2781319,-0.07627901,1.618098,NA,NA,NotTracked,Unknown,
0.9570313,-0.2783203,0.04101563,1.17334,0.4238281,0.08105469,0,0,-1,0,-2,-1,0,-1,1,0,-3,0,-2,0,-1,-1,7.0625,7.0625,7.0625,-18.125,-18.125,-18.125,2.741669,2.957312,6.401215,7.023751,2.961741,5.81912,-0.1458929,-0.4078726,1.553526,0.2616616,-0.4188725,1.540758,0.07266551,0.4870315,1.644122,-0.09595434,-0.388514,1.535538,0.305808,-0.4046476,1.539632,0.05483236,0.01829259,1.65796,0.04577683,-0.3105406,1.638892,-0.113416,0.1920614,1.63903,-0.03839479,-0.3041919,1.603405,-0.1615744,-0.08291618,1.622686,0.2777256,-0.0837426,1.617283,NA,NA,NotTracked,NotTracked,
