ALX,ALY,ALZ,ARX,ARY,ARZ,EMG0L,EMG1L,EMG2L,EMG3L,EMG4L,EMG5L,EMG6L,EMG7L,EMG0R,EMG1R,EMG2R,EMG3R,EMG4R,EMG5R,EMG6R,EMG7R,GLX,GLY,GLZ,GRX,GRY,GRZ,ORL,OPL,OYL,ORR,OPR,OYR,LHNX,LHNY,LHNZ,RHNX,RHNY,RHNZ,HX,HY,HZ,LTX,LTY,LTZ,RTX,RTY,RTZ,SpineMidX,SpineMidY,SpineMidZ,SpineBaseX,SpineBaseY,SpineBaseZ,ShoulderLeftX,ShoulderLeftY,ShoulderLeftZ,ShoulderRightX,ShoulderRightY,ShoulderRightZ,ElbowLeftX,ElbowLeftY,ElbowLeftZ,ElbowRightX,ElbowRightY,ElbowRightZ,Myo_Pose_left,Myo_Pose_Right,Kinect_pose_left,Kinect_pose_right
0.9555664,-0.2783203,0.05371094,0.9223633,0.2788086,0.1738281,0,0,1,-1,-2,-2,1,-2,-1,0,-2,0,1,-1,-2,1,-1.5625,-1.5625,-1.5625,0.6875,0.6875,0.6875,2.768324,2.946573,4.400256,6.608207,3.047547,5.36663,-0.1156325,-0.4039975,1.584584,0.2547193,-0.4103808,1.5323,0.1103494,0.4921798,1.683718,-0.06900042,-0.3962499,1.568208,0.2069251,-0.4023418,1.514335,0.08462773,0.02275299,1.687066,0.07442056,-0.3035706,1.669191,-0.08163168,0.1975447,1.670644,-0.009541129,-0.2963356,1.634848,-0.1329261,-0.08681454,1.653788,0.2971391,-0.08674454,1.623828,NA,NA,NotTracked,Unknown,
0.9555664,-0.2783203,0.05371094,0.9204102,0.28125,0.1713867,0,0,1,-1,-2,-2,1,-2,5,1,-1,0,-2,6,-1,3,-1.5625,-1.5625,-1.5625,-0.4375,-0.4375,-0.4375,2.768324,2.946573,4.400256,6.608207,3.047547,5.36663,-0.1151034,-0.402374,1.584024,0.2543803,-0.4104531,1.532214,0.1106274,0.4921903,1.683931,-0.06975397,-0.4037847,1.56939,0.2064938,-0.3988631,1.515243,0.08476072,0.02272238,1.687261,0.07449837,-0.3036318,1.669395,-0.08142608,0.1975954,1.670946,-0.009471679,-0.2963612,1.635,-0.1328454,-0.08676513,1.654022,0.2971287,-0.08672124,1.62402,NA,NA,NotTracked,Unknown,
0.9555664,-0.2783203,0.05371094,0.925293,0.2749023,0.171875,0,0,1,-1,-2,-2,1,-2,-4,-4,-2,-1,0,-1,-1,0,-1.5625,-1.5625,-1.5625,-0.25,-0.25,-0.25,2.768324,2.946573,4.400256,6.607867,3.047451,5.36568,-0.1150751,-0.4031165,1.58438,0.2547481,-0.4107741,1.53246,0.1108755,0.4922695,1.684321,-0.06866498,-0.3977706,1.567594,0.205768,-0.4105957,1.513636,0.08484871,0.02273147,1.687477,0.07451636,-0.3036579,1.669532,-0.08131041,0.1975572,1.671338,-0.009463891,-0.2963908,1.635145,-0.13274,-0.0868926,1.654201,0.2971381,-0.08664773,1.624355,NA,NA,NotTracked,Unknown,
0.9555664,-0.2783203,0.05371094,0.9155273,0.2763672,0.1733398,0,0,1,-1,-2,-2,1,-2,-9,-2,-1,-1,-1,1,-2,-5,-1.5625,-1.5625,-1.5625,0.375,0.375,0.375,2.768324,2.946573,4.400256,6.607533,3.047843,5.365814,-0.1153765,-0.4033839,1.584308,0.2542782,-0.4103794,1.532479,0.1110557,0.492393,1.6847,-0.06891306,-0.3942612,1.568568,0.2053544,-0.4158539,1.5134,0.08495303,0.02276092,1.687725,0.07456709,-0.3036796,1.669705,-0.08128943,0.1975525,1.671865,-0.00940933,-0.2964085,1.635284,-0.1326535,-0.08702397,1.654627,0.2971343,-0.08635807,1.624889,NA,NA,NotTracked,Unknown,
0.9555664,-0.2783203,0.05371094,0.9233398,0.2753906,0.1748047,0,0,1,-1,-2,-2,1,-2,1,-1,-1,0,-1,1,0,1,-1.5625,-1.5625,-1.5625,0.5,0.5,0.5,2.768324,2.946573,4.400256,6.607589,3.047454,5.365954,-0.1155661,-0.4033766,1.584736,0.2545081,-0.4103214,1.53326,0.111227,0.4923882,1.685102,-0.06887835,-0.3949022,1.568495,0.2066224,-0.4031221,1.515205,0.0850751,0.02271057,1.688096,0.07466154,-0.3037452,1.66998,-0.08119987,0.1975526,1.672282,-0.009324479,-0.2964521,1.635517,-0.1325385,-0.08701069,1.655033,0.2971539,-0.08636364,1.625134,NA,NA,NotTracked,Unknown,
0.9555664,-0.2783203,0.05371094,0.9179688,0.2753906,0.1806641,0,0,1,-1,-2,-2,1,-2,2,0,-2,-3,0,1,1,-2,-1.5625,-1.5625,-1.5625,0,0,0,2.768324,2.946573,4.400256,6.607589,3.047454,5.365954,-0.1151124,-0.4030227,1.584782,0.254262,-0.410712,1.533225,0.1114814,0.4923564,1.685457,-0.06893484,-0.3961689,1.568602,0.2062439,-0.406354,1.514305,0.08518678,0.02265497,1.688394,0.07468885,-0.3037689,1.670202,-0.08103536,0.1975694,1.672834,-0.009283412,-0.2964751,1.635747,-0.1325778,-0.08731844,1.655395,0.29716,-0.08647975,1.625458,NA,NA,NotTracked,Unknown,
0.9555664,-0.2783203,0.05371094,0.9194336,0.2758789,0.1767578,0,0,1,-1,-2,-2,1,-2,-3,0,-2,-2,0,-1,-1,0,-1.5625,-1.5625,-1.5625,0.5625,0.5625,0.5625,2.768324,2.946573,4.400256,6.607727,3.047192,5.366155,-0.1154252,-0.4030559,1.585738,0.2544435,-0.4104282,1.533684,0.1117109,0.4924048,1.685983,-0.06953532,-0.4173729,1.570647,0.2067234,-0.3971554,1.516754,0.08524391,0.02260577,1.688692,0.07473074,-0.3038702,1.670428,-0.08105786,0.1974138,1.673261,-0.009249448,-0.2965572,1.635875,-0.1327209,-0.08660419,1.655938,0.2972425,-0.08651975,1.625625,NA,NA,NotTracked,Unknown,
0.9555664,-0.2783203,0.05371094,0.9204102,0.2797852,0.1791992,0,0,1,-1,-2,-2,1,-2,3,0,-2,0,-2,-3,-2,-2,-1.5625,-1.5625,-1.5625,0.6875,0.6875,0.6875,2.768324,2.946573,4.400256,6.607727,3.047192,5.366155,-0.1159136,-0.4029435,1.586104,0.2541953,-0.4109843,1.533806,0.1119353,0.4923906,1.686377,-0.06956069,-0.3949263,1.569823,0.204355,-0.4263912,1.5138,0.08535697,0.02254498,1.688976,0.07474914,-0.3038818,1.670567,-0.08097377,0.1974905,1.673809,-0.009232091,-0.2965605,1.636,-0.1327281,-0.08618165,1.656341,0.2972302,-0.08627409,1.625905,NA,NA,NotTracked,Unknown,
0.9555664,-0.2783203,0.05371094,0.9208984,0.2802734,0.1777344,0,0,1,-1,-2,-2,1,-2,-1,0,-1,-3,0,-1,-1,-3,-1.5625,-1.5625,-1.5625,1.5625,1.5625,1.5625,2.768324,2.946573,4.400256,6.608073,3.048378,5.367036,-0.1156398,-0.4034599,1.586878,0.2538255,-0.4106223,1.533975,0.1121185,0.4923607,1.687097,-0.06824222,-0.3947637,1.569906,0.2055004,-0.4124165,1.514843,0.08541998,0.02261337,1.689375,0.07479081,-0.3038304,1.670804,-0.08081263,0.1973895,1.674355,-0.009184076,-0.2965139,1.636284,-0.1327399,-0.08608081,1.65676,0.2972406,-0.08635387,1.626153,NA,NA,NotTracked,Unknown,
0.9555664,-0.2783203,0.05371094,0.9345703,0.2832031,0.171875,0,0,1,-1,-2,-2,1,-2,16,4,-1,2,-1,1,0,4,-1.5625,-1.5625,-1.5625,2.875,2.875,2.875,2.768324,2.946573,4.400256,6.61246,3.052048,5.367728,-0.1151998,-0.4036543,1.586618,0.2539856,-0.4110673,1.533595,0.1123035,0.4923069,1.687684,-0.06918468,-0.3984659,1.570111,0.2059237,-0.4037602,1.516196,0.08572865,0.02270856,1.689971,0.07497101,-0.3036303,1.671166,-0.08062582,0.1973949,1.675019,-0.008973847,-0.2963627,1.636799,-0.1327471,-0.08615491,1.657089,0.2972689,-0.08632696,1.626456,NA,NA,NotTracked,Unknown,
0.9555664,-0.2783203,0.05371094,0.9389648,0.3081055,0.1713867,0,0,1,-1,-2,-2,1,-2,-20,0,-3,-2,0,0,-2,-3,-1.5625,-1.5625,-1.5625,3.6875,3.6875,3.6875,2.768324,2.946573,4.400256,6.605257,3.066025,5.3809,-0.1155738,-0.4036594,1.588196,0.2521536,-0.4104315,1.530739,0.1124511,0.492202,1.68849,-0.06915269,-0.3974472,1.569909,0.204645,-0.4192169,1.515355,0.08582051,0.02260448,1.690238,0.07492545,-0.3036915,1.671419,-0.08051929,0.1973308,1.675632,-0.009029384,-0.2964035,1.637055,-0.132756,-0.08547638,1.657862,0.297413,-0.0863639,1.62706,NA,NA,NotTracked,Unknown,
0.9555664,-0.2783203,0.05371094,0.9775391,0.3549805,0.25,0,0,1,-1,-2,-2,1,-2,-15,-12,-9,-1,-1,-2,-3,-4,-1.5625,-1.5625,-1.5625,-10.0625,-10.0625,-10.0625,2.768324,2.946573,4.400256,6.559209,3.107038,5.416185,-0.1151959,-0.4031992,1.587619,0.2470692,-0.4051727,1.521119,0.1124437,0.4921299,1.689025,-0.06910001,-0.3988568,1.5698,0.2030707,-0.4025209,1.515708,0.08590619,0.02255712,1.690488,0.07486374,-0.3036634,1.671632,-0.08040434,0.1974168,1.675963,-0.009111092,-0.2963726,1.637316,-0.1324726,-0.08647452,1.65831,0.297888,-0.08609948,1.628586,NA,NA,NotTracked,Unknown,
0.9555664,-0.2783203,0.05371094,1.025391,0.480957,0.3530273,0,0,1,-1,-2,-2,1,-2,11,4,-4,9,1,1,0,-10,-1.5625,-1.5625,-1.5625,-12.3125,-12.3125,-12.3125,2.768324,2.946573,4.400256,6.50107,3.172907,5.467996,-0.1150781,-0.4032021,1.588137,0.2370135,-0.3973795,1.493187,0.1124707,0.4920881,1.689472,-0.06872383,-0.39412,1.569849,0.1993292,-0.3901617,1.513558,0.08596168,0.02263428,1.690591,0.07474161,-0.3033645,1.671798,-0.08042551,0.1974403,1.676217,-0.009268417,-0.2961092,1.637422,-0.1322106,-0.08677008,1.658695,0.2987866,-0.08428854,1.630657,NA,NA,NotTracked,Lasso,
0.9555664,-0.2783203,0.05371094,1.01123,0.5585938,0.5908203,0,0,1,-1,-2,-2,1,-2,6,1,-6,-6,0,-1,-3,-8,-1.5625,-1.5625,-1.5625,-4.1875,-4.1875,-4.1875,2.768324,2.946573,4.400256,6.323694,3.511702,5.617226,-0.1151026,-0.4029038,1.590203,0.2274445,-0.354736,1.431874,0.112539,0.491983,1.690286,-0.06900512,-0.3970456,1.570354,0.1975869,-0.3762302,1.438722,0.08583213,0.02269548,1.690943,0.07388997,-0.3028842,1.672419,-0.08036096,0.1975131,1.676431,-0.01022718,-0.2954316,1.637997,-0.1321809,-0.08685066,1.658939,0.300554,-0.07736713,1.634089,NA,NA,NotTracked,Unknown,
0.9555664,-0.2783203,0.05371094,0.7763672,0.7685547,0.7050781,0,0,1,-1,-2,-2,1,-2,-13,-6,14,1,-1,-3,-3,-8,-1.5625,-1.5625,-1.5625,36.125,36.125,36.125,2.768324,2.946573,4.400256,6.349555,3.988811,5.676966,-0.1147627,-0.4009071,1.591575,0.2136451,-0.2665018,1.370076,0.112613,0.4918679,1.690582,-0.06918274,-0.3891571,1.57399,0.1702616,-0.2576917,1.3702,0.08518819,0.02286553,1.691458,0.07010426,-0.3017754,1.673193,-0.08019049,0.1975342,1.676491,-0.01425927,-0.2935187,1.638503,-0.1322397,-0.08609743,1.659317,0.3022197,-0.06140611,1.634202,NA,NA,NotTracked,Unknown,
0.9555664,-0.2783203,0.05371094,0.4746094,0.8696289,0.675293,0,0,1,-1,-2,-2,1,-2,-9,1,8,14,1,-3,1,16,-1.5625,-1.5625,-1.5625,39.4375,39.4375,39.4375,2.768324,2.946573,4.400256,6.402639,4.438494,5.708391,-0.1137087,-0.4012858,1.588943,0.2005873,-0.1472333,1.317343,0.1127763,0.491724,1.690824,-0.067605,-0.3823767,1.573622,0.1655556,-0.1183183,1.33,0.08469807,0.02299328,1.6923,0.06909644,-0.3014141,1.673585,-0.07986934,0.1976436,1.676773,-0.01494654,-0.2932289,1.638693,-0.1320902,-0.08576194,1.659268,0.3078504,-0.04780115,1.625466,NA,NA,NotTracked,Unknown,
0.9555664,-0.2783203,0.05371094,0.1650391,0.84375,0.6474609,0,0,1,-1,-2,-2,1,-2,-5,4,4,1,1,1,0,12,-1.5625,-1.5625,-1.5625,54.75,54.75,54.75,2.768324,2.946573,4.400256,6.472333,4.924229,5.74576,-0.112857,-0.4002428,1.586728,0.1790878,-0.01565371,1.270243,0.1129837,0.4913772,1.691082,-0.06980523,-0.4013322,1.57446,0.1495307,0.0178071,1.277625,0.08487306,0.02299004,1.693804,0.06985192,-0.3012381,1.674557,-0.07922094,0.1975608,1.677265,-0.01407203,-0.2933347,1.639776,-0.1316702,-0.08481607,1.659195,0.3223151,-0.03627481,1.59076,NA,NA,NotTracked,Unknown,
0.9555664,-0.2783203,0.05371094,-0.2211914,0.7578125,0.5527344,0,0,1,-1,-2,-2,1,-2,-2,-17,-10,-7,0,-1,-1,-4,-1.5625,-1.5625,-1.5625,48.25,48.25,48.25,2.768324,2.946573,4.400256,6.616833,5.572272,5.833086,-0.1110991,-0.4003827,1.585108,0.1689093,0.1203012,1.29173,0.1133046,0.490989,1.691311,-0.0655878,-0.3825065,1.571759,0.1422322,0.1453795,1.29775,0.08533581,0.022543,1.695709,0.07168207,-0.3018485,1.675789,-0.07937025,0.1960395,1.681193,-0.01191591,-0.294732,1.641681,-0.1312026,-0.0831515,1.660092,0.3122874,-0.02406669,1.555717,NA,NA,NotTracked,Open,
0.9555664,-0.2783203,0.05371094,-0.4516602,0.6777344,0.4125977,0,0,1,-1,-2,-2,1,-2,6,-10,-2,-2,-1,-1,-3,-5,-1.5625,-1.5625,-1.5625,54.875,54.875,54.875,2.768324,2.946573,4.400256,6.753781,6.017085,5.943606,-0.1110168,-0.4026708,1.584505,0.1689394,0.2341901,1.334474,0.1124661,0.4904084,1.691685,-0.06734899,-0.3917978,1.572778,0.1449108,0.2567516,1.354875,0.08526237,0.02173281,1.696653,0.07248726,-0.3036408,1.676492,-0.07946406,0.195527,1.684631,-0.0111781,-0.2977808,1.646509,-0.1305911,-0.08035116,1.661563,0.3078822,-0.001793044,1.516308,NA,NA,NotTracked,Unknown,
0.9555664,-0.2783203,0.05371094,-0.6499023,0.4892578,0.2045898,0,0,1,-1,-2,-2,1,-2,5,-3,2,3,3,1,2,12,-1.5625,-1.5625,-1.5625,52.8125,52.8125,52.8125,2.768324,2.946573,4.400256,7.044866,6.49474,6.196722,-0.1117507,-0.4022319,1.58488,0.165285,0.3223855,1.373523,0.110376,0.4901533,1.691975,-0.0651322,-0.4030202,1.572541,0.144118,0.3478401,1.407417,0.08576895,0.02147057,1.697016,0.07255331,-0.3037389,1.676519,-0.07618134,0.1958617,1.68581,-0.01138356,-0.2977075,1.647288,-0.1305872,-0.07559916,1.663326,0.2990918,0.03418495,1.469639,NA,NA,NotTracked,Open,
0.9555664,-0.2783203,0.05371094,-0.6987305,0.4604492,0.1616211,0,0,1,-1,-2,-2,1,-2,0,-1,1,-1,-2,-1,-2,2,-1.5625,-1.5625,-1.5625,43.5,43.5,43.5,2.768324,2.946573,4.400256,7.241468,6.663563,6.36725,-0.1120743,-0.4025459,1.586785,0.161658,0.384349,1.402192,0.1059221,0.4842503,1.692151,-0.06568328,-0.3936264,1.574461,0.1460241,0.411687,1.46325,0.08699059,0.02113916,1.696891,0.07285994,-0.3033048,1.676548,-0.07224031,0.1970743,1.687918,-0.01128104,-0.2967102,1.6479,-0.1302733,-0.07207394,1.665346,0.3007769,0.05952288,1.449326,NA,NA,NotTracked,Open,
0.9555664,-0.2783203,0.05371094,-0.6445313,0.3164063,0.1098633,0,0,1,-1,-2,-2,1,-2,-3,-2,2,1,-4,-6,2,0,-1.5625,-1.5625,-1.5625,9.8125,9.8125,9.8125,2.768324,2.946573,4.400256,7.618587,6.852333,6.74497,-0.1131296,-0.403141,1.587235,0.1605251,0.4162224,1.421829,0.1038492,0.4776189,1.691296,-0.06616233,-0.4021819,1.573856,0.1464582,0.4296813,1.485,0.08789399,0.02120721,1.69669,0.07349163,-0.3020143,1.676214,-0.07032009,0.1979437,1.6895,-0.01111526,-0.2950777,1.648223,-0.1300033,-0.0699848,1.66651,0.2921705,0.1194817,1.418938,NA,NA,NotTracked,Unknown,
0.9555664,-0.2783203,0.05371094,-0.7612305,0.3139648,0.01318359,0,0,1,-1,-2,-2,1,-2,-16,-2,0,0,-1,-3,0,8,-1.5625,-1.5625,-1.5625,1.875,1.875,1.875,2.768324,2.946573,4.400256,7.795394,6.900819,6.932205,-0.1135018,-0.4029719,1.586314,0.1571823,0.4400192,1.439804,0.1038778,0.4766927,1.690097,-0.06589582,-0.393892,1.572921,0.1430494,0.4558551,1.512032,0.0883776,0.02240801,1.697745,0.07387355,-0.2991301,1.67582,-0.06905912,0.1990117,1.691415,-0.01132434,-0.2916852,1.648917,-0.1298934,-0.06911749,1.667004,0.2898027,0.1322908,1.420405,NA,NA,NotTracked,Open,
0.9555664,-0.2783203,0.05371094,-0.7373047,0.3496094,-0.01806641,0,0,1,-1,-2,-2,1,-2,0,-4,-7,-5,-1,-4,-4,16,-1.5625,-1.5625,-1.5625,-11.125,-11.125,-11.125,2.768324,2.946573,4.400256,8.196167,6.958861,7.336627,-0.1148692,-0.4027703,1.58517,0.1566725,0.4465906,1.4533,0.1042686,0.4760035,1.688863,-0.06596821,-0.3981947,1.572824,0.1403681,0.4282358,1.507316,0.08871248,0.0236578,1.699065,0.07404763,-0.296831,1.675588,-0.06863783,0.1996756,1.692919,-0.01152038,-0.2895791,1.649511,-0.1298459,-0.0674375,1.667479,0.2871155,0.1448916,1.420517,NA,NA,NotTracked,Open,
0.9555664,-0.2783203,0.05371094,-0.7475586,0.296875,-0.1552734,0,0,1,-1,-2,-2,1,-2,17,3,-3,-4,-3,1,0,3,-1.5625,-1.5625,-1.5625,-1.625,-1.625,-1.625,2.768324,2.946573,4.400256,8.397874,6.988718,7.551517,-0.1148765,-0.4023033,1.583025,0.1563503,0.4538588,1.466805,0.104309,0.4757499,1.688882,-0.06610978,-0.3901979,1.573028,0.1313938,0.4318329,1.536364,0.08903802,0.02470648,1.699735,0.07412261,-0.2949562,1.675295,-0.06826123,0.2001277,1.693843,-0.01169677,-0.2880459,1.649952,-0.1298011,-0.06582034,1.667951,0.2804878,0.1610319,1.418242,NA,NA,NotTracked,Open,
0.9555664,-0.2783203,0.05371094,-1.224609,0.190918,-0.2944336,0,0,1,-1,-2,-2,1,-2,-3,-5,-2,0,-1,-8,0,-4,-1.5625,-1.5625,-1.5625,14.3125,14.3125,14.3125,2.768324,2.946573,4.400256,8.616874,7.005539,7.785318,-0.1152887,-0.4027248,1.58288,0.157921,0.4539959,1.476009,0.1043549,0.4754459,1.689207,-0.06564433,-0.3721436,1.572634,0.1324507,0.4311709,1.534855,0.08908647,0.02541153,1.700405,0.07417586,-0.2940247,1.675176,-0.06819916,0.2005941,1.694729,-0.01176147,-0.2872804,1.650106,-0.1301122,-0.06482214,1.668145,0.2799459,0.1629099,1.419448,NA,NA,NotTracked,Open,
0.9555664,-0.2783203,0.05371094,-0.9589844,0.2583008,-0.2084961,0,0,1,-1,-2,-2,1,-2,24,4,-3,-2,2,-2,1,0,-1.5625,-1.5625,-1.5625,5.8125,5.8125,5.8125,2.768324,2.946573,4.400256,8.611313,7.007937,7.766613,-0.1158339,-0.4021534,1.582414,0.1593504,0.4564734,1.467734,0.1041475,0.4749427,1.69081,-0.07002063,-0.3984143,1.576186,0.1350489,0.4370937,1.529785,0.08902688,0.02599846,1.701093,0.07406183,-0.2932597,1.675225,-0.06818207,0.2009173,1.695514,-0.01198007,-0.2864522,1.650468,-0.1302031,-0.06424186,1.66842,0.2790109,0.1663844,1.42012,NA,NA,NotTracked,Open,
0.9555664,-0.2783203,0.05371094,-0.9326172,0.190918,-0.1542969,0,0,1,-1,-2,-2,1,-2,7,-3,-1,1,1,-11,-1,-1,-1.5625,-1.5625,-1.5625,-8.5,-8.5,-8.5,2.768324,2.946573,4.400256,8.414273,7.003086,7.569654,-0.1153928,-0.4032224,1.581676,0.1608846,0.4550833,1.45673,0.1039619,0.4746395,1.692876,-0.0676267,-0.390085,1.573892,0.1355118,0.4426789,1.5335,0.08902508,0.02667352,1.70195,0.07407979,-0.2925409,1.675342,-0.06807811,0.2011625,1.696316,-0.01200777,-0.285808,1.650689,-0.1303465,-0.06354941,1.668584,0.2764768,0.1713631,1.420894,NA,NA,NotTracked,Open,
0.9555664,-0.2783203,0.05371094,-0.9633789,0.3198242,-0.05566406,0,0,1,-1,-2,-2,1,-2,-24,-7,-1,-2,-4,-6,-7,-12,-1.5625,-1.5625,-1.5625,4.5625,4.5625,4.5625,2.768324,2.946573,4.400256,8.273213,6.993462,7.419933,-0.1170265,-0.4044912,1.582864,0.1620437,0.4587085,1.452216,0.1037584,0.4744897,1.695503,-0.06908745,-0.3932294,1.574492,0.1360012,0.4482954,1.531491,0.08912536,0.02739581,1.702911,0.07405914,-0.2919196,1.67558,-0.0680361,0.2016357,1.697356,-0.01202794,-0.285163,1.651073,-0.1304138,-0.06271794,1.668923,0.2758243,0.1730307,1.422228,NA,NA,NotTracked,Open,
0.9555664,-0.2783203,0.05371094,-1.038574,0.3364258,-0.0703125,0,0,1,-1,-2,-2,1,-2,-13,-8,-2,0,-1,1,-5,-4,-1.5625,-1.5625,-1.5625,-3,-3,-3,2.768324,2.946573,4.400256,8.23334,7.006322,7.387275,-0.1176253,-0.4038306,1.583376,0.1632234,0.4599048,1.460095,0.1035518,0.4747301,1.696417,-0.07031776,-0.4014599,1.57626,0.1372704,0.4481111,1.529286,0.08909079,0.02775797,1.703553,0.07402866,-0.291497,1.675679,-0.06804603,0.2018437,1.697673,-0.01208136,-0.2847052,1.651211,-0.130474,-0.0624176,1.669021,0.277118,0.1709931,1.42379,NA,NA,NotTracked,Open,
0.9555664,-0.2783203,0.05371094,-1.003418,0.2426758,-0.2001953,0,0,1,-1,-2,-2,1,-2,-16,-3,1,3,3,4,-1,3,-1.5625,-1.5625,-1.5625,1.8125,1.8125,1.8125,2.768324,2.946573,4.400256,8.457265,7.024252,7.619089,-0.1181213,-0.404662,1.585154,0.1573294,0.4791948,1.492429,0.1036198,0.4749025,1.696407,-0.06905748,-0.3935477,1.575201,0.1246863,0.4698366,1.560437,0.08909728,0.02812079,1.704251,0.07397275,-0.2910981,1.675974,-0.06823594,0.2021286,1.6982,-0.01215505,-0.2843516,1.651567,-0.1308036,-0.06222742,1.669211,0.2775065,0.1711902,1.42463,NA,NA,NotTracked,Unknown,
0.9555664,-0.2783203,0.05371094,-0.9106445,0.08642578,-0.4614258,0,0,1,-1,-2,-2,1,-2,-27,-2,-3,2,-4,-11,-3,2,-1.5625,-1.5625,-1.5625,2.375,2.375,2.375,2.768324,2.946573,4.400256,8.670791,7.029992,7.829545,-0.1179901,-0.4046413,1.583294,0.1554653,0.4793955,1.496939,0.1036469,0.4749468,1.696505,-0.06935646,-0.3905672,1.574787,0.1205149,0.4683155,1.560895,0.08899296,0.02826174,1.704696,0.07388079,-0.2908622,1.676177,-0.06831456,0.20223,1.698508,-0.01227979,-0.2841362,1.651777,-0.1311613,-0.06215746,1.669395,0.277777,0.1711277,1.425205,NA,NA,NotTracked,Open,
0.9555664,-0.2783203,0.05371094,-0.8354492,0.2524414,-0.07666016,0,0,1,-1,-2,-2,1,-2,-4,-6,-3,-2,-2,-4,-3,-5,-1.5625,-1.5625,-1.5625,9.625,9.625,9.625,2.768324,2.946573,4.400256,8.603018,7.018009,7.74989,-0.1184519,-0.4042913,1.585105,0.1640628,0.4564122,1.473144,0.1035336,0.4752624,1.697374,-0.0688431,-0.3903936,1.574268,0.1308249,0.4533947,1.557583,0.08893988,0.02848059,1.705125,0.07388386,-0.2905948,1.676342,-0.06848983,0.2022909,1.698782,-0.01229347,-0.2839558,1.651928,-0.1315797,-0.06221127,1.66952,0.2790698,0.1702011,1.4261,NA,NA,NotTracked,Open,
0.9555664,-0.2783203,0.05371094,-0.921875,0.2124023,-0.1767578,0,0,1,-1,-2,-2,1,-2,54,3,2,5,3,-5,4,4,-1.5625,-1.5625,-1.5625,6.4375,6.4375,6.4375,2.768324,2.946573,4.400256,8.483545,7.006382,7.630248,-0.1191292,-0.4037822,1.58494,0.1609278,0.4670759,1.475238,0.1034465,0.4755905,1.69775,-0.07131165,-0.4125099,1.57675,0.134199,0.4722134,1.55729,0.08883263,0.02871182,1.705618,0.07373549,-0.2903221,1.676655,-0.06862052,0.202418,1.698955,-0.01244054,-0.2837143,1.652205,-0.1318238,-0.06222164,1.669743,0.2801548,0.1691848,1.426815,NA,NA,NotTracked,Open,
0.9555664,-0.2783203,0.05371094,-0.7128906,0.2314453,-0.2109375,0,0,1,-1,-2,-2,1,-2,13,0,-2,2,-1,1,1,6,-1.5625,-1.5625,-1.5625,18.5625,18.5625,18.5625,2.768324,2.946573,4.400256,8.417475,6.994818,7.530003,-0.1193095,-0.4036286,1.584726,0.1633379,0.4581735,1.459763,0.1033295,0.476017,1.698202,-0.07005465,-0.4001903,1.575594,0.1407853,0.4684233,1.550647,0.08852548,0.02898408,1.706129,0.07363023,-0.289992,1.676974,-0.06871425,0.2024766,1.698957,-0.01253199,-0.2834229,1.652311,-0.1320792,-0.06221426,1.669819,0.2837495,0.1648834,1.428419,NA,NA,NotTracked,Open,
0.9555664,-0.2783203,0.05371094,-0.7470703,0.1933594,-0.1660156,0,0,1,-1,-2,-2,1,-2,-13,0,0,2,1,1,4,-1,-1.5625,-1.5625,-1.5625,-26.0625,-26.0625,-26.0625,2.768324,2.946573,4.400256,8.089546,6.954349,7.194496,-0.1192774,-0.4035431,1.585084,0.1668863,0.4178179,1.428977,0.1027936,0.4772351,1.699188,-0.07039421,-0.3971582,1.575814,0.1464274,0.4061448,1.489357,0.08824588,0.02896284,1.706556,0.07351457,-0.2899807,1.67725,-0.06891077,0.2025259,1.698919,-0.01261309,-0.2834038,1.652337,-0.1328113,-0.06264654,1.670009,0.2878396,0.152633,1.43165,NA,NA,NotTracked,Open,
0.9555664,-0.2783203,0.05371094,-0.6494141,0.1298828,0.04931641,0,0,1,-1,-2,-2,1,-2,-3,0,-1,1,-1,-1,-3,-2,-1.5625,-1.5625,-1.5625,-16.875,-16.875,-16.875,2.768324,2.946573,4.400256,7.635982,6.833664,6.74315,-0.1191965,-0.4031287,1.585508,0.163308,0.3741377,1.384885,0.1017274,0.4780072,1.700171,-0.07128193,-0.4025193,1.576354,0.1334435,0.4044809,1.436235,0.08808111,0.02870957,1.706918,0.07315817,-0.2906725,1.677743,-0.06903034,0.2023907,1.698528,-0.01289612,-0.2838534,1.652337,-0.1332961,-0.0629775,1.669954,0.2989944,0.0960234,1.453622,NA,NA,NotTracked,Open,
0.9555664,-0.2783203,0.05371094,-0.4648438,0.3837891,-0.1088867,0,0,1,-1,-2,-2,1,-2,-1,0,1,0,0,-1,0,-3,-1.5625,-1.5625,-1.5625,-20.8125,-20.8125,-20.8125,2.768324,2.946573,4.400256,7.23973,6.582327,6.34918,-0.1183903,-0.4049874,1.586356,0.1606627,0.2932102,1.326926,0.09840894,0.4820282,1.703788,-0.07131957,-0.403103,1.576756,0.1263445,0.3208693,1.365091,0.08766261,0.02635982,1.705837,0.0726523,-0.2944373,1.678877,-0.07076432,0.1999427,1.697755,-0.01316282,-0.2876296,1.652691,-0.1337583,-0.0638677,1.670049,0.3004667,0.06106534,1.466609,NA,NA,NotTracked,Open,
0.9555664,-0.2783203,0.05371094,-0.3291016,0.6176758,0.1469727,0,0,1,-1,-2,-2,1,-2,-1,4,4,1,-2,-2,-1,-5,-1.5625,-1.5625,-1.5625,-66.9375,-66.9375,-66.9375,2.768324,2.946573,4.400256,6.868099,5.896108,5.965931,-0.1178737,-0.4044872,1.587077,0.1538537,0.1804739,1.261884,0.09800278,0.4845763,1.706453,-0.07127023,-0.4032384,1.576792,0.1281104,0.1973272,1.270571,0.08371034,0.02326444,1.70666,0.07125509,-0.3003891,1.680384,-0.0763045,0.1973319,1.698293,-0.01418891,-0.2946891,1.65597,-0.1347274,-0.06735837,1.67055,0.3002266,0.02360978,1.492227,NA,NA,Unknown,Unknown,
0.9555664,-0.2783203,0.05371094,-0.08691406,0.815918,0.6289063,0,0,1,-1,-2,-2,1,-2,-6,-3,-2,-2,-2,-1,0,0,-1.5625,-1.5625,-1.5625,-49.75,-49.75,-49.75,2.768324,2.946573,4.400256,6.759646,5.385205,5.863145,-0.1178218,-0.4024853,1.590216,0.1604373,0.01908813,1.224495,0.1000529,0.4853892,1.70821,-0.07071494,-0.3890029,1.578611,0.1339649,0.04744386,1.224714,0.08206547,0.02332356,1.708938,0.07059721,-0.300583,1.681868,-0.07842408,0.1960376,1.698392,-0.01413985,-0.2951462,1.655825,-0.1355531,-0.0725012,1.671716,0.3178216,0.004562085,1.550194,NA,NA,Unknown,Unknown,
0.9555664,-0.2783203,0.05371094,0.4702148,0.8334961,0.6523438,0,0,1,-1,-2,-2,1,-2,-3,-3,-4,-2,0,-1,-1,0,-1.5625,-1.5625,-1.5625,-32.0625,-32.0625,-32.0625,2.768324,2.946573,4.400256,6.664134,4.862804,5.782684,-0.1185161,-0.4048592,1.591784,0.1728561,-0.1333476,1.256514,0.1003046,0.4860859,1.708506,-0.06878851,-0.3871146,1.57725,0.1758118,-0.1065937,1.227812,0.08113118,0.02373171,1.70929,0.06902962,-0.2999207,1.682301,-0.0817801,0.19567,1.698763,-0.01495443,-0.2944196,1.654863,-0.1359297,-0.07572868,1.672402,0.3363339,-0.01042418,1.547445,NA,NA,Unknown,Unknown,
0.9555664,-0.2783203,0.05371094,0.4321289,0.9511719,0.6030273,0,0,1,-1,-2,-2,1,-2,-7,-2,-1,-1,-3,-1,2,-2,-1.5625,-1.5625,-1.5625,-28.4375,-28.4375,-28.4375,2.768324,2.946573,4.400256,6.587817,4.357443,5.756856,-0.1188949,-0.402604,1.59379,0.1891583,-0.2485077,1.319743,0.1005427,0.4868608,1.708046,-0.070703,-0.3940705,1.578037,0.1599415,-0.2225749,1.315286,0.07878167,0.02423525,1.70871,0.06358676,-0.2990153,1.681871,-0.08302874,0.1961196,1.698781,-0.02014862,-0.2921992,1.65292,-0.1363875,-0.0775726,1.672686,0.3209971,-0.03533113,1.557235,NA,NA,Unknown,Unknown,
0.9555664,-0.2783203,0.05371094,0.7192383,1.041016,0.5703125,0,0,1,-1,-2,-2,1,-2,-8,-5,-4,-1,-2,-1,-2,-4,-1.5625,-1.5625,-1.5625,-15.9375,-15.9375,-15.9375,2.768324,2.946573,4.400256,6.564031,3.949421,5.737313,-0.1214489,-0.4023295,1.598432,0.2063189,-0.3268021,1.39257,0.1008072,0.4878021,1.707323,-0.0726123,-0.396397,1.579716,0.2019216,-0.3658937,1.486333,0.07750845,0.02461842,1.708113,0.06198876,-0.2986705,1.681906,-0.08372149,0.1963713,1.698486,-0.02173758,-0.2915294,1.652406,-0.1367318,-0.07814702,1.67307,0.2948588,-0.05094881,1.592069,NA,NA,NotTracked,Unknown,
0.9555664,-0.2783203,0.05371094,0.9521484,0.6728516,0.3813477,0,0,1,-1,-2,-2,1,-2,-3,-2,-2,-1,0,-1,0,-1,-1.5625,-1.5625,-1.5625,-20.875,-20.875,-20.875,2.768324,2.946573,4.400256,6.543547,3.520321,5.659414,-0.1226089,-0.4012625,1.601315,0.2195284,-0.3712382,1.45202,0.1014868,0.4891818,1.705319,-0.0721547,-0.3961716,1.578846,0.2059429,-0.3948168,1.482,0.07747549,0.02473171,1.707614,0.06201569,-0.298665,1.681922,-0.08430798,0.1964661,1.697651,-0.02168019,-0.2914997,1.652273,-0.1369434,-0.07990161,1.673397,0.2921007,-0.06095042,1.597875,NA,NA,NotTracked,Lasso,
0.9555664,-0.2783203,0.05371094,1.020996,0.6411133,0.3076172,0,0,1,-1,-2,-2,1,-2,-4,-1,-3,-1,-1,-14,-12,0,-1.5625,-1.5625,-1.5625,-40.1875,-40.1875,-40.1875,2.768324,2.946573,4.400256,6.621298,3.352961,5.541492,-0.1237439,-0.4012099,1.602425,0.2316711,-0.3900832,1.494171,0.1027376,0.4898319,1.702457,-0.07412318,-0.3841172,1.579689,0.2012376,-0.3719019,1.514572,0.07773364,0.02458527,1.706698,0.06249563,-0.2989447,1.681938,-0.08473799,0.1967112,1.696432,-0.02110829,-0.291858,1.651935,-0.1371015,-0.08065829,1.673396,0.2903982,-0.06976077,1.604831,NA,NA,NotTracked,Lasso,
