ALX,ALY,ALZ,ARX,ARY,ARZ,EMG0L,EMG1L,EMG2L,EMG3L,EMG4L,EMG5L,EMG6L,EMG7L,EMG0R,EMG1R,EMG2R,EMG3R,EMG4R,EMG5R,EMG6R,EMG7R,GLX,GLY,GLZ,GRX,GRY,GRZ,ORL,OPL,OYL,ORR,OPR,OYR,LHNX,LHNY,LHNZ,RHNX,RHNY,RHNZ,HX,HY,HZ,LTX,LTY,LTZ,RTX,RTY,RTZ,SpineMidX,SpineMidY,SpineMidZ,SpineBaseX,SpineBaseY,SpineBaseZ,ShoulderLeftX,ShoulderLeftY,ShoulderLeftZ,ShoulderRightX,ShoulderRightY,ShoulderRightZ,ElbowLeftX,ElbowLeftY,ElbowLeftZ,ElbowRightX,ElbowRightY,ElbowRightZ,Myo_Pose_left,Myo_Pose_Right,Kinect_pose_left,Kinect_pose_right
0.9555664,-0.2783203,0.05371094,0.9301758,0.265625,0.1689453,0,0,1,-1,-2,-2,1,-2,-6,-3,0,-2,-1,-2,-1,-4,-1.5625,-1.5625,-1.5625,-1.4375,-1.4375,-1.4375,2.768324,2.946573,4.400256,6.630796,3.011344,7.229057,-0.119872,-0.404814,1.600548,0.258696,-0.4125399,1.543638,0.1025551,0.4915826,1.697071,-0.1703679,-0.3624857,1.618111,0.2098975,-0.4073089,1.523722,0.08510502,0.02062227,1.698243,0.07530172,-0.3053348,1.680008,-0.08267643,0.1928699,1.683841,-0.008530124,-0.2982342,1.646403,-0.1319997,-0.09274248,1.667143,0.295531,-0.08831614,1.630584,NA,NA,NotTracked,Unknown,
0.9555664,-0.2783203,0.05371094,0.9272461,0.2675781,0.1674805,0,0,1,-1,-2,-2,1,-2,5,1,-2,-2,-1,0,0,4,-1.5625,-1.5625,-1.5625,3.3125,3.3125,3.3125,2.768324,2.946573,4.400256,6.635533,3.011986,7.229475,-0.1207262,-0.4034168,1.601358,0.2588368,-0.4127973,1.543288,0.1026482,0.4915262,1.697047,-0.1705495,-0.3655035,1.607842,0.2101176,-0.4163029,1.5226,0.08521638,0.02059861,1.698192,0.0753123,-0.30534,1.680041,-0.08261326,0.1928865,1.683676,-0.008528622,-0.2982308,1.64646,-0.1319011,-0.0923035,1.666907,0.2955379,-0.08825713,1.63061,NA,NA,NotTracked,Unknown,
0.9555664,-0.2783203,0.05371094,0.9272461,0.2680664,0.159668,0,0,1,-1,-2,-2,1,-2,-3,-1,-2,-1,0,-1,-3,-13,-1.5625,-1.5625,-1.5625,3.1875,3.1875,3.1875,2.768324,2.946573,4.400256,6.64115,3.013405,7.229002,-0.1200805,-0.403759,1.602067,0.2586588,-0.4125923,1.543575,0.1027981,0.4915196,1.696978,-0.1708019,-0.3726371,1.623,0.2098557,-0.4083595,1.523636,0.08524597,0.02060143,1.698194,0.07531486,-0.3053704,1.680101,-0.08249708,0.1928909,1.683517,-0.008530645,-0.2982566,1.646537,-0.1319481,-0.0930893,1.666818,0.2955151,-0.08824223,1.630682,NA,NA,NotTracked,Unknown,
0.9555664,-0.2783203,0.05371094,0.9287109,0.2666016,0.1533203,0,0,1,-1,-2,-2,1,-2,3,-1,0,-1,-1,1,1,2,-1.5625,-1.5625,-1.5625,2,2,2,2.768324,2.946573,4.400256,6.645698,3.014346,7.228951,-0.1200322,-0.4044664,1.600548,0.2585758,-0.4123261,1.541818,0.1028756,0.4914669,1.696855,-0.1700648,-0.3721137,1.614363,0.2098397,-0.4080046,1.523265,0.08527517,0.02059763,1.698152,0.07531536,-0.3053761,1.680102,-0.0824721,0.1929198,1.683338,-0.008531416,-0.2982581,1.646536,-0.1318586,-0.09219486,1.666635,0.2954985,-0.08820497,1.630681,NA,NA,NotTracked,Unknown,
0.9555664,-0.2783203,0.05371094,0.9301758,0.2651367,0.1557617,0,0,1,-1,-2,-2,1,-2,3,0,-1,-1,-2,0,-1,-1,-1.5625,-1.5625,-1.5625,1.625,1.625,1.625,2.768324,2.946573,4.400256,6.646376,3.014957,7.228435,-0.119629,-0.404563,1.600432,0.2582536,-0.4120958,1.541624,0.1030233,0.4914146,1.696677,-0.1663671,-0.3824863,1.604125,0.2097787,-0.4070777,1.523326,0.08529527,0.0205729,1.698099,0.07530878,-0.3054158,1.6801,-0.08238497,0.192926,1.683127,-0.008541448,-0.2982986,1.646556,-0.1318807,-0.09227417,1.666528,0.2954764,-0.08822694,1.630687,NA,NA,NotTracked,Unknown,
0.9555664,-0.2783203,0.05371094,0.9296875,0.2661133,0.1557617,0,0,1,-1,-2,-2,1,-2,1,2,0,-2,0,-2,-1,1,-1.5625,-1.5625,-1.5625,1.5625,1.5625,1.5625,2.768324,2.946573,4.400256,6.651721,3.015529,7.229384,-0.1197126,-0.40461,1.601994,0.2583925,-0.4119793,1.542273,0.1030455,0.4913468,1.696579,-0.1678784,-0.380545,1.61033,0.2098752,-0.4067959,1.523864,0.08531051,0.02057299,1.698066,0.07530186,-0.3054186,1.680103,-0.08241741,0.1929299,1.68305,-0.00855595,-0.2982997,1.64657,-0.1319063,-0.09151397,1.666682,0.2954952,-0.08840369,1.630718,NA,NA,NotTracked,Unknown,
0.9555664,-0.2783203,0.05371094,0.9262695,0.2666016,0.15625,0,0,1,-1,-2,-2,1,-2,3,4,-2,1,-1,-1,-1,0,-1.5625,-1.5625,-1.5625,1.4375,1.4375,1.4375,2.768324,2.946573,4.400256,6.653809,3.016274,7.229722,-0.1196438,-0.4048146,1.600605,0.2581051,-0.4116747,1.541399,0.1030528,0.4913491,1.696559,-0.1659411,-0.3842851,1.602802,0.2097528,-0.4080559,1.523165,0.08530829,0.02056552,1.698055,0.07528932,-0.3054528,1.680102,-0.08237123,0.19298,1.682894,-0.008572323,-0.2983358,1.646598,-0.1321936,-0.09235034,1.666556,0.2954992,-0.08837074,1.630727,NA,NA,NotTracked,Unknown,
0.9555664,-0.2783203,0.05371094,0.9550781,0.2773438,0.1411133,0,0,1,-1,-2,-2,1,-2,-7,1,2,2,-2,-2,1,-2,-1.5625,-1.5625,-1.5625,-5.8125,-5.8125,-5.8125,2.768324,2.946573,4.400256,6.652322,3.021129,7.227217,-0.1200489,-0.4047622,1.600416,0.2576617,-0.4125164,1.540338,0.1030768,0.491305,1.696517,-0.1639675,-0.4052244,1.588357,0.2096474,-0.408603,1.5229,0.08529741,0.02054856,1.698026,0.07527976,-0.3054657,1.680078,-0.08235338,0.192982,1.682876,-0.008580135,-0.2983434,1.646583,-0.1322674,-0.09205694,1.666532,0.2954965,-0.08832455,1.630711,NA,NA,NotTracked,Unknown,
0.9555664,-0.2783203,0.05371094,1.097168,0.3066406,0.2446289,0,0,1,-1,-2,-2,1,-2,-8,4,-3,-2,-2,0,2,2,-1.5625,-1.5625,-1.5625,-34.5,-34.5,-34.5,2.768324,2.946573,4.400256,6.573925,3.057515,7.261793,-0.1204472,-0.4040318,1.600038,0.2538214,-0.4098344,1.529974,0.1031221,0.4911468,1.696317,-0.1659815,-0.3797289,1.595182,0.2099562,-0.4007893,1.524463,0.08527488,0.02051152,1.697931,0.07524147,-0.3054956,1.679965,-0.08236035,0.1928913,1.682758,-0.008639951,-0.2983555,1.646469,-0.1325559,-0.09094074,1.666796,0.2955583,-0.08803906,1.630884,NA,NA,NotTracked,Unknown,
0.9555664,-0.2783203,0.05371094,1.059082,0.3491211,0.2709961,0,0,1,-1,-2,-2,1,-2,-7,2,1,-10,-1,0,0,3,-1.5625,-1.5625,-1.5625,-15.5,-15.5,-15.5,2.768324,2.946573,4.400256,6.526364,3.08578,7.303703,-0.1209065,-0.4045234,1.599014,0.2457027,-0.3948899,1.494207,0.1031794,0.491136,1.696172,-0.1699793,-0.3707964,1.611361,0.2477441,-0.430224,1.5272,0.08525042,0.02051737,1.697838,0.07496895,-0.3054019,1.679694,-0.08232538,0.1929708,1.682691,-0.00893093,-0.2982769,1.646219,-0.132531,-0.09241401,1.666272,0.2967926,-0.08475769,1.633078,NA,NA,NotTracked,Lasso,
0.9555664,-0.2783203,0.05371094,1.115234,0.5043945,0.5297852,0,0,1,-1,-2,-2,1,-2,-7,-3,-26,-18,-5,-3,-1,-2,-1.5625,-1.5625,-1.5625,-31.4375,-31.4375,-31.4375,2.768324,2.946573,4.400256,6.357726,3.283524,7.440794,-0.12121,-0.4039437,1.599076,0.232064,-0.3349549,1.43049,0.1032776,0.4910472,1.695876,-0.1759565,-0.3609833,1.621364,0.2151432,-0.3776705,1.4625,0.08490039,0.02069521,1.697678,0.07351502,-0.3047176,1.679151,-0.08233262,0.1931081,1.682528,-0.01053062,-0.297431,1.645604,-0.1324155,-0.09354521,1.665806,0.3006584,-0.0727585,1.639794,NA,NA,NotTracked,Unknown,
0.9555664,-0.2783203,0.05371094,0.6972656,0.8276367,0.7412109,0,0,1,-1,-2,-2,1,-2,0,1,3,8,4,1,3,-4,-1.5625,-1.5625,-1.5625,20.5,20.5,20.5,2.768324,2.946573,4.400256,6.299087,4.047068,7.595921,-0.1200577,-0.4048657,1.59759,0.2148509,-0.23793,1.359721,0.1034659,0.4908621,1.6957,-0.1630414,-0.3928531,1.588,0.2006868,-0.2799078,1.342571,0.08377514,0.02101537,1.697565,0.06965752,-0.3036243,1.678476,-0.08226246,0.1931864,1.682337,-0.01426018,-0.2959982,1.644883,-0.1325829,-0.09132911,1.665462,0.3024124,-0.05585698,1.64206,NA,NA,NotTracked,Unknown,
0.9555664,-0.2783203,0.05371094,0.4174805,0.8540039,0.769043,0,0,1,-1,-2,-2,1,-2,-51,-5,-11,-9,0,-2,0,-5,-1.5625,-1.5625,-1.5625,43.0625,43.0625,43.0625,2.768324,2.946573,4.400256,6.349945,4.554387,7.622022,-0.1201363,-0.4042203,1.597494,0.1934458,-0.1048924,1.306084,0.1041252,0.4904965,1.695336,-0.1727085,-0.3593973,1.621667,0.2016243,-0.1321308,1.276875,0.08351201,0.02104397,1.697736,0.0688389,-0.3034082,1.678322,-0.08194533,0.1933438,1.682017,-0.01501018,-0.2957803,1.644482,-0.132581,-0.08998533,1.665275,0.3070932,-0.04550816,1.630033,NA,NA,NotTracked,Unknown,
0.9555664,-0.2783203,0.05371094,0.01513672,0.8525391,0.6708984,0,0,1,-1,-2,-2,1,-2,-5,-13,-12,-2,-1,-3,-3,-7,-1.5625,-1.5625,-1.5625,73.6875,73.6875,73.6875,2.768324,2.946573,4.400256,6.430385,5.104742,7.671242,-0.1186348,-0.4038084,1.591783,0.1731381,0.05275589,1.298065,0.1052037,0.4896018,1.694275,-0.1637023,-0.3851507,1.587278,0.1787551,0.0180641,1.244334,0.08361009,0.02104151,1.698271,0.06931873,-0.3031973,1.678572,-0.0809219,0.193359,1.681674,-0.01445362,-0.2957684,1.644564,-0.1328886,-0.08760242,1.664858,0.3151009,-0.03594175,1.56846,NA,NA,NotTracked,Unknown,
0.9555664,-0.2783203,0.05371094,-0.3930664,0.7402344,0.4702148,0,0,1,-1,-2,-2,1,-2,10,2,4,1,-2,-3,-6,-8,-1.5625,-1.5625,-1.5625,43.375,43.375,43.375,2.768324,2.946573,4.400256,6.589932,5.847304,7.77385,-0.1167337,-0.4056972,1.589912,0.1727933,0.1936686,1.338297,0.1064931,0.4884391,1.693493,-0.1664433,-0.3741687,1.599467,0.182849,0.1627781,1.283813,0.08379671,0.02045996,1.698789,0.07011436,-0.304284,1.678626,-0.08045312,0.1929196,1.683343,-0.01369305,-0.2973156,1.645744,-0.1325852,-0.08544151,1.664357,0.310898,-0.03821862,1.545458,NA,NA,NotTracked,Open,
0.9555664,-0.2783203,0.05371094,-0.5605469,0.5976563,0.4086914,0,0,1,-1,-2,-2,1,-2,-19,2,-2,-2,-5,-8,-10,-3,-1.5625,-1.5625,-1.5625,58.25,58.25,58.25,2.768324,2.946573,4.400256,6.701365,6.174461,7.859674,-0.1167783,-0.4057578,1.588928,0.1796318,0.2938188,1.365992,0.1058009,0.4875645,1.693016,-0.1629935,-0.3867457,1.58287,0.182344,0.3145021,1.278706,0.08499371,0.02065654,1.698094,0.07014956,-0.3043703,1.678538,-0.0766478,0.1939968,1.683695,-0.01401854,-0.2973494,1.646817,-0.1329462,-0.07762846,1.664213,0.3002931,-0.009829518,1.506446,NA,NA,NotTracked,Open,
0.9555664,-0.2783203,0.05371094,-0.5068359,0.6118164,0.4086914,0,0,1,-1,-2,-2,1,-2,44,-2,-5,-2,-4,-3,3,22,-1.5625,-1.5625,-1.5625,58.6875,58.6875,58.6875,2.768324,2.946573,4.400256,6.771008,6.319773,7.912858,-0.1185089,-0.4047132,1.588035,0.1771264,0.3885894,1.395916,0.1055141,0.4850294,1.691547,-0.1686991,-0.3678336,1.59,0.1863712,0.4123009,1.320804,0.08684701,0.0210091,1.697707,0.07031789,-0.3034617,1.67788,-0.07232839,0.1958787,1.684906,-0.01422024,-0.2961833,1.64721,-0.1324962,-0.07406354,1.664153,0.2944413,0.05748173,1.458822,NA,NA,NotTracked,Open,
0.9555664,-0.2783203,0.05371094,-0.5341797,0.2329102,0.1142578,0,0,1,-1,-2,-2,1,-2,-30,-4,-3,-4,-9,-5,2,-10,-1.5625,-1.5625,-1.5625,24.8125,24.8125,24.8125,2.768324,2.946573,4.400256,7.628131,6.93697,8.726292,-0.1196613,-0.4051954,1.587848,0.1771086,0.4111395,1.430831,0.1057087,0.4825448,1.688701,-0.16379,-0.3854921,1.575784,0.1865568,0.4644913,1.357408,0.08757868,0.0216061,1.696664,0.07026836,-0.3006282,1.676368,-0.07196566,0.1965094,1.687802,-0.01471236,-0.2931841,1.647306,-0.1320126,-0.07111827,1.664887,0.2871714,0.1318794,1.424343,NA,NA,NotTracked,Open,
0.9555664,-0.2783203,0.05371094,-0.5512695,0.1577148,-0.01367188,0,0,1,-1,-2,-2,1,-2,-7,-4,-3,-7,-9,-8,0,-6,-1.5625,-1.5625,-1.5625,17.625,17.625,17.625,2.768324,2.946573,4.400256,7.943265,6.996338,9.039285,-0.1219538,-0.4053259,1.588811,0.1727154,0.4401799,1.451481,0.1055208,0.4809265,1.687415,-0.1663714,-0.3851228,1.582459,0.1837417,0.4807958,1.387515,0.08813156,0.02222791,1.696444,0.07036681,-0.2986838,1.675092,-0.07047035,0.1971868,1.688682,-0.01495884,-0.2915107,1.647409,-0.1319936,-0.06959722,1.665513,0.2866403,0.136099,1.424503,NA,NA,NotTracked,Open,
0.9555664,-0.2783203,0.05371094,-0.8764648,0.1826172,-0.1743164,0,0,1,-1,-2,-2,1,-2,-1,-4,8,6,3,2,-1,-10,-1.5625,-1.5625,-1.5625,-29.875,-29.875,-29.875,2.768324,2.946573,4.400256,8.414589,7.026831,9.556124,-0.1223417,-0.4057579,1.589064,0.1665903,0.4435327,1.465263,0.1055292,0.4787176,1.684201,-0.1700811,-0.3755199,1.58168,0.1786171,0.492913,1.40425,0.08833788,0.02256472,1.696437,0.07032342,-0.297693,1.67379,-0.06986362,0.1975766,1.689305,-0.01519482,-0.2908206,1.647332,-0.1319791,-0.06952122,1.665515,0.2834642,0.1435897,1.422946,NA,NA,NotTracked,Open,
0.9555664,-0.2783203,0.05371094,-0.8295898,0.2333984,-0.2104492,0,0,1,-1,-2,-2,1,-2,-13,-12,-10,-6,-1,0,-2,-4,-1.5625,-1.5625,-1.5625,-26.75,-26.75,-26.75,2.768324,2.946573,4.400256,8.478095,7.014699,9.655259,-0.1223985,-0.4085127,1.587336,0.1613683,0.4437767,1.469993,0.1050613,0.4775646,1.682837,-0.1664213,-0.3854136,1.574778,0.1716922,0.4933835,1.408526,0.08858388,0.0225635,1.695487,0.07035942,-0.2973481,1.67305,-0.0696799,0.197688,1.689698,-0.01523408,-0.2906394,1.647209,-0.1320516,-0.06923793,1.665566,0.280784,0.1467351,1.42166,NA,NA,NotTracked,Open,
0.9555664,-0.2783203,0.05371094,-1.028809,0.2397461,-0.222168,0,0,1,-1,-2,-2,1,-2,-24,1,5,6,7,1,4,9,-1.5625,-1.5625,-1.5625,14.6875,14.6875,14.6875,2.768324,2.946573,4.400256,8.411191,7.027688,9.589615,-0.1219215,-0.408638,1.585357,0.1638546,0.4473435,1.456109,0.1047854,0.476997,1.682559,-0.1671831,-0.3875021,1.577878,0.1746489,0.4908949,1.398787,0.08880062,0.0225726,1.694885,0.07056091,-0.2969907,1.672372,-0.06955468,0.1977891,1.689901,-0.01515954,-0.2903053,1.646846,-0.1321163,-0.06853804,1.665487,0.2795272,0.1474493,1.421494,NA,NA,NotTracked,Unknown,
0.9555664,-0.2783203,0.05371094,-0.8564453,0.2836914,-0.01904297,0,0,1,-1,-2,-2,1,-2,5,-14,-4,-4,-3,3,-3,-16,-1.5625,-1.5625,-1.5625,0.25,0.25,0.25,2.768324,2.946573,4.400256,8.100742,7.015935,9.275435,-0.1218244,-0.4071961,1.582806,0.1651285,0.4371016,1.443323,0.1041331,0.4761664,1.6826,-0.1695973,-0.375848,1.578025,0.1361575,0.4492683,1.534445,0.08905873,0.0225416,1.694117,0.07089043,-0.2966921,1.671454,-0.06950077,0.197816,1.689916,-0.01493288,-0.2900358,1.646186,-0.1320245,-0.06791674,1.664987,0.2781895,0.148081,1.421353,NA,NA,NotTracked,Open,
0.9555664,-0.2783203,0.05371094,-1.362793,0.3359375,-0.03076172,0,0,1,-1,-2,-2,1,-2,-22,-3,1,2,2,0,1,2,-1.5625,-1.5625,-1.5625,5.4375,5.4375,5.4375,2.768324,2.946573,4.400256,8.01708,7.008757,9.181534,-0.1209894,-0.4080401,1.581313,0.1674819,0.437607,1.443405,0.1037934,0.47596,1.68256,-0.1711596,-0.3766718,1.591176,0.1406323,0.4477738,1.532314,0.0893096,0.02258144,1.693696,0.07130939,-0.2964601,1.670877,-0.06943186,0.1978864,1.689945,-0.0146148,-0.2897517,1.645713,-0.1321075,-0.06751121,1.664525,0.2780259,0.1481535,1.421427,NA,NA,NotTracked,Open,
0.9555664,-0.2783203,0.05371094,-0.8666992,0.3041992,-0.05615234,0,0,1,-1,-2,-2,1,-2,25,2,4,2,-1,-1,-3,-10,-1.5625,-1.5625,-1.5625,-4.0625,-4.0625,-4.0625,2.768324,2.946573,4.400256,8.097301,7.009355,9.268959,-0.1213296,-0.4076141,1.579992,0.1683589,0.4395162,1.454576,0.1034843,0.4756032,1.682083,-0.1677247,-0.3808622,1.581331,0.1419903,0.4408374,1.538373,0.08955072,0.0225669,1.69318,0.07167747,-0.2963114,1.670245,-0.06929434,0.1980897,1.689689,-0.01428211,-0.2895265,1.644885,-0.1319557,-0.06723546,1.663437,0.2777422,0.1483587,1.421411,NA,NA,NotTracked,Open,
0.9555664,-0.2783203,0.05371094,-0.878418,0.2231445,-0.2226563,0,0,1,-1,-2,-2,1,-2,-6,5,1,-3,-1,2,2,9,-1.5625,-1.5625,-1.5625,4.1875,4.1875,4.1875,2.768324,2.946573,4.400256,8.344743,7.032894,9.515122,-0.1211704,-0.4061115,1.579378,0.1687018,0.4424193,1.463751,0.1035799,0.4755054,1.681441,-0.1651861,-0.3894351,1.565769,0.1370616,0.4408282,1.543504,0.08978515,0.02280672,1.692984,0.0719808,-0.296045,1.669728,-0.06917358,0.1982136,1.689428,-0.01401789,-0.2891736,1.644236,-0.1319454,-0.06683438,1.662626,0.2776766,0.1486986,1.421847,NA,NA,NotTracked,Open,
0.9555664,-0.2783203,0.05371094,-0.9370117,0.1557617,-0.2280273,0,0,1,-1,-2,-2,1,-2,15,2,-3,-1,-3,4,-10,-2,-1.5625,-1.5625,-1.5625,6.875,6.875,6.875,2.768324,2.946573,4.400256,8.390916,7.03921,9.555693,-0.1215908,-0.4068614,1.579727,0.1694976,0.4400849,1.460325,0.1037983,0.4752783,1.680971,-0.1649052,-0.397257,1.568972,0.1334352,0.4446823,1.543,0.09002435,0.02295422,1.69309,0.07230561,-0.2959401,1.66921,-0.06899153,0.1982397,1.688779,-0.01375998,-0.2890459,1.643649,-0.1319934,-0.06628582,1.661786,0.2779614,0.1493114,1.421961,NA,NA,NotTracked,Open,
0.9555664,-0.2783203,0.05371094,-0.9462891,0.2382813,-0.09423828,0,0,1,-1,-2,-2,1,-2,14,-4,-4,-6,-3,-4,-2,9,-1.5625,-1.5625,-1.5625,-9.625,-9.625,-9.625,2.768324,2.946573,4.400256,8.226423,7.027673,9.378948,-0.1221364,-0.4070311,1.57963,0.1714652,0.4400958,1.450421,0.1039144,0.4750912,1.680797,-0.1646019,-0.4020192,1.565273,0.1387768,0.4451942,1.540682,0.09020802,0.02316456,1.693151,0.07240646,-0.2958494,1.66883,-0.07112862,0.1968992,1.689867,-0.01366753,-0.2889107,1.643135,-0.1320343,-0.06611279,1.66105,0.2780629,0.1494576,1.421961,NA,NA,NotTracked,Open,
0.9555664,-0.2783203,0.05371094,-0.9243164,0.237793,-0.07714844,0,0,1,-1,-2,-2,1,-2,5,0,1,-2,-1,3,0,-4,-1.5625,-1.5625,-1.5625,-2.8125,-2.8125,-2.8125,2.768324,2.946573,4.400256,8.113504,7.026548,9.269507,-0.1217391,-0.4098633,1.576775,0.1729396,0.435477,1.437465,0.1039373,0.4750237,1.680867,-0.1659053,-0.3900548,1.568096,0.1478387,0.4531913,1.533818,0.09041225,0.02309475,1.69275,0.0725451,-0.2959681,1.668272,-0.07031489,0.1972108,1.688848,-0.01358505,-0.2888854,1.642481,-0.1320401,-0.06634936,1.660412,0.2781159,0.1483033,1.421863,NA,NA,NotTracked,Open,
0.9555664,-0.2783203,0.05371094,-0.8652344,0.2460938,-0.08984375,0,0,1,-1,-2,-2,1,-2,21,4,-2,-2,-2,-4,1,3,-1.5625,-1.5625,-1.5625,-6.8125,-6.8125,-6.8125,2.768324,2.946573,4.400256,7.916097,7.012081,9.071405,-0.1222726,-0.4086134,1.577311,0.1714666,0.4307646,1.424933,0.1039291,0.4751146,1.680869,-0.1694123,-0.3790621,1.573929,0.1434586,0.4451091,1.523333,0.09052409,0.02312972,1.692446,0.07253166,-0.2958793,1.667735,-0.07055696,0.1968497,1.688787,-0.01357166,-0.2887084,1.64155,-0.1321761,-0.06604505,1.659688,0.2793618,0.1417405,1.423139,NA,NA,NotTracked,Open,
0.9555664,-0.2783203,0.05371094,-0.5375977,0.2578125,-0.06787109,0,0,1,-1,-2,-2,1,-2,-4,-1,1,1,-1,-3,-3,-6,-1.5625,-1.5625,-1.5625,9.3125,9.3125,9.3125,2.768324,2.946573,4.400256,7.647801,6.907868,8.780704,-0.1223695,-0.4094019,1.576637,0.1690445,0.3882475,1.402206,0.1036622,0.4751662,1.68124,-0.1718503,-0.3766084,1.5855,0.1415895,0.4080746,1.458,0.09053229,0.02292326,1.692145,0.07243405,-0.2963004,1.667446,-0.06974245,0.1972753,1.687797,-0.01363569,-0.2889622,1.641037,-0.1322041,-0.06599601,1.659162,0.2937905,0.09748552,1.439054,NA,NA,NotTracked,Open,
0.9555664,-0.2783203,0.05371094,-0.4472656,0.2875977,-0.02197266,0,0,1,-1,-2,-2,1,-2,20,3,0,-1,-1,-1,-3,-3,-1.5625,-1.5625,-1.5625,-32.375,-32.375,-32.375,2.768324,2.946573,4.400256,7.186991,6.628872,8.317341,-0.1232106,-0.4086567,1.577553,0.1615357,0.356738,1.359203,0.1006904,0.4755546,1.68366,-0.1647278,-0.3964254,1.560255,0.1389804,0.3668173,1.400072,0.09042337,0.02241413,1.692339,0.07227502,-0.2984454,1.667083,-0.06956194,0.1969437,1.687268,-0.01369281,-0.2911872,1.640721,-0.1327283,-0.06692123,1.658779,0.2954907,0.07445623,1.451542,NA,NA,NotTracked,Unknown,
0.9555664,-0.2783203,0.05371094,-0.6196289,0.4931641,0.2827148,0,0,1,-1,-2,-2,1,-2,2,1,-1,-1,-1,-1,0,1,-1.5625,-1.5625,-1.5625,-52.5625,-52.5625,-52.5625,2.768324,2.946573,4.400256,6.908518,6.255145,8.049289,-0.1223157,-0.4096468,1.578374,0.160748,0.2449041,1.301528,0.0985226,0.4783777,1.685912,-0.1641736,-0.392742,1.562202,0.1365257,0.267637,1.3193,0.08897234,0.0218321,1.691904,0.07132339,-0.3021853,1.666518,-0.07241745,0.1946433,1.68805,-0.01450269,-0.2953852,1.640829,-0.1333016,-0.06825026,1.658789,0.2965382,0.03291179,1.471957,NA,NA,NotTracked,Unknown,
0.9555664,-0.2783203,0.05371094,-0.2983398,0.6010742,0.4233398,0,0,1,-1,-2,-2,1,-2,-5,-1,-1,1,1,0,-2,-1,-1.5625,-1.5625,-1.5625,-50.125,-50.125,-50.125,2.768324,2.946573,4.400256,6.700185,5.746675,7.86778,-0.1224623,-0.4100805,1.580575,0.1594906,0.1005921,1.240832,0.1001096,0.479024,1.688784,-0.1666945,-0.3843596,1.568429,0.135946,0.1303016,1.247333,0.08532233,0.01899199,1.694313,0.07076073,-0.305245,1.666907,-0.07559419,0.1919285,1.68882,-0.01468262,-0.2994914,1.641829,-0.1337251,-0.07384139,1.659339,0.3050756,-0.001917014,1.514058,NA,NA,NotTracked,Unknown,
0.9555664,-0.2783203,0.05371094,-0.08984375,0.765625,0.4086914,0,0,1,-1,-2,-2,1,-2,-7,-3,-5,-1,0,-1,-3,-10,-1.5625,-1.5625,-1.5625,-35.0625,-35.0625,-35.0625,2.768324,2.946573,4.400256,6.599616,5.172981,7.752272,-0.1222979,-0.4108975,1.58215,0.1727223,-0.07490739,1.229058,0.1003438,0.4800147,1.690591,-0.1657662,-0.393998,1.566749,0.1768578,-0.0521351,1.1952,0.08429476,0.01896296,1.69482,0.07027125,-0.3049474,1.666975,-0.07808469,0.1909975,1.688231,-0.01486175,-0.2991385,1.640294,-0.1341858,-0.07860859,1.659642,0.3281353,-0.01551963,1.538933,NA,NA,NotTracked,Unknown,
0.9555664,-0.2783203,0.05371094,0.4394531,0.9204102,0.5400391,0,0,1,-1,-2,-2,1,-2,0,-1,-2,-1,1,1,-4,5,-1.5625,-1.5625,-1.5625,-30.8125,-30.8125,-30.8125,2.768324,2.946573,4.400256,6.582284,4.432335,7.652713,-0.1226973,-0.4101023,1.583411,0.1941689,-0.2161493,1.281382,0.1001717,0.4808703,1.692262,-0.1683611,-0.4026513,1.570529,0.1688309,-0.1875882,1.278286,0.08229462,0.01885717,1.694846,0.06627291,-0.3048544,1.66645,-0.07928964,0.1908143,1.687941,-0.01800471,-0.2985311,1.637863,-0.1347168,-0.08123072,1.659865,0.3240741,-0.0304181,1.547203,NA,NA,NotTracked,Unknown,
0.9555664,-0.2783203,0.05371094,0.831543,0.9077148,0.6269531,0,0,1,-1,-2,-2,1,-2,-8,-3,-1,-3,-1,-3,0,9,-1.5625,-1.5625,-1.5625,3.1875,3.1875,3.1875,2.768324,2.946573,4.400256,6.612862,3.941905,7.566476,-0.1229058,-0.4100738,1.585704,0.2192422,-0.3161793,1.354343,0.09988668,0.4815567,1.692999,-0.1698408,-0.3856452,1.581429,0.1982042,-0.3067137,1.318206,0.08115501,0.0186324,1.694543,0.06424785,-0.3049611,1.666023,-0.08028402,0.1906905,1.687307,-0.02013153,-0.2979782,1.636685,-0.1347091,-0.08248079,1.659783,0.2987768,-0.05440591,1.570157,NA,NA,NotTracked,Unknown,
0.9555664,-0.2783203,0.05371094,1.051758,0.6176758,0.3491211,0,0,1,-1,-2,-2,1,-2,-3,-3,-1,-2,-3,0,0,-3,-1.5625,-1.5625,-1.5625,-86.875,-86.875,-86.875,2.768324,2.946573,4.400256,6.639993,3.449675,7.378428,-0.1235244,-0.4099537,1.586389,0.2326488,-0.3784334,1.449504,0.09968924,0.4819306,1.693014,-0.1690223,-0.3810044,1.579355,0.2394033,-0.3450888,1.399983,0.08119455,0.01855932,1.694317,0.06508417,-0.3051615,1.666102,-0.08117839,0.1903544,1.686333,-0.01904237,-0.2980946,1.636379,-0.1348179,-0.08326333,1.659677,0.2938163,-0.06318484,1.575061,NA,NA,NotTracked,Unknown,
0.9555664,-0.2783203,0.05371094,1.118652,0.3496094,0.284668,0,0,1,-1,-2,-2,1,-2,-8,-1,0,0,-1,0,-1,-7,-1.5625,-1.5625,-1.5625,-20.6875,-20.6875,-20.6875,2.768324,2.946573,4.400256,6.673845,3.27333,7.279248,-0.1235422,-0.4102045,1.587104,0.2570073,-0.40944,1.479661,0.09981911,0.482272,1.692495,-0.1704756,-0.3789409,1.583444,0.2236587,-0.4066784,1.455,0.08159409,0.01826114,1.693438,0.06652576,-0.3057142,1.666045,-0.08178885,0.1904757,1.684678,-0.01737394,-0.2985923,1.63569,-0.1347636,-0.08782721,1.659127,0.2917194,-0.07595287,1.582069,NA,NA,NotTracked,Unknown,
0.9555664,-0.2783203,0.05371094,1.13916,0.2753906,0.1845703,0,0,1,-1,-2,-2,1,-2,-2,0,2,-1,-5,-4,1,-2,-1.5625,-1.5625,-1.5625,-46,-46,-46,2.768324,2.946573,4.400256,6.835967,3.065446,7.087985,-0.123333,-0.4111478,1.589835,0.2602564,-0.4161786,1.520055,0.09985668,0.4829485,1.691242,-0.1704002,-0.4124377,1.58175,0.2119074,-0.3929262,1.516042,0.08199932,0.01812759,1.692795,0.06798451,-0.306136,1.666565,-0.08217486,0.1906084,1.683272,-0.01585439,-0.2989794,1.635695,-0.1346459,-0.08974758,1.658991,0.2923898,-0.08221903,1.592933,NA,NA,NotTracked,Unknown,
0.9555664,-0.2783203,0.05371094,0.8979492,0.3623047,0.1894531,0,0,1,-1,-2,-2,1,-2,2,-2,-2,-2,-1,2,1,0,-1.5625,-1.5625,-1.5625,-49,-49,-49,2.768324,2.946573,4.400256,6.769673,3.031946,7.077254,-0.1232734,-0.4107376,1.591577,0.2595459,-0.4181391,1.534448,0.1003343,0.4837769,1.689369,-0.1681748,-0.3959147,1.583608,0.2129541,-0.4063325,1.51427,0.08270345,0.01796923,1.691773,0.06929649,-0.3065199,1.666985,-0.08231399,0.1907891,1.681463,-0.01454066,-0.299335,1.63575,-0.1346656,-0.08960953,1.65905,0.2943645,-0.08739165,1.603371,NA,NA,NotTracked,Unknown,
0.9555664,-0.2783203,0.05371094,0.9614258,0.3466797,0.2988281,0,0,1,-1,-2,-2,1,-2,4,-1,-1,0,-2,-3,-2,13,-1.5625,-1.5625,-1.5625,-7.125,-7.125,-7.125,2.768324,2.946573,4.400256,6.701939,3.024113,7.144664,-0.122995,-0.4084812,1.593623,0.2600477,-0.4169326,1.538328,0.100795,0.4844531,1.686846,-0.1686231,-0.3861818,1.592368,0.2128671,-0.4103483,1.515018,0.08308372,0.01791709,1.691059,0.07037482,-0.3067892,1.667549,-0.08243695,0.1911956,1.679049,-0.01346586,-0.299623,1.635975,-0.1343845,-0.09148883,1.658516,0.2956977,-0.0884448,1.612717,NA,NA,NotTracked,Unknown,
0.9555664,-0.2783203,0.05371094,0.9179688,0.2866211,0.284668,0,0,1,-1,-2,-2,1,-2,-6,-2,-1,0,-1,-2,0,-4,-1.5625,-1.5625,-1.5625,-47.75,-47.75,-47.75,2.768324,2.946573,4.400256,6.600134,3.055502,7.182563,-0.1225709,-0.4079461,1.594668,0.260594,-0.4156289,1.538218,0.1015177,0.4853064,1.683876,-0.1694312,-0.3833489,1.593573,0.2142353,-0.4104694,1.516386,0.08370495,0.01783,1.690182,0.07147739,-0.3069518,1.66819,-0.08243443,0.1914279,1.677553,-0.01246169,-0.299757,1.636265,-0.134238,-0.09114014,1.658516,0.2965218,-0.08847361,1.618913,NA,NA,NotTracked,Unknown,
0.9555664,-0.2783203,0.05371094,0.9033203,0.2719727,0.2011719,0,0,1,-1,-2,-2,1,-2,2,-1,-1,1,2,0,-2,-5,-1.5625,-1.5625,-1.5625,24.25,24.25,24.25,2.768324,2.946573,4.400256,6.559722,3.078047,7.230604,-0.1217607,-0.4077787,1.593426,0.2617127,-0.4154758,1.535771,0.1020723,0.4855677,1.681518,-0.1709483,-0.3676907,1.598464,0.2142728,-0.4161217,1.51516,0.0841525,0.01795025,1.689415,0.07248107,-0.3069578,1.668734,-0.08245381,0.1915501,1.6761,-0.01147374,-0.2998194,1.636619,-0.1340281,-0.09110004,1.658374,0.2971431,-0.08892201,1.621773,NA,NA,NotTracked,Unknown,
0.9555664,-0.2783203,0.05371094,0.9257813,0.2631836,0.1708984,0,0,1,-1,-2,-2,1,-2,-4,-1,1,-2,1,0,-2,-4,-1.5625,-1.5625,-1.5625,22.3125,22.3125,22.3125,2.768324,2.946573,4.400256,6.586265,3.081973,7.229464,-0.1209083,-0.4089857,1.594115,0.2623312,-0.4156688,1.534455,0.102497,0.4855328,1.679736,-0.1735488,-0.3605481,1.611555,0.2140729,-0.4136916,1.516227,0.0844508,0.01786979,1.68878,0.07336247,-0.3068798,1.669154,-0.08231418,0.1919184,1.674959,-0.01065716,-0.2997843,1.63671,-0.1337207,-0.09199927,1.657961,0.297221,-0.08875539,1.62233,NA,NA,NotTracked,Unknown,
