ALX,ALY,ALZ,ARX,ARY,ARZ,EMG0L,EMG1L,EMG2L,EMG3L,EMG4L,EMG5L,EMG6L,EMG7L,EMG0R,EMG1R,EMG2R,EMG3R,EMG4R,EMG5R,EMG6R,EMG7R,GLX,GLY,GLZ,GRX,GRY,GRZ,ORL,OPL,OYL,ORR,OPR,OYR,LHNX,LHNY,LHNZ,RHNX,RHNY,RHNZ,HX,HY,HZ,LTX,LTY,LTZ,RTX,RTY,RTZ,SpineMidX,SpineMidY,SpineMidZ,SpineBaseX,SpineBaseY,SpineBaseZ,ShoulderLeftX,ShoulderLeftY,ShoulderLeftZ,ShoulderRightX,ShoulderRightY,ShoulderRightZ,ElbowLeftX,ElbowLeftY,ElbowLeftZ,ElbowRightX,ElbowRightY,ElbowRightZ,Myo_Pose_left,Myo_Pose_Right,Kinect_pose_left,Kinect_pose_right
0.9584961,-0.277832,0.01806641,0.9272461,0.2792969,0.1337891,-1,1,-1,0,-2,-2,-11,-3,-1,-2,-2,-2,-2,-2,0,0,0.0625,0.0625,0.0625,-0.875,-0.875,-0.875,2.633059,2.955646,2.29198,6.803051,3.005138,9.641225,-0.1782457,-0.4110523,1.618328,0.2036957,-0.4056014,1.574492,0.04764884,0.4930671,1.697007,-0.1289134,-0.422504,1.593091,0.1569187,-0.3944845,1.542979,0.02490718,0.02076364,1.705597,0.0160883,-0.3072017,1.691391,-0.140353,0.1944956,1.684258,-0.06674615,-0.3006438,1.653383,-0.1941896,-0.09845802,1.671125,0.2480946,-0.08646782,1.660563,NA,NA,NotTracked,NotTracked,
0.9619141,-0.2773438,0.01855469,0.9277344,0.2773438,0.1337891,-1,-1,-3,0,-1,-2,-1,-1,0,0,0,0,-1,0,-3,-2,-1.8125,-1.8125,-1.8125,1.0625,1.0625,1.0625,2.63148,2.956015,2.293267,6.80214,3.005177,9.64276,-0.1787408,-0.4104303,1.617666,0.2038635,-0.4057019,1.573031,0.04777904,0.493098,1.697072,-0.1287619,-0.3989422,1.59051,0.1572606,-0.3951999,1.542501,0.02500537,0.02079771,1.705594,0.01617084,-0.3071948,1.691422,-0.1401159,0.194533,1.684161,-0.06665412,-0.300626,1.653407,-0.1940423,-0.09852628,1.671094,0.2482722,-0.08643875,1.660607,NA,NA,NotTracked,NotTracked,
0.9580078,-0.2768555,0.01318359,0.9321289,0.2729492,0.1381836,0,0,0,-1,0,-3,2,-2,-1,-2,0,0,-2,-8,-4,0,0.4375,0.4375,0.4375,0.3125,0.3125,0.3125,2.630777,2.955863,2.294274,6.801078,3.005343,9.645173,-0.1780684,-0.4095427,1.616209,0.2037533,-0.4058306,1.572121,0.04789891,0.493129,1.697012,-0.1288516,-0.3960146,1.590014,0.1574933,-0.3939037,1.54254,0.02519062,0.02080971,1.705435,0.01629412,-0.3072153,1.691329,-0.1398827,0.1944412,1.68401,-0.06653544,-0.3006479,1.65331,-0.1939193,-0.09845579,1.670983,0.2482941,-0.08646093,1.660528,NA,NA,NotTracked,NotTracked,
0.9536133,-0.2749023,0.01806641,0.9301758,0.2724609,0.1357422,-2,-1,-1,0,-3,-3,-11,-4,-1,0,-1,0,-3,1,-6,-1,1.1875,1.1875,1.1875,-0.4375,-0.4375,-0.4375,2.629453,2.95561,2.296025,6.800018,3.005599,9.645967,-0.1783285,-0.4106236,1.617549,0.2039106,-0.4060889,1.573454,0.04804612,0.4931733,1.696985,-0.1285597,-0.3894943,1.591292,0.1570709,-0.3944789,1.542567,0.02535252,0.02079236,1.705332,0.01645052,-0.3072793,1.691262,-0.1397464,0.1944549,1.683995,-0.06640185,-0.3007103,1.653272,-0.1938369,-0.09847444,1.670928,0.2483545,-0.086474,1.660477,NA,NA,NotTracked,NotTracked,
0.9619141,-0.2763672,0.009765625,0.921875,0.2753906,0.1362305,0,-2,1,-1,-2,0,-4,-1,-2,-2,-1,-6,-12,-2,0,-3,0.75,0.75,0.75,-0.3125,-0.3125,-0.3125,2.629459,2.956084,2.296985,6.799329,3.005809,9.646629,-0.1782554,-0.4102593,1.616154,0.2036947,-0.4084414,1.57123,0.04828435,0.4931785,1.696828,-0.1288718,-0.3966907,1.59151,0.1573122,-0.3942381,1.542179,0.02551134,0.02084255,1.70519,0.01652308,-0.307243,1.691194,-0.1396025,0.1945178,1.683941,-0.06634712,-0.300681,1.653231,-0.1937283,-0.09831122,1.670819,0.2485111,-0.08659878,1.660267,NA,NA,NotTracked,NotTracked,
0.9614258,-0.2768555,0.02587891,0.9326172,0.2724609,0.1303711,0,-1,0,0,-1,0,-4,-2,1,0,1,2,2,0,1,2,-0.8125,-0.8125,-0.8125,-0.625,-0.625,-0.625,2.628748,2.955457,2.297032,6.798815,3.00562,9.647194,-0.1785375,-0.409658,1.615781,0.2034512,-0.4079615,1.570794,0.04846341,0.4931536,1.696648,-0.1288593,-0.3964853,1.591497,0.1576236,-0.3926843,1.542454,0.02560579,0.02088351,1.70503,0.0166218,-0.3072574,1.691033,-0.139114,0.1945488,1.683508,-0.0662519,-0.3006635,1.653114,-0.1933768,-0.09864904,1.670419,0.2486241,-0.08671644,1.660011,NA,NA,NotTracked,NotTracked,
0.9672852,-0.2851563,0.01220703,1.026855,0.3798828,0.08154297,0,0,-2,-1,-2,0,0,2,-8,17,12,6,3,4,6,15,1.5625,1.5625,1.5625,-20.4375,-20.4375,-20.4375,2.622663,2.956062,2.30015,6.795301,3.015659,9.637206,-0.178105,-0.4090535,1.614773,0.203131,-0.4066233,1.566521,0.0486207,0.4931287,1.696429,-0.1288362,-0.3967963,1.590966,0.1575543,-0.3940167,1.541974,0.0257883,0.02093167,1.704706,0.01675778,-0.3072223,1.690729,-0.1388544,0.1944889,1.683156,-0.06612915,-0.3006132,1.652859,-0.1931991,-0.09856962,1.670005,0.2487781,-0.08696654,1.659957,NA,NA,NotTracked,NotTracked,
0.9448242,-0.2617188,0.01318359,1.202148,0.3774414,0.1689453,1,-1,-2,-1,-1,0,-4,-2,-9,-6,-4,-10,-7,-4,-7,-19,4.75,4.75,4.75,-70.3125,-70.3125,-70.3125,2.63108,2.957656,2.300206,6.684519,3.066376,9.686932,-0.1777143,-0.4095688,1.61333,0.1936838,-0.3957545,1.542507,0.04878878,0.4931223,1.695954,-0.1287563,-0.3964177,1.590598,0.1507389,-0.3838717,1.53891,0.02596229,0.02100238,1.704159,0.01680201,-0.3071239,1.690345,-0.1385696,0.1946197,1.682646,-0.06612271,-0.3005199,1.652424,-0.1928078,-0.09842738,1.66927,0.2501842,-0.0872425,1.662858,NA,NA,NotTracked,Unknown,
0.9667969,-0.2822266,0.03564453,1.063965,0.3613281,0.5546875,-1,-1,-1,-1,-3,-2,6,0,4,0,20,2,-3,5,2,-2,-10.9375,-10.9375,-10.9375,42.625,42.625,42.625,2.623952,2.949491,2.298344,6.414235,3.337402,9.908998,-0.1777496,-0.4094959,1.613907,0.1910137,-0.3375634,1.484841,0.04903693,0.4929184,1.694906,-0.1285028,-0.3944322,1.589143,0.159474,-0.3552736,1.509706,0.02563112,0.0211542,1.703186,0.01566782,-0.3067073,1.689509,-0.1382734,0.1945758,1.681755,-0.06751473,-0.2997855,1.651332,-0.1926636,-0.09848136,1.668652,0.2537177,-0.08279809,1.670872,NA,NA,NotTracked,Unknown,
0.9731445,-0.293457,-0.009277344,0.909668,0.9624023,0.6289063,-2,-2,-2,-2,-2,-1,5,1,-2,-5,-1,-14,-40,-16,-6,-4,-7.25,-7.25,-7.25,-18.75,-18.75,-18.75,2.588075,2.946172,2.320409,6.429576,3.897931,0.005502068,-0.1781084,-0.4105124,1.615872,0.1762809,-0.2347797,1.42066,0.04972661,0.4926388,1.693043,-0.1284263,-0.3903551,1.588753,0.1530943,-0.3032038,1.482286,0.0246972,0.02136773,1.702336,0.01225769,-0.306132,1.688153,-0.1377883,0.1943876,1.680444,-0.07102341,-0.2987547,1.649847,-0.1925319,-0.09801266,1.668212,0.2560905,-0.0647344,1.680319,NA,NA,NotTracked,Unknown,
0.9389648,-0.2651367,0.02099609,0.3100586,0.7636719,0.7358398,0,-2,1,-1,0,0,2,0,-1,2,0,2,-8,4,3,2,-8.4375,-8.4375,-8.4375,-35.9375,-35.9375,-35.9375,2.578056,2.953185,2.314778,6.315645,4.680601,0.02190478,-0.1787493,-0.4100271,1.615131,0.1552761,-0.07504562,1.382626,0.05047243,0.4922453,1.691672,-0.1285092,-0.3928478,1.589827,0.126277,-0.1012814,1.422667,0.0244906,0.02145782,1.702167,0.01182031,-0.3058022,1.688122,-0.1371277,0.1944598,1.679398,-0.07131042,-0.2985353,1.649712,-0.192261,-0.09745592,1.667381,0.2707169,-0.04610223,1.670063,NA,NA,NotTracked,Unknown,
0.949707,-0.2675781,0.01318359,-0.1855469,0.6557617,0.4790039,-1,-2,1,-2,0,-1,2,-1,1,6,5,4,-2,-1,1,1,-11.9375,-11.9375,-11.9375,11.8125,11.8125,11.8125,2.578713,2.960282,2.296517,6.31874,5.352166,0.02674922,-0.1788648,-0.4100159,1.612809,0.1585052,0.08983697,1.403323,0.05205695,0.4914703,1.688975,-0.1286103,-0.3925795,1.589816,0.1065925,0.09563937,1.492167,0.02449667,0.02141684,1.702174,0.01139466,-0.3056437,1.688369,-0.136425,0.1942737,1.678628,-0.07152493,-0.2985145,1.649969,-0.1922336,-0.09636004,1.666639,0.2989348,-0.0822121,1.658744,NA,NA,NotTracked,Unknown,
0.9746094,-0.2880859,0.003417969,-0.5239258,0.4829102,0.3325195,-1,-1,-2,-3,-2,-3,-4,-2,-11,-5,-6,-4,-7,-3,2,-6,-6.5,-6.5,-6.5,30.125,30.125,30.125,2.583997,2.966921,2.272633,6.383881,5.990187,0.07496671,-0.1801081,-0.4092059,1.611058,0.1524815,0.2592182,1.462409,0.05209453,0.4902091,1.686816,-0.1286483,-0.3984267,1.587916,0.1666082,0.2911919,1.495,0.02431861,0.02027242,1.702329,0.01080676,-0.3080049,1.688453,-0.135602,0.1939994,1.678181,-0.07241146,-0.3010535,1.651157,-0.1920276,-0.09548963,1.665607,0.267083,-0.04170164,1.591758,NA,NA,NotTracked,Unknown,
0.9619141,-0.2856445,0.01464844,-0.668457,0.3881836,0.3076172,0,-2,-2,1,-2,-3,-15,-4,-2,2,-1,1,-5,3,2,-1,0.875,0.875,0.875,41.75,41.75,41.75,2.604481,2.974399,2.248782,6.598033,6.652557,0.2191334,-0.1802211,-0.4076826,1.608331,0.18201,0.2701073,1.501237,0.05208649,0.4897277,1.685777,-0.1288334,-0.3924373,1.586651,0.1909344,0.2983157,1.462645,0.02589306,0.0213499,1.702317,0.01011741,-0.306242,1.687783,-0.1346141,0.1946567,1.6783,-0.07383118,-0.2981698,1.650886,-0.1923577,-0.08750634,1.663865,0.2742245,-0.02398036,1.549725,NA,NA,NotTracked,Closed,
0.9365234,-0.2856445,0.02197266,-0.7075195,0.2680664,0.2509766,0,-2,-1,-1,-2,-5,-9,-3,-6,-1,1,-2,0,1,-2,3,9.3125,9.3125,9.3125,29.4375,29.4375,29.4375,2.63733,2.985788,2.231525,6.77682,6.881015,0.3811323,-0.1796407,-0.4065166,1.605827,0.185203,0.3042552,1.525907,0.05255584,0.4878533,1.684101,-0.1289927,-0.4107633,1.585586,0.1994111,0.3431686,1.496354,0.0283098,0.02335457,1.702064,0.009509932,-0.3035705,1.686435,-0.1330036,0.1955308,1.678859,-0.07519998,-0.2948032,1.649856,-0.1929877,-0.08127189,1.663272,0.2806031,0.002850514,1.519896,NA,NA,NotTracked,Unknown,
0.9516602,-0.2880859,0.02441406,-0.7558594,0.1899414,0.1240234,-1,0,-1,-1,-1,-3,-12,-2,0,4,-2,-2,3,-1,-2,-3,11.25,11.25,11.25,33.0625,33.0625,33.0625,2.653266,2.988601,2.234846,7.158895,7.079241,0.73817,-0.179842,-0.4040213,1.605039,0.1150187,0.415549,1.57432,0.05350161,0.4863478,1.683586,-0.1293185,-0.4195639,1.586667,0.06366671,0.3634577,1.586939,0.02906438,0.02347361,1.70208,0.008872606,-0.3027632,1.68581,-0.1314377,0.1961586,1.680475,-0.07614638,-0.2936897,1.649835,-0.193465,-0.079375,1.663289,0.2896741,0.02705131,1.498056,NA,NA,NotTracked,NotTracked,
0.953125,-0.2895508,0.01855469,-0.8969727,0.1992188,-0.2900391,-2,-1,-2,-2,0,-2,-9,-1,5,3,0,2,-1,-3,0,3,14.6875,14.6875,14.6875,5.6875,5.6875,5.6875,2.662672,2.987594,2.248656,7.552053,7.131283,1.118902,-0.1800595,-0.407183,1.604746,0.1683072,0.3397025,1.539024,0.05379077,0.4850679,1.682974,-0.1287239,-0.3853729,1.5846,0.1372985,0.3192084,1.581658,0.02932699,0.02352938,1.701989,0.008091693,-0.3022659,1.685069,-0.1307531,0.1964523,1.681514,-0.07698401,-0.2930752,1.649727,-0.193671,-0.07862739,1.663315,0.2929858,0.03835514,1.489139,NA,NA,NotTracked,Unknown,
0.9516602,-0.2998047,0.04248047,-0.7807617,0.1801758,-0.03125,0,-1,-5,-1,-2,0,6,0,1,2,6,2,5,1,0,0,8.375,8.375,8.375,-6.9375,-6.9375,-6.9375,2.66268,2.983049,2.266623,7.734188,7.129416,1.316814,-0.1805605,-0.4068392,1.606295,0.1068761,0.4222525,1.570564,0.05385864,0.484668,1.682722,-0.1282027,-0.3847513,1.58398,0.07464646,0.3653076,1.596273,0.02753538,0.02313315,1.701676,0.007156087,-0.301879,1.684098,-0.1303897,0.196644,1.682252,-0.07800408,-0.2925592,1.649162,-0.1940074,-0.07766434,1.663622,0.2928894,0.04080021,1.486761,NA,NA,NotTracked,NotTracked,
0.9604492,-0.2915039,0.02685547,-0.7802734,0.2929688,-0.0004882813,-2,-3,-20,-7,-4,-4,-14,-6,7,7,-1,1,5,-1,-12,9,7.1875,7.1875,7.1875,-4.375,-4.375,-4.375,2.666505,2.978311,2.281474,7.684777,7.10399,1.272489,-0.1810435,-0.407388,1.608382,0.1059194,0.4139798,1.565144,0.05371676,0.4845004,1.682577,-0.12898,-0.3883524,1.584226,0.06053854,0.3657131,1.581077,0.02763031,0.02314348,1.701667,0.006600946,-0.3016505,1.683654,-0.1304616,0.1966833,1.682964,-0.07862967,-0.2922664,1.649065,-0.194249,-0.07754529,1.663773,0.293027,0.04064685,1.487108,NA,NA,NotTracked,Unknown,
0.9492188,-0.284668,0.03857422,-0.8881836,0.2285156,-0.05712891,0,-1,6,1,-2,-1,11,1,-17,-13,-7,2,13,0,-6,-1,0.9375,0.9375,0.9375,-5.75,-5.75,-5.75,2.675929,2.975613,2.281354,7.500769,7.065422,1.101399,-0.1813841,-0.407285,1.608904,0.2308274,0.1532095,1.51195,0.05296413,0.4845369,1.682435,-0.1287142,-0.3940871,1.584444,0.1952034,0.116347,1.569844,0.02763512,0.02321681,1.701642,0.006401152,-0.3015274,1.683414,-0.1307672,0.1965582,1.68378,-0.0788508,-0.292176,1.648921,-0.1945881,-0.07735877,1.663987,0.2897504,0.03117051,1.493933,NA,NA,NotTracked,Lasso,
0.9550781,-0.300293,0.03564453,-0.8295898,0.203125,0.2041016,0,1,-3,0,-1,-1,3,-2,-5,-6,-5,-5,-1,-5,-7,-11,-2.625,-2.625,-2.625,54.875,54.875,54.875,2.669758,2.974101,2.285746,7.001806,6.796672,0.4820051,-0.1811978,-0.4072178,1.608706,0.1517107,0.3033887,1.464326,0.05041273,0.4858289,1.683067,-0.1287042,-0.3932014,1.584575,0.1185118,0.3002195,1.505,0.02746473,0.02361977,1.701449,0.006273381,-0.3012781,1.683137,-0.1314999,0.1966064,1.683538,-0.07898691,-0.2921287,1.648854,-0.1949088,-0.07711397,1.664135,0.2813851,0.006110533,1.518455,NA,NA,NotTracked,Unknown,
0.9619141,-0.2954102,0.02050781,-0.5922852,0.5395508,0.3212891,0,1,4,2,-2,2,0,-1,11,4,-9,-6,5,-4,-1,9,2.875,2.875,2.875,-199.5625,-199.5625,-199.5625,2.668176,2.974936,2.289307,6.670912,6.370722,0.2224164,-0.1815055,-0.4075977,1.608784,0.1634526,0.2366791,1.432479,0.04826726,0.4867528,1.683358,-0.128895,-0.3938909,1.584512,0.1722574,0.2970872,1.467875,0.0250435,0.0228412,1.701045,0.005924096,-0.3025761,1.68295,-0.1337645,0.1962104,1.683192,-0.07925647,-0.2940712,1.649125,-0.1952821,-0.0823651,1.66404,0.2757855,-0.01676466,1.548371,NA,NA,NotTracked,Closed,
0.9511719,-0.2592773,0.01953125,-0.9731445,1.616211,0.277832,-2,0,-3,-1,-2,0,-15,0,9,-2,-7,-4,7,-2,-8,12,-3.5,-3.5,-3.5,-270.125,-270.125,-270.125,2.66261,2.974428,2.295676,6.367004,6.127938,0.2198904,-0.1840109,-0.4116152,1.608211,0.1574069,0.1705236,1.409837,0.04744631,0.4869193,1.683462,-0.1303356,-0.391681,1.584798,0.09254742,0.1810531,1.417182,0.02200495,0.01976223,1.701034,0.004342097,-0.3084922,1.683075,-0.135914,0.194868,1.682323,-0.08036753,-0.300792,1.649487,-0.1955557,-0.08620833,1.664288,0.2728402,-0.04146135,1.579031,NA,NA,NotTracked,Unknown,
0.9697266,-0.3105469,0.0390625,-0.7827148,0.08837891,1.227051,-1,-1,-6,-4,-1,-5,-15,-2,-9,5,4,-1,-10,2,7,11,-6.6875,-6.6875,-6.6875,295.5,295.5,295.5,2.645627,2.972103,2.298423,6.25071,5.822507,0.1678361,-0.1852652,-0.4153533,1.608214,0.1535257,0.1009243,1.401275,0.0473828,0.4869366,1.683419,-0.1302789,-0.3934659,1.584561,0.1179868,0.15361,1.4012,0.0217281,0.01962871,1.701019,0.004873966,-0.3083136,1.683257,-0.1368944,0.1944772,1.68132,-0.07895445,-0.3010132,1.648776,-0.1962676,-0.08918777,1.663864,0.2565975,-0.03244077,1.600878,NA,NA,NotTracked,Unknown,
0.9750977,-0.2856445,0.01318359,0.2016602,1.714844,0.6928711,-2,-2,1,-1,-2,-2,-3,-2,23,0,-13,-7,4,1,-6,2,-4.4375,-4.4375,-4.4375,220.8125,220.8125,220.8125,2.634449,2.968916,2.301644,6.632148,5.5841,0.03826093,-0.1849114,-0.4132492,1.607255,0.1454209,0.05602179,1.394191,0.04747258,0.4869563,1.683205,-0.1305693,-0.3926107,1.584405,0.1805195,0.1085488,1.3646,0.02138314,0.01972068,1.70087,0.005476493,-0.3075983,1.683353,-0.1378826,0.1940139,1.679843,-0.07762758,-0.3004665,1.648008,-0.1965799,-0.09074771,1.662887,0.2947736,-0.0689793,1.643928,NA,NA,NotTracked,Unknown,
0.9633789,-0.2788086,0.009765625,-0.4824219,0.07666016,0.4116211,0,-3,-2,-1,-1,-2,9,-1,35,21,5,-2,13,-1,9,29,-11.875,-11.875,-11.875,-369.5625,-369.5625,-369.5625,2.626465,2.971196,2.295605,6.10583,5.385815,0.1596741,-0.1854285,-0.4151387,1.605935,0.1409975,0.03326783,1.391646,0.04768271,0.486987,1.683024,-0.1326478,-0.3966358,1.581821,0.134502,0.107853,1.382286,0.02089646,0.0197721,1.70066,0.005488993,-0.3072316,1.683369,-0.1385228,0.1940811,1.678625,-0.07731637,-0.3000318,1.647269,-0.1965856,-0.09106642,1.662445,0.2491367,-0.03978239,1.624612,NA,NA,NotTracked,Lasso,
0.9526367,-0.2626953,0.02587891,-0.2397461,1.88623,0.8701172,-2,-2,-1,-2,-2,0,-2,-1,-15,-9,2,-4,-2,-1,0,-1,-4.6875,-4.6875,-4.6875,-132.9375,-132.9375,-132.9375,2.635011,2.973804,2.269277,6.281689,5.258119,0.05828756,-0.1855764,-0.4145139,1.604839,0.1483328,0.01728299,1.398104,0.04801205,0.4870303,1.682899,-0.1327604,-0.3932155,1.582701,0.1730799,0.08141801,1.381118,0.02068468,0.01986975,1.700489,0.005572325,-0.306667,1.683426,-0.1388621,0.1941029,1.677765,-0.07695498,-0.2993793,1.646527,-0.1967709,-0.09142291,1.6616,0.2488642,-0.04003632,1.625278,NA,NA,NotTracked,Unknown,
0.956543,-0.3022461,0.01171875,-0.1723633,0.4453125,0.6738281,-1,-3,-19,-8,-4,-2,-10,-2,0,-1,-9,-5,-3,-1,7,8,-15.1875,-15.1875,-15.1875,51.5625,51.5625,51.5625,2.608297,2.971784,2.273831,6.149934,5.193172,0.04103942,-0.1861628,-0.4138662,1.604552,0.1502584,0.008014156,1.399935,0.04865785,0.487207,1.682559,-0.1326114,-0.4132787,1.583536,0.1626915,0.07524541,1.382737,0.02034828,0.01993446,1.700376,0.005449227,-0.3065219,1.683493,-0.1390963,0.1943698,1.676864,-0.07700462,-0.2992699,1.64636,-0.1971518,-0.08876973,1.660499,0.2489604,-0.04130389,1.630429,NA,NA,NotTracked,Lasso,
0.9599609,-0.2685547,0.01123047,-0.1308594,1.04834,0.8144531,0,0,0,0,1,1,-2,0,0,-11,-1,-1,-2,-2,-2,-1,3.75,3.75,3.75,32.375,32.375,32.375,2.606772,2.971843,2.273133,6.238094,5.167889,0.04763484,-0.1876135,-0.4136144,1.60498,0.1511049,-0.005277672,1.401609,0.04934625,0.4871855,1.682067,-0.1334876,-0.403967,1.583204,0.1620445,0.06390573,1.3925,0.01992418,0.01998661,1.700306,0.005160245,-0.3061384,1.683638,-0.1392615,0.1946682,1.676235,-0.0771901,-0.2988838,1.645923,-0.197786,-0.08824999,1.659821,0.2511237,-0.04099725,1.635343,NA,NA,NotTracked,Unknown,
0.9570313,-0.2998047,0.02783203,-0.09228516,0.7026367,0.7568359,0,0,-1,-3,-2,2,18,4,14,5,0,1,2,7,2,6,-0.75,-0.75,-0.75,39.125,39.125,39.125,2.596552,2.970178,2.280878,6.245176,5.089563,0.04430937,-0.1886686,-0.4141292,1.604699,0.1535661,-0.01757816,1.403066,0.04982649,0.4872069,1.681915,-0.1374189,-0.4229439,1.586179,0.1689918,0.04979478,1.381765,0.01957777,0.02007215,1.700221,0.004846295,-0.3057783,1.683743,-0.1395214,0.1947365,1.675503,-0.07742789,-0.2984282,1.645451,-0.1981881,-0.08903553,1.659148,0.2527439,-0.04124077,1.637915,NA,NA,NotTracked,Lasso,
0.9541016,-0.2675781,0.01855469,-0.03125,0.644043,0.8066406,-1,-1,-3,-3,-2,-1,4,-1,5,0,-4,-3,-2,-4,-3,1,0.6875,0.6875,0.6875,-38.0625,-38.0625,-38.0625,2.593691,2.967947,2.286788,6.207024,5.043102,0.0445798,-0.189401,-0.4131874,1.604988,0.1556979,-0.02910215,1.39909,0.05017015,0.4871943,1.681861,-0.1361837,-0.4081319,1.584323,0.1656327,0.0377309,1.383611,0.01926991,0.02006473,1.700127,0.004581614,-0.3056008,1.683772,-0.1396848,0.1948582,1.674986,-0.07762207,-0.2982776,1.645279,-0.1985783,-0.0892728,1.65891,0.301645,-0.06438607,1.656195,NA,NA,NotTracked,Lasso,
0.9584961,-0.2807617,0.02441406,0.5581055,0.9716797,1.374512,-1,-1,1,0,0,0,-2,0,-7,2,-3,-2,-2,0,0,-4,-1.9375,-1.9375,-1.9375,17.625,17.625,17.625,2.58782,2.964456,2.290863,6.210834,4.947687,0.03767854,-0.189901,-0.4144951,1.606078,0.1579315,-0.04117284,1.397771,0.05063243,0.4872759,1.681741,-0.1364145,-0.4159528,1.585022,0.1683127,0.02509315,1.379467,0.01900022,0.02010513,1.70003,0.004508256,-0.305531,1.683762,-0.1399429,0.1950448,1.674465,-0.07769486,-0.298225,1.645166,-0.1990928,-0.08975745,1.658767,0.2966257,-0.06050551,1.655875,NA,NA,NotTracked,Unknown,
0.9550781,-0.2802734,0.01269531,-0.2114258,0.6743164,0.3388672,-2,-2,-1,-2,-3,-4,-13,-4,-7,-2,-1,-1,-1,-3,-4,-4,-1.5,-1.5,-1.5,24.25,24.25,24.25,2.584991,2.961154,2.29082,6.219109,4.796165,0.02942444,-0.1901747,-0.4136792,1.607063,0.1598392,-0.05797943,1.394795,0.05093967,0.4872539,1.681849,-0.1373964,-0.3941034,1.585944,0.1670753,0.007423189,1.373572,0.01863765,0.02013713,1.700118,0.004108806,-0.3053844,1.684034,-0.1400847,0.1953177,1.674225,-0.07797927,-0.2981086,1.645128,-0.1994487,-0.0900036,1.658739,0.3019581,-0.06202563,1.658854,NA,NA,NotTracked,Unknown,
0.949707,-0.2744141,0.02587891,-0.03857422,0.5932617,0.5522461,-1,0,-2,-1,-2,-1,6,-1,-2,-2,0,-2,-2,-2,-1,0,-1.5625,-1.5625,-1.5625,-17.5625,-17.5625,-17.5625,2.59503,2.957589,2.278351,6.218525,4.707875,0.01978473,-0.190272,-0.4141739,1.608536,0.165073,-0.08728861,1.390618,0.05108878,0.4873287,1.681991,-0.1379883,-0.4001079,1.586631,0.1704891,-0.02343856,1.366091,0.01844058,0.02022601,1.700163,0.004073615,-0.3051763,1.684137,-0.1403051,0.1954837,1.674086,-0.07801578,-0.2979751,1.645047,-0.1996033,-0.09033655,1.659014,0.3054024,-0.05733328,1.670291,NA,NA,NotTracked,Lasso,
0.9589844,-0.2827148,0.009765625,0.08740234,0.5288086,0.784668,0,-2,-2,-1,1,-1,4,1,2,3,0,-1,0,2,-1,-1,-1.5625,-1.5625,-1.5625,43.3125,43.3125,43.3125,2.600364,2.954765,2.268352,6.254548,4.555735,9.991632,-0.1900598,-0.4131172,1.609397,0.1729484,-0.1359779,1.384668,0.05125946,0.4874807,1.682457,-0.1372512,-0.3974605,1.585944,0.1666193,-0.0774217,1.351455,0.01798,0.02037475,1.70037,0.003777916,-0.3049212,1.684382,-0.1408539,0.1955633,1.674065,-0.07829285,-0.2978271,1.644966,-0.1994573,-0.08966129,1.659568,0.303824,-0.0473718,1.681154,NA,NA,NotTracked,Lasso,
0.9663086,-0.2866211,0.01708984,0.4838867,0.6420898,1.095703,-1,-1,-2,-1,0,2,16,1,2,3,0,1,0,-1,0,0,2.3125,2.3125,2.3125,54.5625,54.5625,54.5625,2.613818,2.955794,2.256279,6.346109,4.322481,9.953923,-0.1899635,-0.413045,1.611015,0.1834732,-0.2102721,1.386588,0.05116927,0.4876629,1.683115,-0.1374633,-0.4249471,1.588476,0.1677121,-0.1638208,1.362714,0.01740669,0.02039906,1.700594,0.003185097,-0.3048624,1.684599,-0.1412746,0.1955337,1.67407,-0.07880937,-0.2977472,1.64496,-0.1995488,-0.08982412,1.660429,0.2824793,-0.05446514,1.65395,NA,NA,NotTracked,Unknown,
0.9550781,-0.2714844,0.01464844,1.22998,0.7192383,0.9780273,-2,0,1,0,0,-1,-5,-1,19,-1,-1,-2,-2,-1,-1,1,2.75,2.75,2.75,32.9375,32.9375,32.9375,2.626298,2.959105,2.250016,6.456612,3.982203,9.924932,-0.1893969,-0.414209,1.611526,0.1936096,-0.2716009,1.430427,0.05079582,0.4880342,1.684144,-0.1383816,-0.3995349,1.589851,0.2024152,-0.2571127,1.374673,0.01709222,0.02047133,1.700761,0.003058217,-0.3048306,1.684724,-0.1415409,0.1955324,1.67414,-0.07901516,-0.297686,1.644958,-0.1997149,-0.09071586,1.661092,0.2548069,-0.05193899,1.668388,NA,NA,NotTracked,Unknown,
0.9599609,-0.2666016,0.01416016,1.42627,0.737793,0.5170898,0,-1,-2,-1,-1,0,-2,0,-8,2,-2,-1,-2,-3,0,0,1.6875,1.6875,1.6875,39,39,39,2.628793,2.960379,2.253409,6.544153,3.736618,9.90718,-0.1885674,-0.4135058,1.611301,0.1959627,-0.3229235,1.459467,0.05045105,0.4883085,1.685194,-0.1374446,-0.4114652,1.588975,0.1572448,-0.3158464,1.434367,0.01700373,0.02044177,1.701001,0.003577837,-0.3051279,1.685201,-0.1419289,0.1953846,1.674449,-0.07875402,-0.2978196,1.645141,-0.2000826,-0.09131274,1.661578,0.2525172,-0.05855248,1.665673,NA,NA,NotTracked,Unknown,
0.9663086,-0.2666016,0.01708984,0.7373047,0.3759766,-0.1123047,-1,3,-2,-1,-2,-3,1,-1,19,10,-2,-2,-3,-6,-4,3,6.0625,6.0625,6.0625,27.8125,27.8125,27.8125,2.617175,2.954648,2.275167,6.595704,3.500658,9.90269,-0.1882977,-0.4129158,1.612998,0.1951665,-0.3629519,1.499002,0.05034157,0.488773,1.686198,-0.1373574,-0.3937815,1.590077,0.1587393,-0.3560012,1.515467,0.0170775,0.0204208,1.701178,0.004693407,-0.3055936,1.686009,-0.1419792,0.1953872,1.674555,-0.07792164,-0.2981548,1.645722,-0.2002674,-0.0917415,1.662223,0.2510349,-0.06342109,1.662341,NA,NA,NotTracked,Unknown,
0.9492188,-0.2817383,0.02050781,0.28125,0.3544922,0.402832,-1,-2,-1,-1,-1,-1,-15,-3,2,-9,-2,-2,-5,-12,-8,-6,5.4375,5.4375,5.4375,17.375,17.375,17.375,2.606581,2.947325,2.296446,6.615746,3.343971,9.932889,-0.1868569,-0.412145,1.615083,0.1896662,-0.3919468,1.535547,0.05036022,0.4890058,1.686513,-0.1369943,-0.393098,1.591038,0.1416536,-0.3991462,1.508216,0.01728634,0.0204619,1.701368,0.005918423,-0.3058431,1.686869,-0.1419868,0.1955058,1.674914,-0.07685224,-0.2983618,1.646644,-0.2004456,-0.09205364,1.6631,0.248941,-0.0687945,1.660675,NA,NA,NotTracked,Unknown,
0.9589844,-0.2915039,0.01708984,1.104004,0.3105469,0.2729492,0,-1,-1,-1,0,-1,6,-3,0,1,3,-3,-3,3,5,1,-1.3125,-1.3125,-1.3125,-17.875,-17.875,-17.875,2.586967,2.939108,2.318264,6.655654,3.155503,9.869046,-0.1856659,-0.4102278,1.618233,0.1877226,-0.37979,1.567373,0.05057383,0.4891437,1.686641,-0.1359043,-0.4135282,1.592505,0.1411732,-0.3668948,1.543392,0.01763075,0.02047645,1.701627,0.006772963,-0.3059902,1.687667,-0.1419193,0.1956404,1.67511,-0.07605287,-0.2986024,1.64745,-0.2001828,-0.09265664,1.664076,0.2473091,-0.07225407,1.660337,NA,NA,NotTracked,Unknown,
0.9658203,-0.2753906,0.005371094,1.085938,0.5561523,0.1845703,-2,0,-2,0,-2,-1,1,-1,0,-2,-1,0,5,3,-2,3,-6.875,-6.875,-6.875,-2.375,-2.375,-2.375,2.55579,2.936168,2.340692,6.686241,3.03657,9.823123,-0.1845399,-0.4121071,1.620462,0.1877818,-0.3725377,1.58183,0.05108796,0.4892111,1.686407,-0.1331263,-0.3912886,1.592612,0.1444971,-0.3524427,1.555185,0.01797341,0.02047132,1.701755,0.00725499,-0.3059847,1.688379,-0.1414946,0.1959128,1.675289,-0.07562045,-0.2985956,1.648098,-0.1998195,-0.09320086,1.664896,0.2452091,-0.07643993,1.660437,NA,NA,NotTracked,Unknown,
0.9575195,-0.2719727,0.01660156,0.9707031,0.3833008,0.1962891,-1,-1,-1,-2,-1,0,4,0,-3,-3,-1,-1,-3,0,3,-1,-14.25,-14.25,-14.25,-36.375,-36.375,-36.375,2.545707,2.936103,2.329677,6.667152,3.053497,9.770347,-0.1846133,-0.4116027,1.619692,0.1892744,-0.374068,1.582192,0.05225434,0.4892969,1.685688,-0.1336293,-0.392177,1.592515,0.1448843,-0.3554108,1.552124,0.01871598,0.02057778,1.701953,0.008236926,-0.3057491,1.68945,-0.1409354,0.196365,1.675324,-0.07474696,-0.298393,1.649082,-0.1995142,-0.09368443,1.665624,0.244815,-0.07877669,1.662085,NA,NA,NotTracked,Unknown,
0.9555664,-0.2700195,0.01855469,0.8305664,0.2978516,0.1875,-4,-4,-1,0,-1,-2,-7,-2,2,2,-1,-1,0,-1,-2,1,-17.625,-17.625,-17.625,23.25,23.25,23.25,2.52978,2.934345,2.317891,6.63658,3.07279,9.815813,-0.1841373,-0.4095582,1.620653,0.1915266,-0.3741474,1.583639,0.05381781,0.4892745,1.684434,-0.1333979,-0.4273199,1.595111,0.1470365,-0.3513715,1.5575,0.01957557,0.02063841,1.702229,0.009146537,-0.3057025,1.690363,-0.1400118,0.1966449,1.675163,-0.07393485,-0.2983182,1.64977,-0.199218,-0.09383673,1.665761,0.2449921,-0.07941128,1.663529,NA,NA,NotTracked,Unknown,
0.9658203,-0.269043,-0.008789063,0.8515625,0.2910156,0.2290039,-1,-1,-2,-1,-1,-1,-1,-1,-4,4,-2,-1,-7,-9,2,0,-6.375,-6.375,-6.375,19.8125,19.8125,19.8125,2.513893,2.9359,2.306684,6.662551,3.075428,9.813104,-0.184203,-0.4085987,1.620261,0.1939567,-0.3748937,1.585787,0.05589966,0.4887725,1.68264,-0.1336431,-0.3961249,1.594084,0.1477767,-0.3681691,1.553612,0.02061868,0.02066538,1.702531,0.0104108,-0.3056099,1.691226,-0.1392621,0.1968478,1.674874,-0.07274486,-0.2981564,1.650379,-0.1986511,-0.09411759,1.66572,0.2455273,-0.08035023,1.664596,NA,NA,NotTracked,Unknown,
