ALX,ALY,ALZ,ARX,ARY,ARZ,EMG0L,EMG1L,EMG2L,EMG3L,EMG4L,EMG5L,EMG6L,EMG7L,EMG0R,EMG1R,EMG2R,EMG3R,EMG4R,EMG5R,EMG6R,EMG7R,GLX,GLY,GLZ,GRX,GRY,GRZ,ORL,OPL,OYL,ORR,OPR,OYR,LHNX,LHNY,LHNZ,RHNX,RHNY,RHNZ,HX,HY,HZ,LTX,LTY,LTZ,RTX,RTY,RTZ,SpineMidX,SpineMidY,SpineMidZ,SpineBaseX,SpineBaseY,SpineBaseZ,ShoulderLeftX,ShoulderLeftY,ShoulderLeftZ,ShoulderRightX,ShoulderRightY,ShoulderRightZ,ElbowLeftX,ElbowLeftY,ElbowLeftZ,ElbowRightX,ElbowRightY,ElbowRightZ,Myo_Pose_left,Myo_Pose_Right,Kinect_pose_left,Kinect_pose_right
0.9594727,-0.2817383,0.02539063,0.9296875,0.277832,0.1533203,-3,-1,1,-1,1,-2,4,-2,1,-2,-2,-1,-1,-3,0,1,1.875,1.875,1.875,-0.375,-0.375,-0.375,2.609574,2.948448,2.255941,6.741251,3.019499,9.129488,-0.1797964,-0.4048488,1.615332,0.1997877,-0.4107642,1.571018,0.04486964,0.492836,1.704398,-0.1295493,-0.3814095,1.590776,0.242897,-0.4062149,1.568273,0.02287716,0.02209554,1.708056,0.01471478,-0.3054754,1.692776,-0.1411179,0.1965623,1.681563,-0.06805994,-0.2988673,1.654279,-0.1958612,-0.09798566,1.668029,0.2455938,-0.0858882,1.660003,NA,NA,NotTracked,Unknown,
0.9575195,-0.2758789,0.02246094,0.918457,0.2783203,0.1459961,-1,-1,-1,-2,-1,-1,-6,-1,4,-3,-3,-1,-2,2,1,1,2.625,2.625,2.625,2.1875,2.1875,2.1875,2.611733,2.94942,2.258639,6.742074,3.019155,9.13203,-0.1800638,-0.404676,1.614376,0.1993575,-0.4111663,1.570412,0.04487143,0.493017,1.70416,-0.1290959,-0.3903773,1.591019,0.2395329,-0.4285351,1.557,0.02282672,0.02209345,1.708064,0.01464688,-0.3055679,1.692802,-0.1411136,0.1965661,1.681587,-0.06813329,-0.2989312,1.654269,-0.1959098,-0.09794845,1.668047,0.2455117,-0.08596522,1.659971,NA,NA,NotTracked,Unknown,
0.9550781,-0.2788086,0.03027344,0.9272461,0.2817383,0.1508789,0,-1,-1,-3,-1,1,1,1,-3,-2,1,-2,1,1,-1,0,1.6875,1.6875,1.6875,1.5,1.5,1.5,2.617672,2.949471,2.257154,6.74211,3.018147,9.134837,-0.1796382,-0.4054391,1.614617,0.1993592,-0.4112377,1.569781,0.04494246,0.4930444,1.703745,-0.1289218,-0.3868614,1.590518,0.2374314,-0.4269179,1.553714,0.02282197,0.02209425,1.708045,0.01460961,-0.3056014,1.692793,-0.1411358,0.1965653,1.681636,-0.06816074,-0.2989432,1.654267,-0.1959472,-0.09794553,1.668061,0.2454696,-0.08593351,1.659947,NA,NA,NotTracked,Unknown,
0.9609375,-0.2866211,0.02246094,0.9223633,0.2807617,0.1450195,-1,-1,-1,0,0,-2,-1,-1,-3,-3,1,-1,-2,-1,-1,-4,0.875,0.875,0.875,0.3125,0.3125,0.3125,2.617494,2.949908,2.259242,6.741499,3.018603,9.13498,-0.1799507,-0.4050468,1.614442,0.1992936,-0.4110557,1.569656,0.0449769,0.4931349,1.703474,-0.129527,-0.4235732,1.5918,0.2374882,-0.4446813,1.555714,0.02274688,0.02201937,1.707936,0.01448676,-0.3057491,1.692634,-0.1412673,0.1964025,1.681641,-0.06829485,-0.2990873,1.654088,-0.196051,-0.09785289,1.668036,0.2454152,-0.08608063,1.659861,NA,NA,NotTracked,Unknown,
0.9580078,-0.2832031,0.02246094,0.9262695,0.2719727,0.1455078,0,-2,-2,-2,-2,0,2,-1,0,0,-1,-2,-1,0,-3,-2,1.125,1.125,1.125,0.125,0.125,0.125,2.619083,2.951207,2.258917,6.741499,3.018603,9.13498,-0.1800047,-0.4047352,1.613128,0.19893,-0.4108852,1.568719,0.04493466,0.4931078,1.702983,-0.1285863,-0.3917306,1.588341,0.243807,-0.3991136,1.568778,0.02268416,0.02194841,1.707834,0.01439435,-0.3059281,1.69255,-0.1413708,0.1962294,1.681642,-0.06836268,-0.2992395,1.65401,-0.1961659,-0.09803174,1.668042,0.2454116,-0.08614875,1.659781,NA,NA,NotTracked,Unknown,
0.9545898,-0.2851563,0.02636719,0.9262695,0.2739258,0.1494141,-2,-2,0,-1,-1,-1,-1,-1,0,0,-2,-1,0,-2,0,1,-0.75,-0.75,-0.75,-0.8125,-0.8125,-0.8125,2.620003,2.951788,2.258978,6.740295,3.018596,9.136175,-0.1800579,-0.4044036,1.612095,0.1990438,-0.4114798,1.568723,0.04498727,0.4932289,1.702665,-0.1287041,-0.3896923,1.588587,0.2423522,-0.4081205,1.566418,0.02266259,0.02192679,1.707743,0.01431165,-0.3059816,1.692452,-0.1413421,0.1962444,1.681615,-0.06843234,-0.299276,1.653909,-0.1961705,-0.09804941,1.668006,0.2454614,-0.0862083,1.659675,NA,NA,NotTracked,Unknown,
0.9536133,-0.2807617,0.0234375,0.9228516,0.277832,0.1489258,-2,1,-3,-2,-1,0,0,-1,0,0,0,-1,-1,-2,0,0,-0.9375,-0.9375,-0.9375,-1,-1,-1,2.619997,2.95131,2.258011,6.740372,3.018236,9.136701,-0.1799387,-0.4043795,1.611424,0.1993693,-0.4115024,1.56831,0.04498943,0.4932457,1.702426,-0.1292466,-0.3927424,1.587926,0.2428886,-0.4205205,1.560333,0.02260857,0.02188972,1.707514,0.01419753,-0.3060503,1.692224,-0.1413547,0.1961633,1.681527,-0.06853189,-0.2993459,1.653668,-0.196271,-0.09804143,1.667604,0.2454048,-0.08618334,1.659456,NA,NA,NotTracked,Unknown,
0.9624023,-0.284668,0.03027344,0.9208984,0.2744141,0.1464844,-1,-1,0,0,0,-1,-8,0,-1,0,0,0,-1,0,-1,-3,-1.375,-1.375,-1.375,-1.8125,-1.8125,-1.8125,2.620385,2.952742,2.255651,6.737988,3.018962,9.136372,-0.1796412,-0.4044972,1.610309,0.1992137,-0.4115423,1.567029,0.0450517,0.4932163,1.702042,-0.1300019,-0.4237085,1.588369,0.23424,-0.4517558,1.5575,0.02254586,0.02173458,1.707071,0.01409563,-0.30628,1.691823,-0.1413183,0.1959617,1.681198,-0.06861385,-0.2995692,1.653246,-0.1962492,-0.09830445,1.667041,0.2453554,-0.08633053,1.659067,NA,NA,NotTracked,Unknown,
0.9609375,-0.2817383,0.02197266,0.9375,0.3979492,0.09326172,-2,-2,-3,0,-1,0,-3,-3,5,-6,0,9,-2,2,1,0,0,0,0,-19.25,-19.25,-19.25,2.620194,2.95557,2.254904,6.721925,3.029877,9.139355,-0.1802994,-0.4051443,1.609327,0.1963925,-0.41045,1.56324,0.04504794,0.4932107,1.701773,-0.1286753,-0.3909252,1.585281,0.2337985,-0.4415896,1.550333,0.02260651,0.02175433,1.706713,0.01403046,-0.3062136,1.691379,-0.1412988,0.1957081,1.680907,-0.06867431,-0.299518,1.652728,-0.1962393,-0.0983928,1.666611,0.2454754,-0.08632936,1.658967,NA,NA,NotTracked,Unknown,
0.9545898,-0.2729492,0.01171875,1.132324,0.3100586,0.2197266,-4,-1,0,-2,-1,-3,-4,-1,8,-1,-30,2,2,0,-2,2,3.4375,3.4375,3.4375,-20.5,-20.5,-20.5,2.621742,2.959231,2.256449,6.574028,3.094919,9.262033,-0.18018,-0.4042173,1.608867,0.1879669,-0.4016426,1.547106,0.04510052,0.4931106,1.701563,-0.129021,-0.3929111,1.586621,0.2250439,-0.3980601,1.529659,0.02248918,0.02174729,1.706169,0.01355356,-0.3062216,1.690712,-0.1412989,0.1958085,1.680747,-0.06922629,-0.299513,1.651975,-0.1963514,-0.09812739,1.666146,0.2465551,-0.08627523,1.66167,NA,NA,NotTracked,Unknown,
0.9458008,-0.2788086,0.03759766,1.177246,0.456543,0.3364258,0,-2,1,-1,-2,-1,-1,-2,-2,4,13,10,18,3,1,-1,0.4375,0.4375,0.4375,-46.125,-46.125,-46.125,2.620031,2.95788,2.261248,6.441013,3.209457,9.357565,-0.1806936,-0.406563,1.607919,0.1801991,-0.3518249,1.505268,0.04539893,0.4931901,1.700447,-0.1281496,-0.386324,1.584445,0.1894122,-0.3421819,1.457507,0.02211264,0.02185435,1.705078,0.01221592,-0.3058082,1.689518,-0.14117,0.1958395,1.679991,-0.07079472,-0.2990131,1.650705,-0.1963167,-0.09818893,1.665304,0.2493584,-0.08312248,1.671869,NA,NA,NotTracked,Unknown,
0.9575195,-0.2880859,0.01464844,1.114746,0.7207031,0.6860352,-1,-2,-3,-2,-4,0,0,-2,-4,-2,8,-18,-23,-14,-8,-5,-3.5,-3.5,-3.5,0.875,0.875,0.875,2.587748,2.951596,2.292228,6.273037,3.648404,9.488702,-0.1808812,-0.4061491,1.608184,0.1531345,-0.2476081,1.492152,0.04581735,0.4932728,1.699014,-0.1291272,-0.3849542,1.584149,0.1761778,-0.2099234,1.444353,0.02124398,0.02213168,1.703732,0.009136082,-0.3049498,1.687921,-0.1408774,0.1958255,1.679011,-0.07385784,-0.2978573,1.649089,-0.1962994,-0.09802221,1.664541,0.2516526,-0.06949874,1.68521,NA,NA,NotTracked,Unknown,
0.9506836,-0.28125,0.02246094,0.3027344,0.7944336,0.7924805,-3,-3,-3,-2,-3,-1,-5,-1,4,-1,3,0,16,6,0,2,-10.5625,-10.5625,-10.5625,-69.625,-69.625,-69.625,2.560232,2.946576,2.306912,6.203105,4.517171,9.473881,-0.1816482,-0.4066833,1.609725,0.150555,-0.109496,1.417669,0.04671981,0.4930922,1.697297,-0.1285492,-0.3868977,1.584748,0.1814163,-0.1125769,1.365552,0.02101937,0.02223134,1.703215,0.008250517,-0.3047222,1.687509,-0.1402821,0.1956916,1.677948,-0.07463297,-0.2976493,1.648366,-0.1963016,-0.09768075,1.663846,0.2570849,-0.04383676,1.692585,NA,NA,NotTracked,Unknown,
0.9443359,-0.2788086,0.01171875,0.1816406,0.7041016,0.7998047,-2,0,-2,-1,-2,-1,0,-1,-1,0,-2,0,-2,-1,-1,-4,-15.3125,-15.3125,-15.3125,-42.75,-42.75,-42.75,2.533993,2.948498,2.309107,6.179101,4.715279,9.474265,-0.1825989,-0.4058884,1.608166,0.1552645,0.05634744,1.405846,0.04805239,0.49231,1.694263,-0.1294096,-0.4211113,1.585917,0.1686964,0.03808755,1.37224,0.02100738,0.02234338,1.703019,0.00813205,-0.3042686,1.687383,-0.1392305,0.19549,1.675929,-0.07461386,-0.2973931,1.648114,-0.1959645,-0.09669545,1.662342,0.2589796,-0.04168215,1.655195,NA,NA,NotTracked,Unknown,
0.9765625,-0.2910156,0.03759766,-0.08398438,0.6337891,0.6704102,-1,-2,-1,-1,-2,1,10,1,12,2,0,7,5,1,4,1,-6.5,-6.5,-6.5,-9,-9,-9,2.555501,2.958297,2.2607,6.162333,5.138783,9.469378,-0.1824128,-0.4072727,1.605456,0.174322,0.178972,1.455288,0.04871067,0.4912898,1.691385,-0.1295945,-0.3935388,1.582339,0.1911159,0.1923966,1.41,0.02115087,0.02205704,1.702905,0.008204871,-0.3044421,1.687341,-0.138403,0.1952377,1.675138,-0.07446279,-0.297684,1.648178,-0.1957345,-0.09655648,1.661243,0.2565395,-0.03511948,1.628842,NA,NA,NotTracked,Unknown,
0.9584961,-0.2841797,0.005371094,-0.4667969,0.4575195,0.4716797,-2,-2,-1,-1,-1,0,-9,-3,-1,3,0,-1,2,-1,-4,-3,-7.3125,-7.3125,-7.3125,49.75,49.75,49.75,2.586743,2.96741,2.216282,6.246887,5.962942,9.48219,-0.1822308,-0.4087742,1.601942,0.1892533,0.2563709,1.499405,0.04797123,0.4906781,1.689705,-0.1291856,-0.4068277,1.58293,0.1534641,0.253349,1.467788,0.02182749,0.0228963,1.702588,0.008467563,-0.3024889,1.686413,-0.1382775,0.1952961,1.675088,-0.07452012,-0.2956995,1.647858,-0.1950173,-0.08940265,1.659046,0.263278,-0.01309212,1.577014,NA,NA,NotTracked,Unknown,
0.9467773,-0.284668,0.008789063,-0.6826172,0.2783203,0.3032227,-2,-1,-2,-1,-3,-2,8,2,3,0,3,-4,-11,0,0,-10,3.9375,3.9375,3.9375,32.1875,32.1875,32.1875,2.627554,2.9806,2.172668,6.628972,6.844966,9.733409,-0.1812159,-0.4082198,1.59839,0.1907863,0.2927009,1.52915,0.04776413,0.4900902,1.688475,-0.1284987,-0.3970544,1.580789,0.1423227,0.3091139,1.51017,0.02420743,0.02443781,1.702312,0.008872234,-0.3003314,1.685276,-0.1366975,0.1956759,1.676979,-0.07482979,-0.2932915,1.647084,-0.1947703,-0.08412004,1.657605,0.2719762,0.008734601,1.541831,NA,NA,NotTracked,Unknown,
0.9482422,-0.2890625,0.01611328,-0.7324219,0.2094727,0.1767578,0,-2,-1,1,1,2,0,-2,29,19,9,2,0,1,0,6,7.5625,7.5625,7.5625,23.1875,23.1875,23.1875,2.66391,2.991473,2.145131,6.909837,7.000329,0.003974654,-0.1801208,-0.4081354,1.594823,0.1841158,0.3156464,1.546486,0.04801351,0.4886967,1.687743,-0.1290876,-0.4204026,1.582,0.1896067,0.2675646,1.6244,0.0260743,0.02555788,1.702084,0.008895572,-0.2989014,1.684224,-0.1354477,0.195984,1.678268,-0.07520678,-0.2916647,1.646519,-0.1952243,-0.08138385,1.657146,0.2796138,0.02785584,1.520888,NA,NA,NotTracked,Closed,
0.940918,-0.2978516,0.02197266,-0.7045898,0.1748047,0.1513672,0,0,2,0,2,1,15,0,-11,0,0,1,9,-3,-2,-11,17.1875,17.1875,17.1875,21.1875,21.1875,21.1875,2.692192,2.995974,2.148343,7.08412,7.05021,0.174018,-0.1796573,-0.4080297,1.594343,0.1145037,0.4161775,1.585318,0.04793474,0.4876779,1.687395,-0.1277436,-0.3869326,1.5792,0.07266898,0.3643399,1.608714,0.02785446,0.02599468,1.701326,0.008519036,-0.2982931,1.683017,-0.1343572,0.1959331,1.680164,-0.07573391,-0.291049,1.646168,-0.195703,-0.08078194,1.656736,0.2844757,0.03954398,1.508075,NA,NA,NotTracked,NotTracked,
0.9511719,-0.3022461,0.02392578,-0.7045898,0.1748047,0.1513672,-1,-1,-2,0,0,-1,-5,-1,-1,-1,-2,0,-5,-1,-1,-1,14.625,14.625,14.625,21.1875,21.1875,21.1875,2.686215,2.991387,2.183882,7.08412,7.05021,0.174018,-0.1802892,-0.4084576,1.59724,0.1149416,0.4149616,1.585047,0.04773515,0.4871553,1.687254,-0.1280617,-0.3923548,1.578341,0.07285301,0.3651686,1.61171,0.02780686,0.02595223,1.700979,0.008133948,-0.2979595,1.682159,-0.1336074,0.1961372,1.680999,-0.07623819,-0.2906139,1.645851,-0.196395,-0.07857276,1.657478,0.2861801,0.04618108,1.50028,NA,NA,NotTracked,NotTracked,
0.9477539,-0.2983398,0.02636719,-0.6259766,0.2802734,-0.2685547,-3,-3,-2,-1,-3,-3,-15,-3,-1,-13,-3,-2,1,-2,-3,-2,11.1875,11.1875,11.1875,-8.5,-8.5,-8.5,2.661431,2.98361,2.231057,7.768257,7.078117,0.8916034,-0.1810371,-0.4087613,1.598762,0.1117047,0.4143501,1.582462,0.04733736,0.4865955,1.687041,-0.1284115,-0.3976795,1.578428,0.08019768,0.3688043,1.616964,0.02750158,0.02586467,1.700456,0.007470707,-0.2977277,1.681003,-0.1332764,0.196272,1.680719,-0.07694591,-0.2903346,1.645527,-0.1965144,-0.07837897,1.657563,0.2863268,0.04797894,1.497287,NA,NA,NotTracked,NotTracked,
0.956543,-0.300293,0.04248047,-0.8793945,0.2988281,-0.006347656,-1,-2,-1,-1,1,2,11,2,-13,-6,-2,-2,1,-1,-4,-3,6.625,6.625,6.625,10.4375,10.4375,10.4375,2.632847,2.974967,2.28031,7.765328,7.079147,0.886985,-0.1830705,-0.4075806,1.602842,0.110382,0.4148899,1.581557,0.04686927,0.4858994,1.68702,-0.1290415,-0.3810434,1.579318,0.08120745,0.368129,1.620409,0.02709127,0.02567964,1.700352,0.0070749,-0.2977715,1.680627,-0.1330956,0.1962171,1.681252,-0.07746617,-0.2902471,1.645465,-0.1968515,-0.07804324,1.658031,0.2868404,0.04855717,1.496005,NA,NA,NotTracked,NotTracked,
0.9638672,-0.300293,0.04248047,-0.9399414,0.2080078,-0.03076172,-1,-1,-2,-1,0,0,10,1,-21,-3,1,4,7,-3,25,4,4.0625,4.0625,4.0625,10.6875,10.6875,10.6875,2.622104,2.971067,2.300405,7.637845,7.076357,0.7411308,-0.1851838,-0.4091005,1.603399,0.1032584,0.4164807,1.571466,0.04649372,0.4855856,1.68652,-0.1303868,-0.3955737,1.579611,0.07819352,0.3676336,1.615642,0.02707672,0.02558828,1.700255,0.006660089,-0.2980893,1.680003,-0.1330394,0.1962759,1.68101,-0.0780209,-0.2903836,1.645129,-0.1973739,-0.08027454,1.658095,0.2859552,0.04744099,1.495755,NA,NA,NotTracked,Unknown,
0.9584961,-0.2993164,0.04003906,-0.8525391,0.078125,0.04638672,-1,-2,-2,-2,-3,-4,3,-1,15,6,-1,-1,-9,1,5,19,-0.3125,-0.3125,-0.3125,34.5,34.5,34.5,2.62016,2.970533,2.304668,7.356057,6.999949,0.3637118,-0.1859502,-0.4095576,1.604702,0.2262387,0.1579967,1.512705,0.04532763,0.4863247,1.686489,-0.1317656,-0.3890654,1.580584,0.1919629,0.1205894,1.571207,0.02631644,0.02575822,1.700104,0.006500114,-0.2979751,1.6799,-0.1332038,0.1962258,1.681496,-0.07822642,-0.2902885,1.645067,-0.1974989,-0.07937326,1.658544,0.280728,0.03573431,1.504213,NA,NA,NotTracked,Lasso,
0.9599609,-0.309082,0.03222656,-1.01416,0.2353516,-0.07617188,-1,-3,-6,-2,-3,-1,-2,0,-6,0,0,2,5,3,3,0,-6,-6,-6,4.25,4.25,4.25,2.631992,2.973575,2.285694,7.09575,6.839427,0.04419577,-0.1856444,-0.410053,1.604456,0.1542873,0.3106143,1.462417,0.04437544,0.4869968,1.686907,-0.1311578,-0.3915291,1.580594,0.1293164,0.3001838,1.554111,0.02618338,0.02605758,1.700145,0.00647079,-0.2979436,1.679859,-0.1337666,0.1962156,1.681383,-0.07825425,-0.2902861,1.645069,-0.1977112,-0.08180136,1.659348,0.2713982,0.01803157,1.520335,NA,NA,NotTracked,Closed,
0.9462891,-0.2841797,0.02148438,-0.652832,0.4951172,0.08837891,-2,-1,-1,-1,-2,0,-2,3,-9,-1,-3,1,6,-5,-7,-12,-2.125,-2.125,-2.125,-26.4375,-26.4375,-26.4375,2.654198,2.980122,2.255875,6.979432,6.747512,9.931315,-0.1847994,-0.4111487,1.602948,0.1484418,0.2733966,1.414578,0.04324375,0.4876178,1.687423,-0.1315748,-0.3962244,1.580785,0.1920294,0.2888915,1.371727,0.02484498,0.02588194,1.699875,0.006354457,-0.2982407,1.679792,-0.1350483,0.1959641,1.681271,-0.07844246,-0.291072,1.645872,-0.1974002,-0.08277865,1.659384,0.2640274,0.007548857,1.530743,NA,NA,NotTracked,Unknown,
0.9711914,-0.2944336,0.03955078,-0.6791992,-0.02880859,0.934082,1,-1,-1,-2,1,-1,5,0,2,17,19,9,-4,11,-3,-4,-6.3125,-6.3125,-6.3125,269.1875,269.1875,269.1875,2.668454,2.98386,2.232936,6.452756,6.136447,9.761781,-0.1844915,-0.4124339,1.601174,0.1392388,0.1889672,1.390615,0.04277784,0.487968,1.688534,-0.1317852,-0.3964938,1.581126,0.1079143,0.2268634,1.426823,0.02222641,0.02324728,1.700709,0.005448427,-0.3029618,1.680643,-0.1362124,0.1953291,1.681174,-0.07886264,-0.2965809,1.647992,-0.197216,-0.08673479,1.66007,0.261691,-0.01704755,1.562365,NA,NA,NotTracked,Unknown,
0.9526367,-0.2973633,0.03808594,-0.2075195,1.619629,0.5708008,-1,-2,0,0,-3,-5,1,0,-31,3,-4,-12,-17,-12,-6,-26,2.6875,2.6875,2.6875,109.375,109.375,109.375,2.678102,2.982754,2.222322,6.754128,5.882777,9.645087,-0.1839178,-0.4143426,1.60031,0.1221612,0.1330794,1.368163,0.04317915,0.4882776,1.689112,-0.1323635,-0.393332,1.582156,0.1582446,0.1893637,1.347857,0.02174643,0.02192753,1.701115,0.006184813,-0.304882,1.681088,-0.136262,0.1949756,1.682064,-0.07749154,-0.2987833,1.648092,-0.1970675,-0.08917505,1.659888,0.2549124,-0.01509769,1.568974,NA,NA,NotTracked,Unknown,
0.9472656,-0.300293,0.01416016,-0.5239258,-0.3637695,0.5092773,0,-1,-3,-2,-1,1,7,0,-16,-15,-10,4,12,-8,-19,12,-4.1875,-4.1875,-4.1875,-262.375,-262.375,-262.375,2.667172,2.979608,2.233097,6.269567,5.625607,9.716627,-0.1842289,-0.4130444,1.602218,0.1164525,0.09317798,1.357957,0.04368766,0.4885417,1.689943,-0.1325188,-0.4189098,1.58344,0.1155072,0.1517245,1.366111,0.02145876,0.02170743,1.701301,0.00643757,-0.3048519,1.681417,-0.1367544,0.1946981,1.682021,-0.0768002,-0.2988291,1.6477,-0.1968896,-0.09015489,1.659791,0.254078,-0.02185036,1.586477,NA,NA,NotTracked,Unknown,
0.9570313,-0.2890625,0.03808594,-0.2036133,0.7558594,0.6259766,-1,-1,-1,-2,0,0,19,1,27,0,-4,-15,-7,-7,6,30,10.25,10.25,10.25,215.5625,215.5625,215.5625,2.665771,2.975875,2.244883,6.406626,5.500613,9.640448,-0.1836812,-0.4125569,1.603196,0.1202478,0.05962627,1.369158,0.0438669,0.4887359,1.690413,-0.1324998,-0.4244495,1.584364,0.1429621,0.1328099,1.351333,0.02116766,0.02174365,1.701464,0.006599181,-0.3044189,1.681981,-0.1374425,0.1944556,1.681552,-0.07625141,-0.2984482,1.647452,-0.1968798,-0.09084278,1.659821,0.2533903,-0.02593308,1.590544,NA,NA,NotTracked,Unknown,
0.9536133,-0.315918,0.02783203,-0.2700195,0.6469727,0.543457,-2,-2,-1,-1,-3,-5,-22,-3,19,6,11,7,4,0,-26,6,-3.375,-3.375,-3.375,-146.1875,-146.1875,-146.1875,2.643471,2.969528,2.269996,6.276937,5.386619,9.68833,-0.1844586,-0.4125602,1.606351,0.1160123,0.04323634,1.373572,0.04423216,0.4890067,1.690872,-0.1338097,-0.4286382,1.58725,0.1303261,0.1176054,1.355333,0.02090196,0.02179701,1.701656,0.006663493,-0.3039891,1.682514,-0.1381278,0.1945559,1.68137,-0.07592125,-0.2981191,1.647259,-0.1968935,-0.09135422,1.660212,0.2928642,-0.07204363,1.628142,NA,NA,NotTracked,Lasso,
0.9487305,-0.2807617,0.03076172,-0.4287109,0.4604492,0.5332031,-1,-1,1,-1,-2,-6,-22,-6,-20,-2,-2,2,1,-5,0,-5,1.75,1.75,1.75,-70.75,-70.75,-70.75,2.633523,2.968294,2.283567,6.233329,5.371246,9.676318,-0.1846917,-0.4130245,1.60704,0.1144768,0.02770399,1.375127,0.04446073,0.4891375,1.691165,-0.1331784,-0.4107191,1.58456,0.1239716,0.101818,1.360778,0.02066776,0.02183795,1.701745,0.006594799,-0.3038127,1.682804,-0.138698,0.1944422,1.681059,-0.07581949,-0.297986,1.647144,-0.1967851,-0.09164594,1.660286,0.2945058,-0.07269406,1.631975,NA,NA,NotTracked,Unknown,
0.9570313,-0.300293,0.04443359,-0.2148438,0.597168,0.6733398,-2,-2,-2,-1,0,-2,1,0,-5,4,-3,-2,-2,-2,0,-1,-2.75,-2.75,-2.75,25.3125,25.3125,25.3125,2.617924,2.968898,2.291091,6.288361,5.257002,9.704803,-0.1857533,-0.4136687,1.606952,0.1157394,0.01257657,1.376201,0.04462905,0.4892798,1.691425,-0.1328254,-0.391791,1.58291,0.1276656,0.0845553,1.349643,0.0204093,0.02174995,1.701877,0.006480474,-0.3039046,1.682979,-0.1388825,0.1944734,1.680938,-0.07582477,-0.2980077,1.647105,-0.1967822,-0.09181124,1.660511,0.2995553,-0.07429245,1.635672,NA,NA,NotTracked,Unknown,
0.9521484,-0.284668,0.03759766,-0.1333008,0.8452148,0.7324219,-1,1,0,-2,2,-1,6,-2,-1,-1,-1,0,-5,1,2,-1,-5.1875,-5.1875,-5.1875,11.4375,11.4375,11.4375,2.621475,2.968317,2.280099,6.317405,5.21618,9.712523,-0.185928,-0.4124491,1.607608,0.1198071,-0.007877426,1.374317,0.04475511,0.4895077,1.691614,-0.1331078,-0.3925556,1.584991,0.1279557,0.06366145,1.346539,0.02022466,0.0217415,1.701918,0.006307506,-0.3039,1.68313,-0.1391461,0.1945382,1.680765,-0.07589711,-0.297979,1.647033,-0.1968965,-0.09201121,1.660655,0.2995248,-0.07286019,1.635235,NA,NA,NotTracked,Unknown,
0.953125,-0.2944336,0.02441406,-0.05517578,0.6660156,0.6044922,0,0,0,0,-3,-1,-5,1,1,-2,-1,0,-1,0,0,1,-4.375,-4.375,-4.375,-4.3125,-4.3125,-4.3125,2.621148,2.968078,2.271918,6.298042,5.034034,9.694749,-0.1857456,-0.4132789,1.608174,0.123339,-0.04305457,1.368666,0.04492047,0.4896759,1.691843,-0.1328036,-0.3918008,1.58516,0.1310579,0.02317464,1.340539,0.02019229,0.0217813,1.701962,0.006242315,-0.3038326,1.683279,-0.1393624,0.1946339,1.680623,-0.07590365,-0.2978665,1.646969,-0.1968995,-0.09133147,1.660951,0.3043237,-0.07115569,1.63823,NA,NA,NotTracked,Lasso,
0.9594727,-0.2890625,0.01367188,0.01855469,0.5268555,0.5288086,0,-1,0,-1,0,0,16,0,1,1,-2,-2,-1,0,0,-1,-3.4375,-3.4375,-3.4375,18.375,18.375,18.375,2.622467,2.969431,2.263945,6.303537,4.856126,9.66793,-0.1857026,-0.4133067,1.608909,0.1299027,-0.1006357,1.367581,0.04499313,0.4899664,1.692543,-0.1332422,-0.4165898,1.586371,0.1211456,-0.04206954,1.3462,0.02013167,0.02176901,1.702112,0.006127395,-0.3038574,1.683596,-0.1396265,0.1946967,1.680644,-0.07597998,-0.2978765,1.647029,-0.1968012,-0.08977176,1.661795,0.3117132,-0.0582075,1.653675,NA,NA,NotTracked,Lasso,
0.9516602,-0.2939453,0.01904297,0.2143555,0.6079102,1.037598,-2,0,-1,-1,-1,1,7,1,-18,-3,-4,-4,-4,-2,-4,-7,-1.3125,-1.3125,-1.3125,29.625,29.625,29.625,2.624907,2.971514,2.259423,6.365995,4.614956,9.649301,-0.1854972,-0.4132696,1.608284,0.1405324,-0.1775305,1.376358,0.04483096,0.4903411,1.693625,-0.1338418,-0.4112069,1.586882,0.1466104,-0.1480691,1.338519,0.01989069,0.02174814,1.702226,0.005415913,-0.3040218,1.683727,-0.1399727,0.194704,1.68069,-0.07662005,-0.2979206,1.646797,-0.1970683,-0.08944927,1.662129,0.3069925,-0.04473396,1.656633,NA,NA,NotTracked,Unknown,
0.9570313,-0.28125,0.02539063,-0.1508789,0.434082,-0.04052734,-2,-1,0,0,0,-1,0,1,-5,0,-3,-2,-2,-3,-1,0,-3.9375,-3.9375,-3.9375,46,46,46,2.627668,2.973431,2.25046,6.435286,4.31356,9.618902,-0.185506,-0.4126821,1.607625,0.1556898,-0.2582503,1.411765,0.04423937,0.4907877,1.695093,-0.134049,-0.4175915,1.588348,0.1600005,-0.2333414,1.360367,0.01887633,0.02173811,1.702473,0.00331545,-0.3042381,1.683678,-0.1405114,0.1946797,1.680919,-0.07886788,-0.297682,1.646598,-0.1971447,-0.09078207,1.662517,0.2536174,-0.04773907,1.653554,NA,NA,NotTracked,Unknown,
0.9619141,-0.2949219,0.02539063,-0.04003906,0.4907227,-0.1420898,-1,-1,-2,-1,-1,-2,-4,-2,1,-2,0,0,0,-1,0,-4,-2,-2,-2,64.125,64.125,64.125,2.62331,2.971833,2.24984,6.569618,3.99266,9.538129,-0.1854583,-0.4129116,1.6085,0.1769553,-0.3161992,1.452429,0.04392183,0.4909311,1.69606,-0.1335204,-0.414429,1.587651,0.1809367,-0.3122291,1.397318,0.0185335,0.02167716,1.702681,0.002838546,-0.3043178,1.683708,-0.1407893,0.1947038,1.681065,-0.07955693,-0.2975392,1.646371,-0.1972619,-0.09136076,1.662758,0.2504121,-0.05635405,1.649822,NA,NA,NotTracked,Unknown,
0.9453125,-0.2822266,0.02685547,0.9790039,0.5537109,0.3256836,-1,0,-1,0,-2,-2,-1,0,-13,-3,-5,-5,-12,-64,-13,-7,0.875,0.875,0.875,-60.0625,-60.0625,-60.0625,2.622393,2.968787,2.251048,6.701112,3.533683,9.347066,-0.1854702,-0.4130434,1.610504,0.1891984,-0.3687406,1.490397,0.04362268,0.4913223,1.697383,-0.1334751,-0.3950664,1.588135,0.2069761,-0.3730907,1.453569,0.01864474,0.02160222,1.703105,0.003460028,-0.3047813,1.684417,-0.1410587,0.1948687,1.681438,-0.07916079,-0.2977449,1.646714,-0.1973895,-0.09232878,1.663506,0.247437,-0.06495093,1.646088,NA,NA,NotTracked,Unknown,
0.9624023,-0.2963867,0.015625,1.006836,0.3833008,0.2954102,-1,-2,2,-2,-2,-1,0,-2,-5,6,1,2,8,8,-17,4,1.8125,1.8125,1.8125,-41.1875,-41.1875,-41.1875,2.611651,2.963846,2.26318,6.698578,3.455125,9.319432,-0.1852602,-0.4120416,1.613128,0.1907463,-0.3940312,1.537986,0.04343755,0.4915113,1.698615,-0.1330326,-0.392053,1.589572,0.2290428,-0.3909015,1.521514,0.01910581,0.02147057,1.703676,0.004968196,-0.3053961,1.685352,-0.1412628,0.1949022,1.681622,-0.07779755,-0.2983531,1.64728,-0.1975331,-0.09360103,1.66426,0.2458239,-0.06979931,1.644553,NA,NA,NotTracked,Unknown,
0.9433594,-0.2944336,0.02587891,1.47168,0.5405273,0.01806641,-2,1,-3,0,-1,0,1,-1,4,0,-1,-1,-1,-8,4,-1,3.9375,3.9375,3.9375,4.625,4.625,4.625,2.608048,2.962172,2.272479,6.83111,3.262386,9.173457,-0.1844885,-0.4097279,1.613844,0.1917682,-0.3903398,1.563424,0.04336166,0.4917253,1.699147,-0.1330834,-0.3915279,1.588849,0.2339766,-0.4002399,1.5588,0.01943009,0.02146633,1.704102,0.006053201,-0.3057974,1.686262,-0.1413773,0.1949012,1.681829,-0.07662141,-0.2987916,1.648314,-0.1976306,-0.09298583,1.665158,0.2449978,-0.07441156,1.645251,NA,NA,NotTracked,Unknown,
0.9458008,-0.2890625,0.02490234,0.4926758,0.1567383,0.3964844,-1,-2,-2,-3,-1,-3,0,0,-10,-3,-4,-2,-2,-10,-16,-5,4.5625,4.5625,4.5625,-40.8125,-40.8125,-40.8125,2.60613,2.960756,2.28007,6.872827,3.150729,9.090114,-0.184671,-0.4095577,1.616692,0.1928246,-0.3907891,1.572435,0.04336487,0.4918194,1.699531,-0.133098,-0.3945444,1.590301,0.2346521,-0.387731,1.566429,0.0198538,0.02148044,1.704539,0.006982942,-0.3059258,1.687314,-0.1414878,0.1948981,1.682198,-0.07564028,-0.2990628,1.649513,-0.1976876,-0.09345915,1.666345,0.2443648,-0.07758306,1.648074,NA,NA,NotTracked,Unknown,
0.9633789,-0.2866211,0.03125,1.725586,0.5610352,0.6870117,-1,-1,-1,0,-2,-3,-3,-3,9,1,-1,-1,-2,-2,-1,1,-1.125,-1.125,-1.125,-85.5,-85.5,-85.5,2.596527,2.957398,2.294244,6.836121,3.099554,9.010637,-0.184883,-0.4083916,1.617315,0.1935423,-0.3888595,1.575148,0.04353271,0.4919461,1.699573,-0.1333093,-0.3970646,1.589952,0.2292448,-0.4164174,1.56925,0.02018442,0.0215031,1.704843,0.00765961,-0.3058846,1.688084,-0.1416186,0.194958,1.682479,-0.07492673,-0.2991527,1.650401,-0.1976827,-0.09412821,1.667364,0.2444017,-0.08140108,1.65221,NA,NA,NotTracked,Unknown,
0.9550781,-0.2880859,0.02099609,0.2695313,0.2397461,0.3486328,-1,-1,-2,0,-2,-1,-2,-2,-1,0,-1,-1,0,-2,4,3,-7.3125,-7.3125,-7.3125,0.875,0.875,0.875,2.587037,2.954916,2.294621,6.684171,3.111143,9.035996,-0.1847769,-0.4090818,1.618937,0.1944355,-0.390031,1.575936,0.04368442,0.4920464,1.699654,-0.1332454,-0.3920639,1.591435,0.2381402,-0.3856943,1.5691,0.02052723,0.0214555,1.705398,0.008392134,-0.3060179,1.689231,-0.1414773,0.1951516,1.682815,-0.07427075,-0.2992232,1.651441,-0.1976957,-0.09454431,1.668147,0.2442645,-0.08310395,1.655095,NA,NA,NotTracked,Unknown,
