ALX,ALY,ALZ,ARX,ARY,ARZ,EMG0L,EMG1L,EMG2L,EMG3L,EMG4L,EMG5L,EMG6L,EMG7L,EMG0R,EMG1R,EMG2R,EMG3R,EMG4R,EMG5R,EMG6R,EMG7R,GLX,GLY,GLZ,GRX,GRY,GRZ,ORL,OPL,OYL,ORR,OPR,OYR,LHNX,LHNY,LHNZ,RHNX,RHNY,RHNZ,HX,HY,HZ,LTX,LTY,LTZ,RTX,RTY,RTZ,SpineMidX,SpineMidY,SpineMidZ,SpineBaseX,SpineBaseY,SpineBaseZ,ShoulderLeftX,ShoulderLeftY,ShoulderLeftZ,ShoulderRightX,ShoulderRightY,ShoulderRightZ,ElbowLeftX,ElbowLeftY,ElbowLeftZ,ElbowRightX,ElbowRightY,ElbowRightZ,Myo_Pose_left,Myo_Pose_Right,Kinect_pose_left,Kinect_pose_right
0.9453125,-0.2998047,0.009765625,0.9316406,0.2700195,0.1206055,-2,-1,-2,-2,-3,-4,-2,-3,1,-1,-1,-1,-4,-1,1,2,1.9375,1.9375,1.9375,-0.8125,-0.8125,-0.8125,2.530096,2.995708,6.887621,6.824644,2.979592,8.934194,-0.1180114,-0.4092712,1.59593,0.2800476,-0.4125232,1.561665,0.09889974,0.4920864,1.688068,-0.06873501,-0.3928826,1.579901,0.3206604,-0.4000596,1.553905,0.08872289,0.01994191,1.696947,0.08397826,-0.3079624,1.682361,-0.083295,0.193152,1.677664,-0.0002076322,-0.302094,1.647616,-0.1355162,-0.09995072,1.656611,0.3076277,-0.07799233,1.646552,NA,NA,NotTracked,NotTracked,
0.9453125,-0.2998047,0.009765625,0.9287109,0.2636719,0.1196289,-2,-1,-2,-2,-3,-4,-2,-3,-2,0,-2,-1,-3,-1,-1,-2,1.9375,1.9375,1.9375,-0.5625,-0.5625,-0.5625,2.530096,2.995708,6.887621,6.823405,2.979708,8.935076,-0.1176561,-0.4098789,1.596803,0.2801227,-0.4120714,1.562216,0.09918848,0.4923047,1.688444,-0.0684121,-0.3916963,1.580191,0.3215684,-0.4095527,1.551584,0.08877276,0.01998692,1.69701,0.08400667,-0.307912,1.682407,-0.08320471,0.193245,1.677823,-0.0001740462,-0.3020419,1.647627,-0.1354825,-0.100092,1.65679,0.3076872,-0.07838224,1.646658,NA,NA,NotTracked,NotTracked,
0.9453125,-0.2998047,0.009765625,0.9316406,0.2641602,0.1166992,-2,-1,-2,-2,-3,-4,-2,-3,1,-1,-2,-1,0,-2,0,-5,1.9375,1.9375,1.9375,-0.125,-0.125,-0.125,2.530096,2.995708,6.887621,6.823472,2.979306,8.935721,-0.1184811,-0.4090843,1.597942,0.2803896,-0.4117324,1.562588,0.09940878,0.4922949,1.688672,-0.06951578,-0.3986122,1.581396,0.3207497,-0.4355755,1.546571,0.08880191,0.01998091,1.697069,0.08403707,-0.3079243,1.682423,-0.082762,0.1933705,1.677974,-0.0001536591,-0.3020457,1.647633,-0.1349686,-0.1010357,1.657059,0.3077264,-0.07838854,1.646767,NA,NA,NotTracked,NotTracked,
0.9453125,-0.2998047,0.009765625,0.9306641,0.2631836,0.1230469,-2,-1,-2,-2,-3,-4,-2,-3,-1,-2,-4,-2,-1,-1,0,-1,1.9375,1.9375,1.9375,0,0,0,2.530096,2.995708,6.887621,6.822762,2.979794,8.935848,-0.1173225,-0.4093204,1.599034,0.2803309,-0.412503,1.564116,0.09961534,0.4922766,1.689083,-0.06861553,-0.3956441,1.580758,0.3228942,-0.4148627,1.553453,0.08884078,0.0199705,1.697193,0.0840688,-0.3079308,1.682514,-0.082707,0.1933663,1.678214,-0.0001180708,-0.3020388,1.647728,-0.1349091,-0.101206,1.657313,0.3078292,-0.07859284,1.646941,NA,NA,NotTracked,NotTracked,
0.9453125,-0.2998047,0.009765625,0.9223633,0.2597656,0.1196289,-2,-1,-2,-2,-3,-4,-2,-3,-2,3,4,2,2,0,-1,-3,1.9375,1.9375,1.9375,0.4375,0.4375,0.4375,2.530096,2.995708,6.887621,6.821768,2.979359,8.937109,-0.1174604,-0.408934,1.597648,0.280764,-0.4124755,1.563614,0.09988415,0.4922101,1.689284,-0.0683791,-0.3974334,1.580554,0.3225003,-0.4183643,1.555313,0.08891587,0.01992537,1.697261,0.08414187,-0.3079602,1.682599,-0.08252761,0.1933133,1.678327,-4.713245E-05,-0.302063,1.647828,-0.1347952,-0.1013016,1.657757,0.3079621,-0.0787302,1.647224,NA,NA,NotTracked,NotTracked,
0.9453125,-0.2998047,0.009765625,0.9360352,0.2685547,0.1210938,-2,-1,-2,-2,-3,-4,-2,-3,-3,0,-2,-2,-2,-1,-2,-3,1.9375,1.9375,1.9375,0.0625,0.0625,0.0625,2.530096,2.995708,6.887621,6.822675,2.978917,8.936993,-0.1172369,-0.4097382,1.600013,0.2808169,-0.4123922,1.565714,0.1000784,0.4922237,1.689736,-0.06783413,-0.3794277,1.582275,0.3229258,-0.4069318,1.560167,0.08907305,0.01990367,1.697596,0.08424721,-0.3080036,1.682939,-0.08229856,0.1930387,1.678823,5.241737E-05,-0.302089,1.64817,-0.1346313,-0.1012891,1.65863,0.3081202,-0.07871857,1.64763,NA,NA,NotTracked,NotTracked,
0.9453125,-0.2998047,0.009765625,0.9262695,0.2705078,0.1269531,-2,-1,-2,-2,-3,-4,-2,-3,0,-4,1,-2,-5,-2,-1,0,1.9375,1.9375,1.9375,-0.4375,-0.4375,-0.4375,2.530096,2.995708,6.887621,6.82447,2.977703,8.935142,-0.1177969,-0.4082893,1.600265,0.2815814,-0.4124964,1.565261,0.1003582,0.492314,1.690143,-0.06835413,-0.3946507,1.582244,0.3233187,-0.4054554,1.558986,0.08910084,0.01990313,1.697711,0.08428735,-0.3080117,1.683084,-0.08210347,0.193187,1.679152,8.074036E-05,-0.3020752,1.648221,-0.1345225,-0.1014041,1.658995,0.3082107,-0.07878815,1.647937,NA,NA,NotTracked,NotTracked,
0.9453125,-0.2998047,0.009765625,0.9702148,0.2773438,0.1206055,-2,-1,-2,-2,-3,-4,-2,-3,12,1,-1,-1,-5,-1,1,-3,1.9375,1.9375,1.9375,-1.5,-1.5,-1.5,2.530096,2.995708,6.887621,6.824769,2.978146,8.933985,-0.1175412,-0.4091627,1.601921,0.2809722,-0.4131549,1.565095,0.1005244,0.4923509,1.690391,-0.06820622,-0.3904513,1.582815,0.3212424,-0.4064022,1.556825,0.08913157,0.01989483,1.698087,0.08429158,-0.308006,1.683409,-0.08190332,0.1931684,1.679719,8.223624E-05,-0.3020645,1.648494,-0.1343596,-0.1015758,1.659936,0.3084728,-0.0787893,1.648888,NA,NA,NotTracked,NotTracked,
0.9453125,-0.2998047,0.009765625,1.20752,0.3828125,0.1821289,-2,-1,-2,-2,-3,-4,-2,-3,4,-2,6,0,-5,1,0,0,1.9375,1.9375,1.9375,-15.1875,-15.1875,-15.1875,2.530096,2.995708,6.887621,6.68915,3.049351,9.068,-0.1174641,-0.4091686,1.602543,0.2735474,-0.4098224,1.546317,0.1006881,0.4923989,1.690622,-0.06775017,-0.3815468,1.583976,0.3109236,-0.4303541,1.522105,0.08915889,0.01992761,1.698247,0.08428174,-0.3079248,1.683594,-0.08186765,0.1931072,1.679931,6.301077E-05,-0.3019851,1.648617,-0.1342247,-0.1011935,1.660649,0.3098325,-0.0780013,1.654081,NA,NA,NotTracked,NotTracked,
0.9453125,-0.2998047,0.009765625,1.155273,0.7529297,0.4394531,-2,-1,-2,-2,-3,-4,-2,-3,-1,-4,-28,-1,-3,-5,-3,0,1.9375,1.9375,1.9375,90.9375,90.9375,90.9375,2.530096,2.995708,6.887621,6.508707,3.267782,9.358486,-0.1180359,-0.4081461,1.605149,0.2494927,-0.3570717,1.51377,0.1009112,0.4924611,1.690805,-0.06857701,-0.3943357,1.584762,0.2683491,-0.3540594,1.4684,0.08895283,0.02015607,1.698529,0.083299,-0.3072334,1.684479,-0.08183653,0.1931263,1.68019,-0.0009517361,-0.3011836,1.649225,-0.1341085,-0.1013776,1.661436,0.3148343,-0.07022435,1.666749,NA,NA,NotTracked,Unknown,
0.9453125,-0.2998047,0.009765625,0.9824219,0.9082031,0.7363281,-2,-1,-2,-2,-3,-4,-2,-3,-3,-5,5,-7,7,3,-4,2,1.9375,1.9375,1.9375,49.8125,49.8125,49.8125,2.530096,2.995708,6.887621,6.4632,3.860356,9.603665,-0.1174629,-0.4087041,1.606332,0.2079544,-0.2419488,1.485509,0.101589,0.4922521,1.690579,-0.06869363,-0.3970653,1.584635,0.2527605,-0.2189889,1.373667,0.0880808,0.02044099,1.698804,0.07921372,-0.3059527,1.685074,-0.08150268,0.1932828,1.680122,-0.005220032,-0.2991857,1.649361,-0.1336439,-0.09882268,1.662569,0.3237247,-0.05006219,1.677969,NA,NA,NotTracked,Closed,
0.9453125,-0.2998047,0.009765625,0.3798828,0.8916016,0.6860352,-2,-1,-2,-2,-3,-4,-2,-3,0,-2,-17,-12,-5,1,0,1,1.9375,1.9375,1.9375,20.1875,20.1875,20.1875,2.530096,2.995708,6.887621,6.467235,4.478776,9.699136,-0.1182086,-0.4073496,1.607944,0.181363,-0.09010737,1.439849,0.102987,0.4918245,1.689319,-0.06843865,-0.3892412,1.586955,0.2425669,-0.1039699,1.356667,0.08799398,0.02057655,1.699003,0.07847065,-0.3054948,1.685655,-0.08059375,0.1935482,1.679495,-0.005648814,-0.298855,1.649487,-0.1336636,-0.09770779,1.662878,0.343655,-0.03248443,1.677394,NA,NA,NotTracked,Unknown,
0.9453125,-0.2998047,0.009765625,-0.04052734,0.6777344,0.484375,-2,-1,-2,-2,-3,-4,-2,-3,-4,-17,-14,-5,-4,-1,1,1,1.9375,1.9375,1.9375,27.125,27.125,27.125,2.530096,2.995708,6.887621,6.505744,5.179552,9.775495,-0.1184175,-0.4067877,1.607377,0.1848038,0.07689548,1.438521,0.1052139,0.4913566,1.68741,-0.06864669,-0.3954582,1.585609,0.215184,0.05641179,1.409163,0.08811331,0.02092766,1.699718,0.07840189,-0.3045424,1.686924,-0.0787166,0.1940407,1.678939,-0.005538335,-0.298284,1.649922,-0.1330614,-0.09425634,1.663264,0.3539791,-0.02202804,1.629842,NA,NA,NotTracked,Unknown,
0.9453125,-0.2998047,0.009765625,-0.40625,0.3945313,0.3051758,-2,-1,-2,-2,-3,-4,-2,-3,-4,-7,-3,-5,3,1,-1,2,1.9375,1.9375,1.9375,66.9375,66.9375,66.9375,2.530096,2.995708,6.887621,6.620502,5.855093,9.860432,-0.1186633,-0.4064204,1.604611,0.1998915,0.204572,1.46117,0.1063358,0.4900903,1.685895,-0.06943023,-0.3927044,1.586707,0.219035,0.222335,1.448738,0.08704949,0.01897585,1.700552,0.07700082,-0.3094364,1.687809,-0.07800191,0.1938908,1.67887,-0.007703386,-0.3031264,1.653567,-0.1324793,-0.09277931,1.663316,0.3530664,-0.03412928,1.570796,NA,NA,NotTracked,Closed,
0.9453125,-0.2998047,0.009765625,-0.3686523,0.3208008,0.237793,-2,-1,-2,-2,-3,-4,-2,-3,-2,5,-1,6,10,-1,-9,-7,1.9375,1.9375,1.9375,26.1875,26.1875,26.1875,2.530096,2.995708,6.887621,6.825487,6.512467,9.980384,-0.1166038,-0.4048435,1.602445,0.2132925,0.2771005,1.482971,0.106209,0.4901277,1.684712,-0.06990958,-0.4048442,1.588875,0.2226144,0.3099374,1.458688,0.08789474,0.01915114,1.700536,0.07673852,-0.3097268,1.687776,-0.07490013,0.1952148,1.678616,-0.008640801,-0.3029432,1.653579,-0.1318123,-0.0841163,1.662899,0.368208,-0.01588017,1.549241,NA,NA,NotTracked,Unknown,
0.9453125,-0.2998047,0.009765625,-0.2963867,0.3022461,0.2719727,-2,-1,-2,-2,-3,-4,-2,-3,-4,4,3,-1,-8,2,7,-7,1.9375,1.9375,1.9375,16.9375,16.9375,16.9375,2.530096,2.995708,6.887621,6.920369,6.666435,0.0650503,-0.1151172,-0.4049074,1.600978,0.2040099,0.2918457,1.491138,0.1065286,0.489942,1.684058,-0.06801571,-0.4157366,1.587286,0.2069732,0.327703,1.446083,0.08891827,0.01933527,1.700599,0.07668612,-0.3094553,1.687546,-0.072916,0.1959808,1.678988,-0.009209247,-0.3022061,1.653272,-0.1313515,-0.08029298,1.662828,0.367518,0.03240856,1.495222,NA,NA,NotTracked,Unknown,
0.9453125,-0.2998047,0.009765625,-0.5727539,0.3920898,0.01904297,-2,-1,-2,-2,-3,-4,-2,-3,12,4,9,4,0,0,5,3,1.9375,1.9375,1.9375,-29.3125,-29.3125,-29.3125,2.530096,2.995708,6.887621,7.191301,6.468456,0.4881916,-0.1133163,-0.4052029,1.600241,0.1763813,0.2577315,1.49051,0.106195,0.4892646,1.684041,-0.06746607,-0.4006649,1.587239,0.1685678,0.2917204,1.4405,0.0873871,0.01731288,1.69995,0.07577213,-0.3120074,1.687006,-0.07288006,0.1958861,1.679556,-0.01044482,-0.3041607,1.654157,-0.1311115,-0.08019011,1.663046,0.3814424,0.01923567,1.492519,NA,NA,NotTracked,Unknown,
0.9453125,-0.2998047,0.009765625,-1,0.8095703,-0.1577148,-2,-1,-2,-2,-3,-4,-2,-3,6,6,16,8,4,3,3,6,1.9375,1.9375,1.9375,10.8125,10.8125,10.8125,2.530096,2.995708,6.887621,7.247788,6.279425,0.5672209,-0.1116954,-0.4045314,1.59668,0.1497365,0.2353427,1.498889,0.1052986,0.488956,1.684899,-0.0666216,-0.3985171,1.585589,0.1606037,0.2007164,1.575929,0.08616431,0.01559702,1.699444,0.07507067,-0.3142839,1.686546,-0.07429694,0.1956755,1.6815,-0.01135849,-0.3062941,1.655345,-0.1307058,-0.08220057,1.663999,0.3865037,0.01501564,1.502556,NA,NA,NotTracked,Unknown,
0.9453125,-0.2998047,0.009765625,-1.077148,1.017578,0.1279297,-2,-1,-2,-2,-3,-4,-2,-3,4,3,-1,2,3,6,4,0,1.9375,1.9375,1.9375,25,25,25,2.530096,2.995708,6.887621,7.274486,6.260397,0.5737238,-0.1133145,-0.4047664,1.59976,0.201239,0.261405,1.504138,0.1042483,0.487551,1.685497,-0.06379537,-0.3731073,1.584539,0.1971143,0.2357975,1.559,0.08539975,0.01481017,1.69939,0.07454672,-0.3157578,1.686191,-0.07484405,0.1949935,1.682034,-0.01197848,-0.3075334,1.655618,-0.1305389,-0.08243656,1.664542,0.3929431,0.01551672,1.502717,NA,NA,NotTracked,Closed,
0.9453125,-0.2998047,0.009765625,-0.8374023,0.3999023,0.02294922,-2,-1,-2,-2,-3,-4,-2,-3,-8,-1,-3,-4,1,1,-26,-10,1.9375,1.9375,1.9375,38.8125,38.8125,38.8125,2.530096,2.995708,6.887621,7.288593,6.56517,0.5058883,-0.1150739,-0.4052594,1.601992,0.2174943,0.3064546,1.51052,0.1044469,0.4873051,1.685064,-0.0645206,-0.3904484,1.582476,0.2069639,0.3319927,1.478629,0.08955591,0.01883741,1.700263,0.07622026,-0.3093437,1.685053,-0.07411477,0.195108,1.682229,-0.01054576,-0.3013101,1.653248,-0.130657,-0.08040982,1.664759,0.3790502,0.04608015,1.494838,NA,NA,NotTracked,Unknown,
0.9453125,-0.2998047,0.009765625,-0.4916992,0.1259766,0.1542969,-2,-1,-2,-2,-3,-4,-2,-3,0,7,2,2,0,-12,-8,-1,1.9375,1.9375,1.9375,7.25,7.25,7.25,2.530096,2.995708,6.887621,7.272343,6.723671,0.4798163,-0.1176885,-0.4067907,1.603887,0.2052849,0.3076553,1.506516,0.105304,0.4862845,1.684394,-0.06520978,-0.3879254,1.583322,0.2174575,0.3229064,1.448714,0.09204508,0.0201301,1.700712,0.07742351,-0.3066238,1.684095,-0.07243793,0.1954059,1.681899,-0.009448649,-0.2982409,1.651127,-0.1303592,-0.07967066,1.663756,0.378025,0.05375871,1.489491,NA,NA,NotTracked,Unknown,
0.9453125,-0.2998047,0.009765625,-0.8012695,0.3505859,0.2045898,-2,-1,-2,-2,-3,-4,-2,-3,9,12,-3,-2,-3,-6,-5,7,1.9375,1.9375,1.9375,-60.125,-60.125,-60.125,2.530096,2.995708,6.887621,7.29412,6.516138,0.5781565,-0.1200953,-0.4083238,1.602542,0.1927316,0.2608937,1.496523,0.1050148,0.4862402,1.685166,-0.06847379,-0.3927491,1.585206,0.1857696,0.2918551,1.453429,0.0903981,0.01795855,1.700014,0.07634918,-0.3108839,1.683681,-0.07223184,0.1951258,1.681907,-0.01041697,-0.3018022,1.651736,-0.1299763,-0.08050843,1.663243,0.4068664,0.04196263,1.479553,NA,NA,NotTracked,Lasso,
0.9453125,-0.2998047,0.009765625,-1.332031,0.9492188,-0.2998047,-2,-1,-2,-2,-3,-4,-2,-3,-8,24,5,-1,-1,0,2,-4,1.9375,1.9375,1.9375,-19.9375,-19.9375,-19.9375,2.530096,2.995708,6.887621,7.248262,6.277884,0.5840964,-0.1187573,-0.4091014,1.595284,0.1896257,0.2372358,1.496046,0.1045322,0.4864559,1.685644,-0.0668759,-0.3895949,1.583583,0.1856549,0.2096343,1.574571,0.08784185,0.01470049,1.698315,0.07533497,-0.3161942,1.682348,-0.07245281,0.1948892,1.681793,-0.01136637,-0.3068521,1.651827,-0.1294326,-0.08207425,1.662607,0.4094791,0.02243378,1.496368,NA,NA,NotTracked,Unknown,
0.9453125,-0.2998047,0.009765625,-1.126953,0.9301758,0.05664063,-2,-1,-2,-2,-3,-4,-2,-3,1,-6,-3,-3,0,-3,-2,0,1.9375,1.9375,1.9375,15.0625,15.0625,15.0625,2.530096,2.995708,6.887621,7.208266,6.362947,0.5136999,-0.1167429,-0.4076339,1.592699,0.2083338,0.2661662,1.503441,0.1043867,0.4861342,1.68564,-0.0675263,-0.3949521,1.582002,0.1659024,0.2609836,1.532364,0.0878308,0.01408737,1.69756,0.07527138,-0.3170679,1.681497,-0.07227076,0.1943368,1.681093,-0.01152456,-0.307725,1.650914,-0.1292317,-0.08232065,1.661772,0.4087327,0.02018078,1.498089,NA,NA,NotTracked,Unknown,
0.9453125,-0.2998047,0.009765625,-0.7763672,0.4467773,0.02783203,-2,-1,-2,-2,-3,-4,-2,-3,1,-1,-2,2,0,15,-2,2,1.9375,1.9375,1.9375,8.25,8.25,8.25,2.530096,2.995708,6.887621,7.191268,6.61001,0.4589029,-0.1142893,-0.40642,1.592387,0.3028632,0.1605902,1.507253,0.1051365,0.4856368,1.684801,-0.06527685,-0.384332,1.5777,0.2678909,0.1133547,1.573424,0.09229697,0.01759237,1.6975,0.07826091,-0.3112986,1.679831,-0.06986845,0.1944994,1.679295,-0.008767256,-0.3021784,1.64715,-0.1286029,-0.07992847,1.659843,0.3810796,0.04162459,1.498056,NA,NA,NotTracked,Unknown,
0.9453125,-0.2998047,0.009765625,-0.515625,0.2700195,0.1269531,-2,-1,-2,-2,-3,-4,-2,-3,-4,-4,-2,-2,-1,4,6,1,1.9375,1.9375,1.9375,-2.125,-2.125,-2.125,2.530096,2.995708,6.887621,7.206116,6.6505,0.4900934,-0.1120798,-0.4068872,1.588678,0.1975669,0.2953831,1.500336,0.1056667,0.4857509,1.684399,-0.06407481,-0.3946262,1.577368,0.1557129,0.2824,1.56,0.0941136,0.01868847,1.696903,0.07914437,-0.3097427,1.678983,-0.06877146,0.1945707,1.678602,-0.008039416,-0.300836,1.645851,-0.1279174,-0.07851044,1.657971,0.3799778,0.04857824,1.490773,NA,NA,NotTracked,Unknown,
0.9453125,-0.2998047,0.009765625,-0.5180664,0.7592773,-0.05664063,-2,-1,-2,-2,-3,-4,-2,-3,-6,-8,-7,-5,0,-3,-1,0,1.9375,1.9375,1.9375,12.25,12.25,12.25,2.530096,2.995708,6.887621,7.338609,6.415017,0.6524003,-0.1122897,-0.4051885,1.584829,0.1519235,0.2948045,1.513476,0.1057439,0.4857258,1.684349,-0.06328548,-0.3756219,1.576158,0.1261768,0.3390004,1.598333,0.09319577,0.01736542,1.695481,0.07875996,-0.3123233,1.678272,-0.06870736,0.1944409,1.678298,-0.008539159,-0.3032738,1.645739,-0.1271337,-0.08106296,1.656484,0.3961379,0.0406329,1.482313,NA,NA,NotTracked,Unknown,
0.9453125,-0.2998047,0.009765625,-0.8613281,0.6381836,0.01611328,-2,-1,-2,-2,-3,-4,-2,-3,-1,1,3,-3,-1,1,0,0,1.9375,1.9375,1.9375,-7.125,-7.125,-7.125,2.530096,2.995708,6.887621,7.394928,6.447979,0.694847,-0.1130428,-0.4049116,1.582708,0.1975522,0.2700661,1.506471,0.105889,0.4853226,1.683949,-0.06668716,-0.4041657,1.57922,0.1548086,0.2494328,1.571,0.09216889,0.01593349,1.694044,0.0781774,-0.3144335,1.677425,-0.06890693,0.1939762,1.677845,-0.009126922,-0.3051783,1.645498,-0.1269527,-0.08214106,1.65523,0.400517,0.03713164,1.481327,NA,NA,Unknown,Closed,
0.9453125,-0.2998047,0.009765625,-0.6748047,0.3735352,0.015625,-2,-1,-2,-2,-3,-4,-2,-3,-3,-5,-4,-3,2,1,2,0,1.9375,1.9375,1.9375,-7.625,-7.625,-7.625,2.530096,2.995708,6.887621,7.321537,6.553904,0.6136785,-0.1135274,-0.4045817,1.583078,0.2040692,0.2799443,1.49999,0.106202,0.4854347,1.683188,-0.06410465,-0.3825087,1.576137,0.1593994,0.2678375,1.524125,0.09266611,0.01635657,1.693512,0.0785,-0.314074,1.676979,-0.06859676,0.1938695,1.677374,-0.00892743,-0.3051379,1.645324,-0.1268275,-0.08139186,1.654589,0.3918399,0.03199379,1.492413,NA,NA,Unknown,Unknown,
0.9453125,-0.2998047,0.009765625,-0.527832,0.2949219,0.09130859,-2,-1,-2,-2,-3,-4,-2,-3,1,7,3,0,-1,0,-1,0,1.9375,1.9375,1.9375,-21.8125,-21.8125,-21.8125,2.530096,2.995708,6.887621,7.20345,6.545778,0.4944245,-0.1135101,-0.4059505,1.584675,0.195942,0.2590801,1.479329,0.1055615,0.4859805,1.682523,-0.06416215,-0.4141079,1.576125,0.1640131,0.2388362,1.521583,0.09256128,0.01634856,1.69298,0.07845242,-0.3142122,1.676462,-0.06858273,0.1939003,1.677235,-0.008942268,-0.3054125,1.645202,-0.1266103,-0.08125464,1.654272,0.3852693,0.01901427,1.50306,NA,NA,Unknown,Unknown,
0.9453125,-0.2998047,0.009765625,-0.4951172,0.3964844,0.2446289,-2,-1,-2,-2,-3,-4,-2,-3,-2,-2,-1,-8,-3,-1,-4,3,1.9375,1.9375,1.9375,-57.0625,-57.0625,-57.0625,2.530096,2.995708,6.887621,6.935585,6.276871,0.275937,-0.1126929,-0.4067819,1.586433,0.1773319,0.1966646,1.455982,0.1049305,0.4858926,1.68262,-0.06531042,-0.4009031,1.576807,0.1524571,0.1741238,1.515357,0.09077442,0.01528027,1.692642,0.07790278,-0.3157208,1.675995,-0.07005019,0.1937689,1.677004,-0.009358771,-0.307334,1.645709,-0.1262056,-0.08259598,1.654077,0.3707302,-0.01387404,1.53017,NA,NA,Unknown,Unknown,
0.9453125,-0.2998047,0.009765625,-0.4248047,0.5219727,0.3901367,-2,-1,-2,-2,-3,-4,-2,-3,0,-1,2,9,3,2,4,7,1.9375,1.9375,1.9375,-78.5,-78.5,-78.5,2.530096,2.995708,6.887621,6.652864,5.74187,0.1020178,-0.1130122,-0.4064913,1.58847,0.1454798,0.1075759,1.419351,0.1049332,0.4859715,1.682547,-0.06468844,-0.3872165,1.574252,0.1090126,0.09580034,1.456231,0.09113935,0.01555438,1.692831,0.0793141,-0.3139284,1.675611,-0.07130139,0.1926591,1.676607,-0.006969407,-0.306406,1.644228,-0.1255313,-0.08866362,1.653971,0.3597869,-0.01182497,1.574031,NA,NA,NotTracked,Unknown,
0.9453125,-0.2998047,0.009765625,-0.1342773,0.7236328,0.4853516,-2,-1,-2,-2,-3,-4,-2,-3,-2,6,3,0,3,-1,-3,-1,1.9375,1.9375,1.9375,-83.75,-83.75,-83.75,2.530096,2.995708,6.887621,6.474152,5.233585,9.986629,-0.1129685,-0.4073441,1.590289,0.1608299,-0.02686693,1.410452,0.1044891,0.48623,1.68235,-0.06596733,-0.4053003,1.575685,0.1253035,-0.06118599,1.48764,0.09131489,0.01631499,1.692861,0.08002881,-0.3099414,1.675206,-0.07208233,0.1923047,1.676537,-0.005057265,-0.3031763,1.642219,-0.1256028,-0.089082,1.654284,0.3616753,-0.01904546,1.606865,NA,NA,NotTracked,Closed,
0.9453125,-0.2998047,0.009765625,0.1904297,0.925293,0.6459961,-2,-1,-2,-2,-3,-4,-2,-3,0,-3,-3,1,-7,-2,-3,-2,1.9375,1.9375,1.9375,-46.3125,-46.3125,-46.3125,2.530096,2.995708,6.887621,6.388812,4.711119,9.903102,-0.1135287,-0.4071265,1.590829,0.1756005,-0.1538016,1.425757,0.1038648,0.4863509,1.68203,-0.0638289,-0.3925892,1.571899,0.1164982,-0.1859151,1.473667,0.09167542,0.01669859,1.692642,0.08064874,-0.3088741,1.674679,-0.07337815,0.191739,1.676053,-0.003915575,-0.3024963,1.640985,-0.125566,-0.09005038,1.654648,0.4069749,-0.03892979,1.641045,NA,NA,NotTracked,Unknown,
0.9453125,-0.2998047,0.009765625,0.8027344,1.07959,0.6289063,-2,-1,-2,-2,-3,-4,-2,-3,2,-1,0,3,2,1,0,-6,1.9375,1.9375,1.9375,0.4375,0.4375,0.4375,2.530096,2.995708,6.887621,6.479646,4.065779,9.73445,-0.1151217,-0.4067555,1.59227,0.1948875,-0.2677184,1.473629,0.1030649,0.4865382,1.681409,-0.06479113,-0.3924597,1.573501,0.2191663,-0.3475433,1.497409,0.09094173,0.01707762,1.691617,0.07837617,-0.3081191,1.672969,-0.07409833,0.1914517,1.674994,-0.006202992,-0.301461,1.638692,-0.1255117,-0.09243934,1.654134,0.3284515,-0.03636598,1.650003,NA,NA,NotTracked,Unknown,
0.9453125,-0.2998047,0.009765625,0.7617188,0.581543,0.4443359,-2,-1,-2,-2,-3,-4,-2,-3,16,4,1,0,-6,1,6,10,1.9375,1.9375,1.9375,-64.125,-64.125,-64.125,2.530096,2.995708,6.887621,6.434802,3.645189,9.662301,-0.1156018,-0.4075737,1.593499,0.2373191,-0.3499401,1.489035,0.102435,0.4866947,1.680867,-0.06476759,-0.3916706,1.57124,0.2495201,-0.363415,1.445694,0.09068061,0.0172469,1.690814,0.07757313,-0.3079501,1.672255,-0.07465225,0.1912321,1.674182,-0.007101793,-0.3011779,1.63786,-0.1260343,-0.09745827,1.653407,0.3218943,-0.0468684,1.646732,NA,NA,NotTracked,Unknown,
0.9453125,-0.2998047,0.009765625,1.13916,0.6469727,0.2998047,-2,-1,-2,-2,-3,-4,-2,-3,8,-2,-4,-1,1,-2,-5,-8,1.9375,1.9375,1.9375,-42.8125,-42.8125,-42.8125,2.530096,2.995708,6.887621,6.575615,3.244868,9.46324,-0.116104,-0.4075295,1.59097,0.2583526,-0.3980319,1.534701,0.1021539,0.4868776,1.680387,-0.06523675,-0.3985634,1.572141,0.3041011,-0.3996503,1.535,0.09115898,0.01734972,1.690226,0.0785028,-0.3080771,1.671821,-0.07478567,0.1911621,1.673559,-0.005979466,-0.3014887,1.637268,-0.1263892,-0.09836712,1.652749,0.3144743,-0.06074855,1.638256,NA,NA,NotTracked,Unknown,
0.9453125,-0.2998047,0.009765625,1.1875,0.4423828,-0.2543945,-2,-1,-2,-2,-3,-4,-2,-3,1,-11,2,-1,-7,-4,0,-1,1.9375,1.9375,1.9375,-72.625,-72.625,-72.625,2.530096,2.995708,6.887621,6.676439,3.032508,9.269554,-0.1158818,-0.4076553,1.588472,0.2814772,-0.4211544,1.558516,0.1021474,0.4869119,1.680037,-0.06505404,-0.3879682,1.570566,0.3239147,-0.4103269,1.558375,0.09180163,0.01725064,1.689758,0.08073068,-0.3085669,1.671575,-0.07523312,0.1907742,1.672582,-0.003426294,-0.3022914,1.637023,-0.1269511,-0.09740928,1.652015,0.3118693,-0.0698071,1.635059,NA,NA,NotTracked,NotTracked,
0.9453125,-0.2998047,0.009765625,0.9677734,0.1298828,0.06591797,-2,-1,-2,-2,-3,-4,-2,-3,-5,0,0,-2,-3,0,0,1,1.9375,1.9375,1.9375,35.4375,35.4375,35.4375,2.530096,2.995708,6.887621,7.059477,2.883994,8.71053,-0.1157262,-0.4090284,1.583635,0.2962583,-0.4226301,1.57577,0.1021598,0.4870677,1.67924,-0.0655373,-0.4023229,1.571433,0.3404861,-0.4087488,1.573056,0.09243169,0.0172126,1.688974,0.08201373,-0.3088321,1.671375,-0.07534372,0.1905782,1.671996,-0.002059991,-0.3025957,1.636828,-0.1275864,-0.09864432,1.651151,0.3128733,-0.07444721,1.635817,NA,NA,NotTracked,NotTracked,
0.9453125,-0.2998047,0.009765625,0.9394531,0.2426758,0.1938477,-2,-1,-2,-2,-3,-4,-2,-3,-1,1,-1,-1,-3,-1,-2,-3,1.9375,1.9375,1.9375,8.25,8.25,8.25,2.530096,2.995708,6.887621,7.092837,2.87222,8.686693,-0.1153121,-0.4078288,1.582565,0.3031244,-0.4210794,1.583555,0.1022237,0.4873089,1.677934,-0.06514316,-0.3890696,1.569223,0.3428644,-0.4222229,1.570732,0.09286446,0.01724895,1.688195,0.08275959,-0.3089911,1.671083,-0.07554719,0.1904515,1.671399,-0.00133882,-0.3027304,1.6366,-0.12795,-0.09938361,1.650745,0.3148353,-0.07923785,1.639234,NA,NA,NotTracked,NotTracked,
0.9453125,-0.2998047,0.009765625,0.9238281,0.2646484,0.2011719,-2,-1,-2,-2,-3,-4,-2,-3,-4,0,-3,-1,-1,-2,-1,-2,1.9375,1.9375,1.9375,-19.625,-19.625,-19.625,2.530096,2.995708,6.887621,6.948811,2.882913,8.813062,-0.1150212,-0.4085897,1.583812,0.3014595,-0.4220829,1.583113,0.1022222,0.4874028,1.676579,-0.06550826,-0.3972439,1.569948,0.3410583,-0.4187244,1.573584,0.093128,0.01727857,1.687598,0.08329251,-0.3091252,1.670879,-0.0756482,0.1904971,1.671062,-0.0008187876,-0.3028592,1.636431,-0.1284625,-0.09984313,1.650415,0.3159818,-0.08081459,1.642143,NA,NA,NotTracked,NotTracked,
0.9453125,-0.2998047,0.009765625,0.965332,0.21875,0.1552734,-2,-1,-2,-2,-3,-4,-2,-3,-5,-3,-3,0,4,-4,-5,-6,1.9375,1.9375,1.9375,-9.875,-9.875,-9.875,2.530096,2.995708,6.887621,6.767422,2.895616,8.944272,-0.1159968,-0.4082853,1.586096,0.2965162,-0.421726,1.579734,0.1023732,0.4873924,1.675592,-0.06610351,-0.4078037,1.570463,0.3356921,-0.4167711,1.574354,0.09331809,0.01725199,1.687265,0.0836979,-0.3091775,1.670731,-0.07568312,0.1905261,1.67074,-0.0003893125,-0.3029235,1.636239,-0.1285401,-0.09986459,1.65039,0.3158566,-0.08108833,1.643552,NA,NA,NotTracked,NotTracked,
0.9453125,-0.2998047,0.009765625,0.9521484,0.2666016,0.03564453,-2,-1,-2,-2,-3,-4,-2,-3,0,-1,-2,-2,1,-2,-2,-1,1.9375,1.9375,1.9375,51.0625,51.0625,51.0625,2.530096,2.995708,6.887621,6.761355,2.916341,9.014635,-0.1161858,-0.4102061,1.587802,0.2909794,-0.4170142,1.574265,0.1026111,0.4874985,1.674779,-0.06772967,-0.4225567,1.57252,0.3243771,-0.4210195,1.568727,0.09347931,0.01718353,1.686882,0.08402264,-0.3092599,1.670498,-0.07575581,0.1904427,1.670128,-5.338883E-05,-0.303025,1.635954,-0.1287201,-0.09962943,1.650298,0.3157418,-0.080774,1.644198,NA,NA,NotTracked,NotTracked,
0.9453125,-0.2998047,0.009765625,0.9204102,0.309082,0.03710938,-2,-1,-2,-2,-3,-4,-2,-3,-1,-1,-2,-2,-2,0,-2,0,1.9375,1.9375,1.9375,26.1875,26.1875,26.1875,2.530096,2.995708,6.887621,6.823299,2.945136,9.063888,-0.1173224,-0.4101495,1.589315,0.2888724,-0.416279,1.570888,0.1028072,0.48749,1.674383,-0.06444196,-0.3808394,1.568308,0.3255861,-0.4090779,1.56916,0.0935823,0.01718997,1.686579,0.08425193,-0.3092686,1.670293,-0.07582845,0.1903765,1.669641,0.0002222925,-0.3030883,1.635624,-0.1291711,-0.09904346,1.650154,0.3155958,-0.08052814,1.644467,NA,NA,NotTracked,NotTracked,
0.9453125,-0.2998047,0.009765625,0.9130859,0.2719727,0.08984375,-2,-1,-2,-2,-3,-4,-2,-3,0,0,0,-2,-2,0,0,1,1.9375,1.9375,1.9375,-14.125,-14.125,-14.125,2.530096,2.995708,6.887621,6.836421,2.955896,9.043554,-0.1176661,-0.4098854,1.587899,0.2900694,-0.4170044,1.566922,0.1030062,0.4875561,1.673913,-0.06554361,-0.3932168,1.568598,0.326879,-0.4357814,1.558167,0.09370421,0.01718435,1.686165,0.08449081,-0.3092871,1.670063,-0.07592584,0.1904479,1.669184,0.000459883,-0.3031258,1.635349,-0.129366,-0.09987018,1.649532,0.3155701,-0.08024433,1.644551,NA,NA,NotTracked,NotTracked,
