ALX,ALY,ALZ,ARX,ARY,ARZ,EMG0L,EMG1L,EMG2L,EMG3L,EMG4L,EMG5L,EMG6L,EMG7L,EMG0R,EMG1R,EMG2R,EMG3R,EMG4R,EMG5R,EMG6R,EMG7R,GLX,GLY,GLZ,GRX,GRY,GRZ,ORL,OPL,OYL,ORR,OPR,OYR,LHNX,LHNY,LHNZ,RHNX,RHNY,RHNZ,HX,HY,HZ,LTX,LTY,LTZ,RTX,RTY,RTZ,SpineMidX,SpineMidY,SpineMidZ,SpineBaseX,SpineBaseY,SpineBaseZ,ShoulderLeftX,ShoulderLeftY,ShoulderLeftZ,ShoulderRightX,ShoulderRightY,ShoulderRightZ,ElbowLeftX,ElbowLeftY,ElbowLeftZ,ElbowRightX,ElbowRightY,ElbowRightZ,Myo_Pose_left,Myo_Pose_Right,Kinect_pose_left,Kinect_pose_right
0.9604492,-0.2753906,0.03271484,0.9443359,0.2387695,0.1079102,1,-1,0,-1,0,-3,1,2,0,0,-3,-2,-1,-1,-2,-2,-2.125,-2.125,-2.125,-0.375,-0.375,-0.375,2.671747,2.950515,6.633399,6.821895,2.929544,9.09573,-0.1267935,-0.4080742,1.64299,0.2832477,-0.4158187,1.607224,0.1047993,0.4922898,1.713746,-0.07830954,-0.4003329,1.617175,0.3229175,-0.4105346,1.599083,0.08495827,0.02033603,1.725376,0.07651076,-0.3078855,1.713895,-0.08517722,0.1934089,1.710248,-0.007215202,-0.301484,1.679897,-0.1412324,-0.09086107,1.709565,0.3032787,-0.08114461,1.686154,NA,NA,NotTracked,NotTracked,
0.9575195,-0.2739258,0.03515625,0.9482422,0.2329102,0.109375,-3,0,-1,0,-1,-2,-5,-4,2,-3,1,0,-1,1,1,-1,-1.9375,-1.9375,-1.9375,-0.1875,-0.1875,-0.1875,2.666786,2.950053,6.634876,6.821712,2.929346,9.096181,-0.1267172,-0.4077892,1.641889,0.2832272,-0.4149493,1.607046,0.1049794,0.4922847,1.713753,-0.07823886,-0.4046229,1.616764,0.3248171,-0.4118345,1.602873,0.08496202,0.02034171,1.725361,0.07650975,-0.3078693,1.713894,-0.08504863,0.1934683,1.709987,-0.007218496,-0.3014489,1.67987,-0.1412253,-0.09082968,1.70954,0.3032817,-0.08114791,1.68617,NA,NA,NotTracked,NotTracked,
0.9584961,-0.2749023,0.03710938,0.9384766,0.2382813,0.105957,0,-2,-1,-2,-2,0,5,-1,-1,-2,0,-1,0,-1,-1,0,-0.5625,-0.5625,-0.5625,-1.0625,-1.0625,-1.0625,2.664321,2.950271,6.635638,6.821763,2.929587,9.095644,-0.127143,-0.4073059,1.641662,0.2831506,-0.4162458,1.606283,0.1051854,0.4921756,1.713754,-0.07830774,-0.4010931,1.616908,0.3237122,-0.4109522,1.59975,0.08496395,0.02030185,1.72536,0.07651571,-0.3078872,1.713906,-0.08499988,0.1934367,1.709976,-0.007217496,-0.3014559,1.679865,-0.1411713,-0.09097357,1.709444,0.3033851,-0.08133436,1.686297,NA,NA,NotTracked,NotTracked,
0.956543,-0.2685547,0.03613281,0.9418945,0.2358398,0.1069336,-1,-2,-1,-2,-2,0,1,-1,-6,2,-5,0,-2,-2,-2,-3,-0.625,-0.625,-0.625,-1.4375,-1.4375,-1.4375,2.665327,2.951184,6.634378,6.819682,2.930233,9.095335,-0.1279681,-0.4076271,1.642323,0.2833162,-0.416792,1.60667,0.1054313,0.4920481,1.71387,-0.07814821,-0.3970949,1.616916,0.323306,-0.4093578,1.600226,0.08498299,0.02022044,1.725379,0.07652231,-0.3080032,1.713935,-0.08481903,0.1934175,1.709919,-0.007221293,-0.301593,1.679881,-0.1411692,-0.09106945,1.709416,0.3034322,-0.08143298,1.686345,NA,NA,NotTracked,NotTracked,
0.9550781,-0.2734375,0.03955078,0.9399414,0.2353516,0.1074219,-1,0,1,-1,-2,-1,1,-1,-4,0,-1,0,0,-1,0,-4,-1.25,-1.25,-1.25,0.3125,0.3125,0.3125,2.665775,2.951463,6.63261,6.818286,2.930459,9.096228,-0.1274067,-0.4073551,1.640768,0.2830244,-0.415408,1.605231,0.1056362,0.4920417,1.713893,-0.07882117,-0.4224257,1.61756,0.3234695,-0.4084342,1.600799,0.08502032,0.02023517,1.725314,0.07655513,-0.3079938,1.713833,-0.08461837,0.1934282,1.709604,-0.007200029,-0.3015479,1.679775,-0.1409799,-0.09130421,1.708993,0.3034437,-0.08144642,1.686337,NA,NA,NotTracked,NotTracked,
0.9511719,-0.2729492,0.03417969,0.940918,0.2407227,0.1030273,-2,0,0,0,-1,0,0,0,2,1,0,-1,-1,-2,0,-1,-2.8125,-2.8125,-2.8125,2.0625,2.0625,2.0625,2.663405,2.951428,6.631696,6.821491,2.929982,9.09705,-0.1270584,-0.4074867,1.641026,0.2835124,-0.4153021,1.605964,0.1058609,0.4920759,1.714006,-0.0782882,-0.406829,1.616416,0.3288474,-0.4128676,1.610685,0.08504874,0.02024942,1.725298,0.07655726,-0.307974,1.713808,-0.08437879,0.1936556,1.709309,-0.007202621,-0.301519,1.679729,-0.1409713,-0.09117338,1.708857,0.3035178,-0.08137751,1.686341,NA,NA,NotTracked,NotTracked,
0.9897461,-0.2836914,0.02685547,0.9394531,0.230957,0.1025391,0,-1,-1,-1,2,10,2,0,13,1,2,1,1,0,1,5,-1.3125,-1.3125,-1.3125,0.6875,0.6875,0.6875,2.661717,2.951994,6.628106,6.822783,2.929753,9.096813,-0.1274087,-0.4068965,1.641091,0.2831117,-0.4162632,1.605797,0.1061772,0.4919899,1.714441,-0.07866863,-0.4289392,1.6182,0.3303595,-0.4217872,1.609,0.08507197,0.02027346,1.725251,0.0765695,-0.3079455,1.713738,-0.08430288,0.1937342,1.709048,-0.00719207,-0.3015095,1.679666,-0.1409751,-0.09137347,1.708659,0.3036068,-0.08139667,1.686286,NA,NA,NotTracked,NotTracked,
1.168457,-0.4750977,-0.06347656,1.01123,0.2832031,-0.04199219,-4,-2,-4,-3,0,11,8,-2,0,8,2,5,0,0,1,1,113.0625,113.0625,113.0625,-32.9375,-32.9375,-32.9375,2.871728,3.016562,6.515585,6.841156,2.930602,9.053549,-0.1260373,-0.4062183,1.636623,0.283237,-0.4170932,1.601666,0.1064444,0.4919493,1.71472,-0.07782606,-0.3850224,1.615822,0.2990043,-0.4595103,1.6345,0.0851128,0.02026363,1.725235,0.07667485,-0.3079508,1.713666,-0.08389497,0.1935853,1.708639,-0.00707848,-0.3015039,1.679553,-0.1408692,-0.09151455,1.708664,0.3036428,-0.08143287,1.686321,NA,NA,NotTracked,NotTracked,
1.172852,-0.2617188,0.2001953,1.071777,0.3789063,-0.09912109,4,6,0,1,-1,8,33,0,-20,-5,-11,-9,-4,-4,-5,-7,234.875,234.875,234.875,-98,-98,-98,3.403642,3.157271,6.310769,6.858288,2.945355,8.945292,-0.1245602,-0.390705,1.62738,0.2881061,-0.4094857,1.589361,0.1066113,0.4918165,1.71511,-0.1032986,-0.4039708,1.64964,0.33348,-0.4138512,1.564,0.08519524,0.02027776,1.72518,0.07670947,-0.3079247,1.713652,-0.08363634,0.1937699,1.708337,-0.007020337,-0.301452,1.679509,-0.1416553,-0.09220356,1.713736,0.3048505,-0.08183847,1.688548,NA,NA,NotTracked,NotTracked,
0.9008789,-0.4077148,0.6005859,1.163086,0.2783203,0.421875,-4,-5,-2,0,-5,1,3,1,5,-1,-1,3,-3,-1,1,3,167,167,167,-222.5,-222.5,-222.5,3.860073,3.383359,6.154498,6.347562,3.103239,9.040318,-0.1421818,-0.3544223,1.60492,0.3122781,-0.3750457,1.581232,0.1067563,0.4918209,1.715106,-0.1036311,-0.3921089,1.607882,0.3485871,-0.3630206,1.52298,0.08527704,0.02046912,1.724671,0.07677662,-0.3075933,1.713474,-0.08368998,0.1943841,1.708129,-0.007006151,-0.3011184,1.679349,-0.1432571,-0.09003298,1.731842,0.3093772,-0.08292788,1.702518,NA,NA,NotTracked,NotTracked,
0.4829102,-0.2358398,0.6567383,0.8032227,0.3725586,0.4570313,0,0,0,1,0,6,0,4,11,6,1,1,1,2,3,5,78.6875,78.6875,78.6875,-113.875,-113.875,-113.875,4.158301,3.688065,6.118957,6.049039,3.349802,9.098795,-0.1658484,-0.3007499,1.567496,0.3416396,-0.3231781,1.549221,0.1070197,0.4919946,1.714733,-0.1209146,-0.3233109,1.5712,0.3837038,-0.3143929,1.505468,0.0851006,0.02096028,1.72372,0.07629076,-0.3066134,1.71299,-0.08391535,0.1955353,1.708371,-0.007607154,-0.3001375,1.678895,-0.1410774,-0.08169458,1.744551,0.3119168,-0.08042403,1.712948,NA,NA,Open,Open,
0.3901367,-0.04541016,0.6860352,0.6137695,0.262207,0.668457,-1,-1,0,-3,-2,-12,-13,-1,-8,-8,0,-1,-2,0,-2,-6,36.375,36.375,36.375,-47.1875,-47.1875,-47.1875,4.294151,3.869413,6.063453,5.941418,3.575908,9.082844,-0.1790901,-0.2568473,1.53457,0.3470405,-0.2754771,1.528858,0.1071544,0.4919316,1.714501,-0.1366162,-0.2704714,1.51556,0.3940965,-0.2607659,1.492208,0.08489842,0.02118334,1.723374,0.07559708,-0.3056347,1.712675,-0.08405235,0.196403,1.709022,-0.008374709,-0.2992808,1.678749,-0.1395051,-0.07361622,1.749602,0.3120248,-0.07664667,1.718433,NA,NA,Closed,Open,
0.4140625,-0.1425781,0.6259766,0.4726563,0.1337891,0.7158203,1,0,-1,1,2,-2,8,3,3,2,-1,0,-1,-3,-3,-2,-39.5,-39.5,-39.5,30.625,30.625,30.625,4.357708,3.997644,5.923146,5.850624,3.826236,9.190254,-0.1693663,-0.2291639,1.509695,0.3335664,-0.2507079,1.490135,0.1072384,0.491878,1.714554,-0.1249311,-0.2464141,1.4968,0.3793723,-0.2351289,1.445865,0.08478903,0.02135258,1.723366,0.07496791,-0.3046117,1.712574,-0.08412898,0.1974741,1.710247,-0.009094118,-0.2983505,1.678782,-0.1383893,-0.06858198,1.748251,0.3121566,-0.06845561,1.720871,NA,NA,Unknown,Open,
0.7666016,-0.2075195,0.7412109,0.4472656,0.1367188,0.7700195,-9,-1,0,3,12,3,-11,-5,-10,-8,1,-2,-2,-2,-2,-4,-66.5625,-66.5625,-66.5625,76.5,76.5,76.5,4.386152,4.04118,5.735722,5.825068,3.953719,9.382924,-0.1420583,-0.2256226,1.475374,0.2921195,-0.2317742,1.464142,0.1072576,0.4917505,1.714652,-0.09487315,-0.2380784,1.471233,0.3300793,-0.2050247,1.416458,0.08473385,0.02152639,1.723501,0.07474791,-0.3040379,1.712409,-0.08439431,0.1978745,1.711197,-0.009300046,-0.297877,1.678584,-0.137398,-0.06312177,1.736054,0.3101685,-0.05574445,1.716738,NA,NA,Open,Unknown,
1.036133,-0.5620117,0.7617188,0.8203125,0.2929688,0.7275391,-2,-3,-2,-3,-5,-7,-2,-1,12,4,-2,-3,-1,-4,-1,1,-9.75,-9.75,-9.75,97.5625,97.5625,97.5625,4.377591,4.089936,5.51566,5.811968,4.031677,9.639413,-0.1055127,-0.2214405,1.461319,0.2419594,-0.2216723,1.445822,0.1072098,0.4915555,1.714942,-0.06045492,-0.232147,1.457432,0.2800441,-0.1980589,1.377133,0.08469926,0.02157018,1.723536,0.07440433,-0.3035949,1.711306,-0.08444496,0.1974752,1.711414,-0.009556301,-0.2975615,1.677354,-0.13658,-0.06048486,1.719853,0.3055697,-0.04734438,1.705298,NA,NA,Open,Unknown,
0.6333008,-0.4365234,0.6499023,1.058594,0.6005859,0.6801758,-2,-2,0,0,2,0,-2,-7,6,1,4,0,-9,2,5,-1,34.0625,34.0625,34.0625,66.5,66.5,66.5,4.421947,4.201385,5.495827,5.861114,4.126793,9.829803,-0.08870983,-0.188191,1.453564,0.2147273,-0.1862904,1.436556,0.1071083,0.4916422,1.715373,-0.03897973,-0.1970399,1.442857,0.2505296,-0.1705692,1.379273,0.08463675,0.02172493,1.723552,0.07409891,-0.3031178,1.710737,-0.08438265,0.1974189,1.711372,-0.009672219,-0.297176,1.676732,-0.1375728,-0.05199294,1.71612,0.3042406,-0.0415961,1.700792,NA,NA,Unknown,Unknown,
0.3178711,-0.4296875,0.722168,0.5800781,0.6728516,0.5332031,0,0,-2,-2,-4,0,9,-1,-10,-10,0,0,-5,0,4,-8,17.5625,17.5625,17.5625,-3.5,-3.5,-3.5,4.402224,4.330426,5.569946,5.923982,4.325693,9.856463,-0.1001667,-0.1406769,1.457765,0.2112552,-0.1463316,1.417086,0.1070438,0.4916845,1.715404,-0.04915949,-0.1507872,1.405,0.2579459,-0.1262518,1.370333,0.08445817,0.02197381,1.723484,0.07380735,-0.3028117,1.710559,-0.08439662,0.1974079,1.711341,-0.009928148,-0.2968577,1.676433,-0.1421193,-0.03621283,1.727322,0.3051358,-0.03919066,1.702887,NA,NA,Unknown,Unknown,
0.009277344,-0.1494141,0.7670898,0.2070313,0.5537109,0.6430664,1,-1,-2,-1,-5,-11,-18,0,-19,-6,-6,-4,-4,-2,0,-7,11.9375,11.9375,11.9375,-28.375,-28.375,-28.375,4.399526,4.430099,5.691098,5.939065,4.45514,9.761566,-0.1113862,-0.1293102,1.400165,0.2472461,-0.1207984,1.424658,0.106924,0.4916364,1.7152,-0.09707147,-0.1246847,1.3752,0.2976591,-0.1013908,1.391727,0.08419821,0.02222153,1.723256,0.0734879,-0.3022797,1.710491,-0.08462292,0.1974711,1.711546,-0.0102324,-0.2962965,1.676353,-0.141014,-0.03287648,1.731004,0.3086754,-0.03707672,1.710916,NA,NA,Unknown,Unknown,
0.1064453,-0.003417969,0.8754883,0.02978516,0.328125,0.7563477,0,-6,-5,-2,-1,-5,-9,-2,3,5,-5,-1,17,-10,-17,-5,16.875,16.875,16.875,-48.125,-48.125,-48.125,4.441703,4.439663,5.737313,5.902513,4.524961,9.637239,-0.1504311,-0.1257867,1.459642,0.2826929,-0.1179095,1.427864,0.1065609,0.4916426,1.714647,-0.09571894,-0.1305554,1.430375,0.3356976,-0.09844996,1.39825,0.08397071,0.0224983,1.723065,0.0732883,-0.3018518,1.710519,-0.08491071,0.1978249,1.712057,-0.01052309,-0.2959054,1.676486,-0.1400704,-0.03074163,1.735687,0.3095063,-0.03406744,1.718595,NA,NA,Unknown,Lasso,
0.449707,-0.1411133,1.075195,0.1132813,0.2338867,0.9335938,-5,-4,1,1,2,-12,-16,-3,17,1,-3,-5,-3,-2,1,-1,4.9375,4.9375,4.9375,2.6875,2.6875,2.6875,4.500631,4.409194,5.649041,5.858266,4.548187,9.565554,-0.1431717,-0.1336378,1.482303,0.2836329,-0.127612,1.441224,0.1062033,0.491505,1.71385,-0.09591793,-0.1459595,1.422462,0.3275069,-0.1091182,1.415327,0.08370415,0.02271202,1.722905,0.07299794,-0.3013984,1.710495,-0.08534545,0.1982241,1.712577,-0.01080762,-0.2954962,1.676553,-0.1400795,-0.03113717,1.736472,0.3105105,-0.03405518,1.715004,NA,NA,Unknown,Lasso,
0.6269531,-0.2880859,1.020996,0.3779297,0.3056641,1.026367,4,-2,1,-2,3,-5,15,-9,-12,-6,-1,-1,3,-2,-3,-8,-27.6875,-27.6875,-27.6875,5.9375,5.9375,5.9375,4.522155,4.398211,5.555056,5.806532,4.524264,9.664331,-0.1177832,-0.1444965,1.474602,0.2540935,-0.1369317,1.433742,0.1057976,0.4911773,1.712869,-0.06750732,-0.1476595,1.469161,0.2937768,-0.1156635,1.402537,0.08355632,0.02281469,1.722671,0.07275523,-0.3011352,1.7102,-0.08540098,0.1981888,1.712539,-0.01102929,-0.29526,1.676375,-0.1401254,-0.03114312,1.736515,0.3108981,-0.03326318,1.717189,NA,NA,Lasso,Unknown,
0.4169922,-0.574707,0.831543,0.4316406,0.6616211,0.7900391,-1,1,-2,0,-2,1,0,3,5,8,8,2,-8,6,13,1,-16,-16,-16,44,44,44,4.477592,4.442469,5.491899,5.816338,4.51805,9.877203,-0.09267071,-0.1335876,1.477626,0.2172407,-0.1264966,1.44524,0.1052964,0.4910397,1.71205,-0.03996894,-0.1348492,1.49275,0.2600221,-0.1114367,1.381222,0.08336008,0.02295081,1.722443,0.07258508,-0.3007678,1.709864,-0.08556513,0.1981186,1.712622,-0.01111681,-0.2948584,1.675964,-0.1394652,-0.02957659,1.737245,0.3120783,-0.03278976,1.718101,NA,NA,Unknown,Unknown,
0.2456055,-0.5546875,0.7949219,0.3818359,0.6923828,0.6889648,-6,-5,-3,0,-2,-7,-5,0,19,3,-2,-2,1,-1,0,7,12.625,12.625,12.625,30.6875,30.6875,30.6875,4.423743,4.495224,5.566928,5.888362,4.545362,9.913803,-0.1047274,-0.1158269,1.473969,0.2080785,-0.108662,1.438906,0.1049747,0.490967,1.711238,-0.05321833,-0.1169654,1.456588,0.2592095,-0.08725781,1.4028,0.08321887,0.02319251,1.722095,0.07254153,-0.3004252,1.709612,-0.08554562,0.1981131,1.712506,-0.01114176,-0.2944095,1.675598,-0.1389472,-0.02941276,1.738453,0.3129903,-0.03213733,1.719606,NA,NA,Unknown,Unknown,
0.05810547,-0.1743164,0.8525391,0.2172852,0.7299805,0.6640625,-2,2,3,-3,-3,-4,-1,6,10,9,6,0,-11,-1,12,4,3.375,3.375,3.375,-15.8125,-15.8125,-15.8125,4.411162,4.551832,5.749766,5.947008,4.58883,9.836891,-0.1384656,-0.1056657,1.468906,0.2401453,-0.0986925,1.432384,0.104633,0.4910294,1.710642,-0.08044227,-0.1127052,1.425333,0.2968036,-0.07583872,1.403526,0.08302647,0.02344694,1.721794,0.07229678,-0.2999586,1.709439,-0.08562644,0.1983029,1.712746,-0.01138142,-0.2939319,1.6754,-0.1394807,-0.02811142,1.74331,0.3148629,-0.03050246,1.724241,NA,NA,Unknown,Unknown,
0.3105469,-0.06738281,0.9794922,0.04736328,0.3046875,0.7924805,2,2,0,1,4,13,10,7,2,-4,-15,-6,19,-16,-23,-1,11.1875,11.1875,11.1875,-13.0625,-13.0625,-13.0625,4.433137,4.550641,5.823989,5.906073,4.620858,9.654776,-0.1657597,-0.1095264,1.466571,0.2785674,-0.1050351,1.430176,0.1042285,0.4910093,1.709992,-0.1131169,-0.1235727,1.444393,0.3300657,-0.08311301,1.39884,0.08286192,0.02363084,1.721651,0.07213904,-0.2996017,1.709291,-0.0858383,0.1987146,1.713286,-0.01156554,-0.2936162,1.67535,-0.1383804,-0.02830266,1.742589,0.3151061,-0.02937561,1.726401,NA,NA,Lasso,Lasso,
0.5083008,-0.1132813,1.12207,0.2568359,0.3041992,0.9628906,-4,-1,-1,0,0,-4,-3,-1,21,4,0,-5,-4,-1,1,2,-15.3125,-15.3125,-15.3125,-7.75,-7.75,-7.75,4.471979,4.536729,5.766117,5.880756,4.597197,9.608298,-0.16269,-0.1158933,1.463711,0.2812115,-0.1175188,1.434193,0.1035814,0.4906598,1.709228,-0.2111165,-0.09990765,1.433007,0.3288446,-0.09871726,1.40028,0.08275584,0.02367574,1.721486,0.07197675,-0.2994688,1.709056,-0.08602741,0.1987298,1.713547,-0.01170903,-0.2935474,1.675238,-0.137342,-0.02909975,1.740418,0.3150218,-0.03021512,1.72111,NA,NA,Lasso,Unknown,
0.2255859,-0.394043,0.8671875,0.3779297,0.3554688,1.09668,3,3,0,-1,-6,-10,-1,-6,12,5,2,-1,0,-1,2,1,-15.875,-15.875,-15.875,16.25,16.25,16.25,4.482617,4.567318,5.621415,5.860025,4.573174,9.659073,-0.1316049,-0.1132746,1.460583,0.2509866,-0.1216578,1.437563,0.1031034,0.4905338,1.709072,-0.1761035,-0.09577269,1.426796,0.2982824,-0.1010685,1.374953,0.08238716,0.02375833,1.721408,0.07155444,-0.2992778,1.708785,-0.08634177,0.1986785,1.713995,-0.01204688,-0.2934211,1.675066,-0.1376632,-0.02973375,1.737969,0.3153972,-0.02974927,1.722018,NA,NA,Lasso,Unknown,
0.1298828,-0.3393555,0.7104492,0.2998047,0.5668945,0.7451172,-4,1,-2,-1,0,6,-6,7,-5,-14,1,4,-5,0,7,-3,13.6875,13.6875,13.6875,17.25,17.25,17.25,4.490245,4.594955,5.579565,5.838504,4.555279,9.890344,-0.1042489,-0.106052,1.464438,0.2178677,-0.1170273,1.443275,0.1026418,0.490449,1.708867,-0.1504685,-0.09472369,1.397056,0.2647431,-0.09751812,1.393214,0.08213986,0.02380998,1.721202,0.07124512,-0.2990924,1.708299,-0.08637347,0.198597,1.714014,-0.01232312,-0.2932297,1.674648,-0.1391535,-0.02931429,1.738782,0.3161422,-0.02939051,1.72234,NA,NA,Unknown,Unknown,
0.1762695,-0.4921875,0.7314453,0.2333984,0.668457,0.6352539,-2,-1,-1,0,1,5,5,0,23,5,-3,-1,1,0,-2,4,36.375,36.375,36.375,-22.25,-22.25,-22.25,4.489143,4.555123,5.60426,5.862048,4.549245,9.906868,-0.1026879,-0.1097787,1.464779,0.2074395,-0.1195198,1.451559,0.1024912,0.4904199,1.708831,-0.1449004,-0.09476756,1.403235,0.2583583,-0.09668897,1.407583,0.08186208,0.02390331,1.721032,0.07093778,-0.2989059,1.707963,-0.08647705,0.1984834,1.714154,-0.01256449,-0.2930568,1.674361,-0.1386632,-0.0296378,1.738563,0.3161415,-0.02915783,1.722877,NA,NA,Unknown,Unknown,
0.2807617,-0.2172852,0.7016602,0.184082,0.4658203,0.6206055,4,-1,1,-1,1,-1,0,-6,-1,-2,-1,-2,-3,1,-1,-4,-54.625,-54.625,-54.625,-44.5,-44.5,-44.5,4.438616,4.395353,5.680049,5.823541,4.500856,9.867943,-0.1146569,-0.1372014,1.473399,0.2221412,-0.137713,1.44394,0.1023649,0.4902844,1.708736,-0.1592109,-0.1219482,1.411368,0.2695705,-0.1135682,1.401625,0.08158907,0.02386923,1.720769,0.07034236,-0.2990096,1.707353,-0.0865875,0.1985321,1.714269,-0.01310553,-0.2931713,1.673864,-0.1386194,-0.02978184,1.73788,0.3164385,-0.02929671,1.723207,NA,NA,Unknown,Unknown,
0.4125977,-0.2548828,0.7099609,0.2470703,0.262207,0.6938477,0,-3,-3,-3,-2,1,3,-2,0,-2,-9,-1,10,-6,-11,0,-36.0625,-36.0625,-36.0625,37.6875,37.6875,37.6875,4.333746,4.192456,5.74069,5.834161,4.384207,9.81347,-0.1280669,-0.183357,1.490113,0.2456459,-0.1699283,1.457199,0.1023345,0.4902818,1.708586,-0.167623,-0.1593371,1.4404,0.2874211,-0.1456381,1.395334,0.08148383,0.0239099,1.720527,0.07017725,-0.2989891,1.706755,-0.08668171,0.198569,1.714292,-0.01324085,-0.2931215,1.673284,-0.1371118,-0.04056766,1.732179,0.3156306,-0.03040745,1.722897,NA,NA,Unknown,Unknown,
0.7070313,-0.265625,0.7275391,0.4038086,0.4179688,0.6450195,-1,-2,-2,-1,0,-1,-2,3,8,3,-4,-2,3,-1,0,0,-32.375,-32.375,-32.375,3.875,3.875,3.875,4.238539,3.951019,5.810117,5.917721,4.205864,9.722202,-0.1357578,-0.2449135,1.509857,0.2640903,-0.2259892,1.476329,0.1023787,0.4902176,1.708668,-0.167402,-0.2028852,1.473649,0.2988936,-0.1948789,1.4,0.08146554,0.02384994,1.720384,0.07009193,-0.2991446,1.706173,-0.08687326,0.1985303,1.714292,-0.01338475,-0.2933584,1.67268,-0.1390809,-0.05071842,1.732308,0.3137329,-0.03232366,1.721114,NA,NA,Open,Unknown,
1.002441,-0.4189453,0.6201172,0.581543,0.3735352,0.6005859,-1,1,-1,-1,-2,-1,-1,5,26,0,-1,-1,1,1,-1,-1,-86.75,-86.75,-86.75,21.9375,21.9375,21.9375,4.01256,3.61722,5.929652,5.999139,3.89377,9.622185,-0.1464891,-0.30355,1.526215,0.2776353,-0.286118,1.502626,0.1025453,0.4901715,1.708872,-0.1800013,-0.2744298,1.469415,0.3002985,-0.2549826,1.439692,0.08142396,0.0236332,1.720351,0.0700742,-0.2999104,1.705887,-0.08698441,0.1982086,1.713909,-0.01361159,-0.2944342,1.672263,-0.1420779,-0.06469399,1.730094,0.313844,-0.04634085,1.716707,NA,NA,Open,Open,
0.9882813,-0.3696289,0.4277344,0.9238281,0.4072266,0.6269531,0,-1,-1,-1,-3,-3,2,1,-15,-1,-1,0,1,-3,-4,-3,-70.5625,-70.5625,-70.5625,52.1875,52.1875,52.1875,3.787769,3.391922,6.061498,6.130326,3.640784,9.527228,-0.1470039,-0.3565334,1.556936,0.286718,-0.3455508,1.526672,0.1028602,0.490134,1.709273,-0.1739679,-0.332887,1.491367,0.3011286,-0.3173237,1.456035,0.08149939,0.02314353,1.720441,0.07066324,-0.3014593,1.70625,-0.08709849,0.1972634,1.71313,-0.01313044,-0.2956749,1.672336,-0.1438429,-0.07668968,1.725303,0.3129109,-0.06180076,1.70807,NA,NA,Open,Unknown,
1.114746,-0.4594727,0.3588867,1.135254,0.4711914,0.3681641,-1,-2,-2,0,-1,0,2,1,10,4,2,0,-3,-1,0,7,-94,-94,-94,53.75,53.75,53.75,3.467099,3.195938,6.249923,6.421407,3.313534,9.31546,-0.1494618,-0.398119,1.587581,0.2910288,-0.3786158,1.551238,0.103271,0.4902598,1.710137,-0.1583618,-0.36986,1.528633,0.3090731,-0.3694212,1.504034,0.08157414,0.02262542,1.720537,0.07124174,-0.3030365,1.706444,-0.08700882,0.196746,1.712435,-0.01251853,-0.2970987,1.672316,-0.1443637,-0.0829671,1.720569,0.3101518,-0.07006101,1.699521,NA,NA,Open,Unknown,
1.080078,-0.3828125,0.1601563,1.088379,0.2109375,0.168457,1,-2,-1,-1,-3,-1,2,2,20,0,0,1,2,0,-1,-11,-80.9375,-80.9375,-80.9375,15.125,15.125,15.125,3.10394,3.061543,6.492221,6.616355,3.12286,9.140685,-0.1455541,-0.4045814,1.611338,0.2895046,-0.4068522,1.578455,0.1035468,0.4904051,1.71046,-0.1755104,-0.3976952,1.583667,0.3296518,-0.4023432,1.558,0.08172038,0.02235504,1.720581,0.07162549,-0.3038593,1.706686,-0.08678692,0.196225,1.711375,-0.01212907,-0.2976514,1.672349,-0.1443625,-0.08593405,1.716825,0.3069795,-0.07655828,1.689951,NA,NA,NotTracked,Unknown,
0.9863281,-0.2788086,0.05859375,1.08252,0.3759766,0.04980469,1,-1,-1,2,2,1,1,-4,-2,-3,-4,-1,0,-2,-3,5,-49.75,-49.75,-49.75,58.75,58.75,58.75,2.712184,2.980627,6.761124,6.898245,2.98318,8.936279,-0.1363098,-0.4096427,1.639541,0.2917165,-0.4167135,1.60167,0.1036085,0.490434,1.710557,-0.1812957,-0.3963634,1.622595,0.3336231,-0.4061185,1.593882,0.08190513,0.02196234,1.720446,0.07191847,-0.304592,1.706713,-0.08685381,0.1954217,1.710264,-0.01181371,-0.2982755,1.672374,-0.1444653,-0.08727445,1.714882,0.3051788,-0.07986081,1.685882,NA,NA,NotTracked,NotTracked,
0.956543,-0.3203125,0.09033203,0.9589844,0.2641602,0.08789063,-1,-1,-1,-3,-1,-1,-2,-1,5,0,1,-2,-1,0,2,11,25.4375,25.4375,25.4375,-13.3125,-13.3125,-13.3125,2.615591,2.961037,6.829187,7.006557,2.919426,8.835486,-0.1372446,-0.4111324,1.649524,0.2947107,-0.4207835,1.61667,0.1037089,0.4904662,1.710685,-0.1855735,-0.3983682,1.639766,0.333427,-0.4107414,1.6105,0.08219717,0.0216156,1.72038,0.07248868,-0.3052402,1.706891,-0.08683712,0.1950838,1.709832,-0.01119036,-0.2989048,1.672587,-0.1447814,-0.08925615,1.713593,0.3047785,-0.08060332,1.685244,NA,NA,NotTracked,NotTracked,
0.96875,-0.2592773,0.07617188,0.9370117,0.3007813,0.1635742,-1,0,-2,-1,-2,-4,3,1,-3,1,0,0,-2,-2,-2,-5,8.125,8.125,8.125,-14.375,-14.375,-14.375,2.655053,2.958586,6.825006,6.974771,2.909834,8.850171,-0.1382233,-0.4095754,1.653004,0.2937466,-0.4205672,1.622165,0.1037371,0.4904518,1.71076,-0.1851729,-0.3975108,1.641775,0.3371346,-0.4216583,1.62325,0.08238157,0.0213703,1.720225,0.07289959,-0.3056776,1.707013,-0.08680102,0.1949537,1.709602,-0.01067429,-0.2994252,1.672739,-0.1449357,-0.08977217,1.713543,0.3046063,-0.0807419,1.685377,NA,NA,NotTracked,NotTracked,
0.96875,-0.2783203,0.05859375,0.9384766,0.234375,0.08984375,-1,-1,-1,-2,0,-2,-1,-3,-7,-5,0,0,-1,-2,-3,-9,-11.75,-11.75,-11.75,-2.8125,-2.8125,-2.8125,2.689373,2.96805,6.781008,6.910343,2.917164,8.891945,-0.1377549,-0.4093376,1.651612,0.2921293,-0.4196399,1.621147,0.1038133,0.4905211,1.710639,-0.1852481,-0.4057153,1.63876,0.3335957,-0.4153773,1.613596,0.08247632,0.02133614,1.720137,0.07314677,-0.3057783,1.707136,-0.08676688,0.1948671,1.709293,-0.01042465,-0.2995029,1.672877,-0.1449759,-0.08997422,1.713543,0.3044219,-0.0808854,1.685547,NA,NA,NotTracked,NotTracked,
0.9536133,-0.28125,0.05322266,0.9487305,0.2666016,0.1020508,-1,0,0,-1,-2,-2,-2,0,2,-2,-1,-2,-1,-2,-1,-3,-29.0625,-29.0625,-29.0625,19.5625,19.5625,19.5625,2.715423,2.981697,6.712566,6.885199,2.933756,8.958939,-0.1361703,-0.40748,1.646592,0.2920241,-0.4182864,1.615914,0.1038516,0.4905728,1.710585,-0.1830249,-0.3877999,1.637333,0.3322229,-0.4122774,1.612056,0.08270485,0.02118747,1.719973,0.07361382,-0.3060848,1.707208,-0.08676883,0.1946266,1.708675,-0.009861938,-0.2998378,1.672911,-0.144935,-0.09010525,1.713494,0.3043005,-0.0810033,1.685641,NA,NA,NotTracked,NotTracked,
0.9472656,-0.3105469,0.06835938,0.9433594,0.2441406,0.1171875,0,0,-1,0,-1,1,1,2,-11,-3,0,0,-2,-2,0,-2,-22.0625,-22.0625,-22.0625,13.625,13.625,13.625,2.740592,2.99845,6.639935,6.863225,2.956752,9.009644,-0.1352457,-0.4075201,1.640383,0.2914757,-0.4189468,1.610016,0.1038888,0.4905717,1.710489,-0.1798419,-0.3973919,1.626594,0.3302388,-0.4066842,1.60305,0.08285177,0.02105266,1.719962,0.07386536,-0.3062616,1.707366,-0.08679743,0.194385,1.708523,-0.009666128,-0.2999686,1.672988,-0.1450355,-0.09019187,1.713281,0.3042331,-0.08106402,1.685708,NA,NA,NotTracked,NotTracked,
0.953125,-0.2578125,0.03857422,0.9384766,0.2338867,0.1074219,-2,-2,-1,-1,-1,1,-1,-1,-2,2,-2,-1,0,-1,-1,-3,-15.625,-15.625,-15.625,8.9375,8.9375,8.9375,2.770324,3.013283,6.581745,6.83382,2.979282,9.058336,-0.13239,-0.406592,1.635927,0.2884206,-0.4172835,1.60366,0.1039074,0.4905775,1.710497,-0.1795534,-0.3960895,1.62525,0.3299597,-0.4129708,1.597176,0.08292738,0.02090116,1.720066,0.07407783,-0.3065268,1.707584,-0.08671129,0.1941745,1.708593,-0.009519413,-0.3001558,1.673117,-0.145016,-0.09052113,1.713061,0.304116,-0.08108012,1.685735,NA,NA,NotTracked,NotTracked,
0.9467773,-0.2954102,0.04296875,0.9321289,0.2294922,0.09033203,-2,-1,-2,-2,-1,0,-1,1,15,2,-1,0,-1,0,-1,-1,-5.625,-5.625,-5.625,10.875,10.875,10.875,2.758928,3.015669,6.563159,6.813253,2.992265,9.097434,-0.1320695,-0.4049436,1.632176,0.2862857,-0.4148017,1.598644,0.1039899,0.4905721,1.71043,-0.1780402,-0.4006416,1.621233,0.3246173,-0.4153684,1.584542,0.08301351,0.02078813,1.72007,0.07431935,-0.3067033,1.707582,-0.0866339,0.1939962,1.708468,-0.009242546,-0.3003245,1.673094,-0.1450271,-0.09006104,1.712272,0.3039187,-0.08094769,1.685623,NA,NA,NotTracked,NotTracked,
0.9438477,-0.3032227,0.04736328,0.9331055,0.2490234,0.1000977,-2,-1,-1,-1,-1,-1,0,-3,-2,-3,2,1,0,0,-1,2,6.375,6.375,6.375,11.6875,11.6875,11.6875,2.758392,3.011308,6.566585,6.801043,2.997557,9.138095,-0.1312344,-0.4049063,1.632115,0.2840281,-0.4142453,1.597181,0.1040162,0.4905804,1.710411,-0.1773733,-0.3939872,1.622552,0.3235331,-0.4135436,1.590547,0.08310337,0.02071806,1.720127,0.07442397,-0.3067808,1.707621,-0.08666032,0.1938358,1.708436,-0.009162975,-0.3004035,1.673121,-0.1450323,-0.08966891,1.711339,0.3035938,-0.0805122,1.685401,NA,NA,NotTracked,NotTracked,
