ALX,ALY,ALZ,ARX,ARY,ARZ,EMG0L,EMG1L,EMG2L,EMG3L,EMG4L,EMG5L,EMG6L,EMG7L,EMG0R,EMG1R,EMG2R,EMG3R,EMG4R,EMG5R,EMG6R,EMG7R,GLX,GLY,GLZ,GRX,GRY,GRZ,ORL,OPL,OYL,ORR,OPR,OYR,LHNX,LHNY,LHNZ,RHNX,RHNY,RHNZ,HX,HY,HZ,LTX,LTY,LTZ,RTX,RTY,RTZ,SpineMidX,SpineMidY,SpineMidZ,SpineBaseX,SpineBaseY,SpineBaseZ,ShoulderLeftX,ShoulderLeftY,ShoulderLeftZ,ShoulderRightX,ShoulderRightY,ShoulderRightZ,ElbowLeftX,ElbowLeftY,ElbowLeftZ,ElbowRightX,ElbowRightY,ElbowRightZ,Myo_Pose_left,Myo_Pose_Right,Kinect_pose_left,Kinect_pose_right
0.953125,-0.2817383,-0.004394531,0.9506836,0.2192383,0.04736328,0,-1,-2,-1,-1,-1,-4,-2,-3,-2,0,-2,-3,-3,0,0,-1.875,-1.875,-1.875,0.75,0.75,0.75,2.444264,2.965103,5.236445,7.149992,2.86171,9.286082,-0.1340728,-0.4065275,1.591217,0.2867848,-0.4184579,1.585877,0.1059649,0.4867871,1.673797,-0.1824956,-0.3874323,1.591417,0.2383739,-0.4092827,1.54211,0.08138388,0.01703669,1.685915,0.07298815,-0.3106547,1.671346,-0.08596478,0.19328,1.661233,-0.01071492,-0.3030606,1.633467,-0.1412832,-0.09313059,1.65618,0.2993325,-0.09263358,1.639671,NA,NA,NotTracked,NotTracked,
0.9589844,-0.28125,-0.0009765625,0.9492188,0.2138672,0.03515625,-2,-1,0,-1,0,1,1,-3,-1,-1,-2,0,-1,-2,-1,-4,-2.5625,-2.5625,-2.5625,0.6875,0.6875,0.6875,2.444464,2.964597,5.232246,7.165328,2.859578,9.272631,-0.135459,-0.406342,1.59249,0.2879283,-0.4187241,1.586456,0.1062596,0.4868065,1.674184,-0.1843403,-0.3953811,1.589337,0.2391734,-0.4104425,1.543256,0.08157527,0.01711282,1.686007,0.07316148,-0.3106107,1.671342,-0.08327348,0.1946629,1.658167,-0.01049639,-0.3030026,1.633462,-0.1412717,-0.09293022,1.656182,0.2993268,-0.09261235,1.639653,NA,NA,NotTracked,NotTracked,
0.9550781,-0.2836914,0.008789063,0.9472656,0.2124023,0.04296875,-2,-1,1,0,-1,-5,-9,0,0,-1,-2,0,0,-2,0,1,-3.25,-3.25,-3.25,0.0625,0.0625,0.0625,2.443169,2.963794,5.228855,7.178428,2.859085,9.258836,-0.1339839,-0.4067568,1.591249,0.2876182,-0.4175302,1.586264,0.1065888,0.4868148,1.674751,-0.1809547,-0.3866605,1.586218,0.2390761,-0.4134305,1.542528,0.08178235,0.01720762,1.686197,0.07330271,-0.3105626,1.671365,-0.08344613,0.1945253,1.658604,-0.01037575,-0.3029564,1.63349,-0.1412789,-0.09289149,1.656183,0.29939,-0.09261716,1.639698,NA,NA,NotTracked,NotTracked,
0.9545898,-0.2890625,0,0.9477539,0.21875,0.04394531,0,0,-1,-2,0,2,7,1,4,1,0,1,0,-2,0,7,-2.75,-2.75,-2.75,-0.3125,-0.3125,-0.3125,2.445212,2.963764,5.222717,7.184088,2.858209,9.253175,-0.1338171,-0.4068977,1.591513,0.2878647,-0.4174028,1.58679,0.1068751,0.4870407,1.675367,-0.1795613,-0.3892862,1.582844,0.2386459,-0.4132829,1.542135,0.081885,0.0173996,1.686404,0.07336687,-0.310442,1.671432,-0.08231032,0.1952436,1.657446,-0.01031621,-0.3028139,1.633536,-0.1413175,-0.09278436,1.656184,0.2995167,-0.09254242,1.639729,NA,NA,NotTracked,NotTracked,
0.9619141,-0.284668,0.01074219,0.9458008,0.2163086,0.03808594,-1,-1,-1,-1,0,0,3,-4,0,0,1,-1,0,-2,-2,0,-1.5,-1.5,-1.5,-0.75,-0.75,-0.75,2.459337,2.965949,5.204087,7.182468,2.859213,9.254457,-0.1336666,-0.4065088,1.590912,0.2876949,-0.4188281,1.586361,0.1071518,0.4872059,1.676262,-0.1800117,-0.4011284,1.581,0.2389041,-0.4146403,1.542643,0.08209693,0.0174466,1.686516,0.07360006,-0.3104074,1.671426,-0.08254936,0.1951596,1.658071,-0.01007428,-0.3028107,1.633535,-0.1413031,-0.09272484,1.656052,0.2995386,-0.09251463,1.639724,NA,NA,NotTracked,NotTracked,
0.9814453,-0.3349609,0.06689453,1.001953,0.265625,0.04931641,-2,-9,-3,-5,-7,-8,-3,1,-9,3,5,0,0,0,-1,1,-0.8125,-0.8125,-0.8125,0.1875,0.1875,0.1875,2.508577,2.973423,5.150313,7.139773,2.872913,9.297795,-0.1331622,-0.40649,1.589536,0.2863531,-0.4185849,1.582695,0.1073373,0.487372,1.677199,-0.1810976,-0.3892099,1.589002,0.2394508,-0.4043394,1.54371,0.08230908,0.01750302,1.686709,0.07389775,-0.310355,1.671461,-0.08298216,0.1949398,1.658991,-0.009703114,-0.3027701,1.633528,-0.1412138,-0.09266406,1.656062,0.2996582,-0.09237321,1.639919,NA,NA,NotTracked,NotTracked,
0.9643555,-0.2890625,0.1040039,1.099609,0.3530273,0.1474609,1,6,10,1,-2,3,2,1,-15,4,4,12,1,-1,-3,0,-41.25,-41.25,-41.25,-8.875,-8.875,-8.875,2.606997,2.985789,5.008918,6.982401,2.927313,9.452459,-0.1299675,-0.4040464,1.584594,0.2802102,-0.4137256,1.565911,0.1076344,0.487623,1.67835,-0.174056,-0.3979115,1.574,0.2381351,-0.4128925,1.540749,0.08236755,0.01763422,1.68689,0.07389433,-0.3102086,1.671447,-0.08167301,0.195596,1.657699,-0.009747388,-0.3025905,1.633497,-0.1409269,-0.090075,1.655629,0.3003147,-0.09163602,1.64086,NA,NA,NotTracked,NotTracked,
0.9287109,-0.3945313,0.1689453,1.041504,0.4316406,0.4326172,-8,-11,0,1,-6,-8,-18,-17,-3,-2,-2,2,-5,-3,-2,-3,-81.75,-81.75,-81.75,50.5,50.5,50.5,2.75424,3.034191,4.69033,6.557455,3.126671,9.949265,-0.1227337,-0.4004621,1.571936,0.2563506,-0.391238,1.533282,0.1078356,0.4878184,1.679412,-0.1756441,-0.370627,1.598571,0.2114926,-0.3971683,1.517727,0.08240262,0.01790625,1.687023,0.07386363,-0.3097401,1.671365,-0.0821327,0.195719,1.658935,-0.00984224,-0.3021107,1.633248,-0.1402372,-0.08648878,1.653764,0.3026939,-0.08735576,1.644411,NA,NA,NotTracked,Unknown,
0.9511719,-0.3867188,0.2119141,1.01416,0.5195313,0.5356445,-14,-8,-13,-13,-6,-8,-12,-17,-1,1,-4,-10,-11,0,2,-2,-102.0625,-102.0625,-102.0625,65.8125,65.8125,65.8125,2.836594,3.09006,4.439907,6.452725,3.299746,0.145071,-0.1097768,-0.3900129,1.552869,0.2213035,-0.3542716,1.480255,0.1081351,0.4879902,1.680177,-0.1557399,-0.354566,1.53504,0.1814278,-0.3780244,1.4914,0.08226927,0.01831279,1.687134,0.07288835,-0.3082786,1.67076,-0.08247853,0.1958085,1.659728,-0.01117046,-0.3006254,1.632413,-0.138282,-0.07892565,1.647204,0.3052698,-0.07879245,1.646186,NA,NA,NotTracked,Unknown,
0.543457,-0.4902344,0.2348633,0.8803711,0.671875,0.6738281,8,10,39,1,3,-4,-1,1,-7,1,1,-3,-22,2,-1,-6,-128.25,-128.25,-128.25,72.5,72.5,72.5,2.892483,3.17724,4.124217,6.388364,3.773103,0.4581121,-0.08773433,-0.3802033,1.529042,0.160779,-0.2776675,1.439082,0.108289,0.488037,1.680935,-0.1259705,-0.3842451,1.511428,0.125815,-0.2858817,1.470667,0.08182624,0.0188422,1.687276,0.07079981,-0.3067101,1.669768,-0.08245029,0.1963041,1.660612,-0.01402072,-0.2979879,1.630787,-0.1331537,-0.07355472,1.633277,0.307592,-0.05773205,1.64366,NA,NA,Unknown,Unknown,
0.9375,-0.3393555,0.1650391,0.5634766,0.6235352,0.7011719,8,21,12,-3,0,4,9,3,2,-3,-7,-13,-10,-14,-7,-2,-109.125,-109.125,-109.125,84.9375,84.9375,84.9375,2.929023,3.254871,3.904105,6.3878,4.197064,0.6807402,-0.05679194,-0.359115,1.509018,0.09143796,-0.1721726,1.428063,0.1087247,0.4881212,1.682196,-0.07842316,-0.3110465,1.451429,0.05399339,-0.1418706,1.501227,0.08353077,0.01953647,1.688691,0.07515466,-0.3053044,1.670526,-0.08178401,0.1968355,1.660944,-0.009080323,-0.2975057,1.631078,-0.1269644,-0.06961086,1.6188,0.311686,-0.04751392,1.627257,NA,NA,Unknown,Unknown,
0.9462891,-0.4575195,0.1108398,0.222168,0.7441406,0.6333008,14,0,42,7,-8,-6,7,14,-5,3,16,-4,-40,16,14,-11,-142,-142,-142,91.1875,91.1875,91.1875,2.905863,3.336272,3.675961,6.48398,4.767304,1.001176,-0.02016762,-0.3382135,1.495821,0.0384774,-0.06443258,1.434951,0.109016,0.4882957,1.683402,-0.05726334,-0.3683141,1.492364,0.03319083,-0.124506,1.481056,0.08453956,0.02059757,1.689579,0.07656,-0.3031793,1.670643,-0.07824883,0.1988428,1.657498,-0.007920138,-0.2959783,1.630818,-0.1169233,-0.06312814,1.601697,0.3359187,-0.04988495,1.593817,NA,NA,Unknown,Unknown,
0.8920898,-0.3632813,0.04150391,-0.02539063,0.6040039,0.621582,-14,4,-17,-6,-10,-9,-14,0,8,8,9,7,-26,-1,10,9,-149.9375,-149.9375,-149.9375,39.375,39.375,39.375,2.884763,3.423388,3.425161,6.54888,5.152203,1.256516,0.01830574,-0.3249541,1.484422,-0.02311832,0.02839114,1.452555,0.1092544,0.4882457,1.684322,-0.004975008,-0.3509648,1.453228,-0.003610917,-0.02299581,1.527286,0.08508048,0.02162457,1.690799,0.0763149,-0.3013844,1.671323,-0.07572673,0.2004568,1.654325,-0.007830174,-0.2944136,1.631476,-0.1060356,-0.06517641,1.587501,0.2846771,-0.03252886,1.550703,NA,NA,Closed,Unknown,
0.8500977,-0.4873047,0.001953125,-0.1352539,0.6655273,0.5561523,-5,7,15,2,-1,1,3,-1,-14,-4,1,-5,7,-4,-5,-10,-141.1875,-141.1875,-141.1875,41.625,41.625,41.625,2.775963,3.486983,3.128706,6.62682,5.356427,1.438892,0.04678533,-0.3115613,1.519989,-0.02294425,0.07581445,1.504222,0.1096768,0.488138,1.68547,-0.02244022,-0.3477119,1.552601,0.02458911,0.1228287,1.546958,0.08535458,0.02240107,1.692238,0.07517247,-0.3000795,1.672463,-0.0742532,0.2018236,1.651284,-0.008585406,-0.2933001,1.633244,-0.09942248,-0.05864146,1.580191,0.2657813,-0.02276664,1.530272,NA,NA,Closed,Unknown,
0.8427734,-0.4873047,0.009765625,-0.1269531,0.6743164,0.3110352,-9,-18,-45,-10,-7,-8,-13,-9,1,-3,-8,1,11,3,15,0,-61.5625,-61.5625,-61.5625,24.5625,24.5625,24.5625,2.728916,3.486715,3.007554,6.858442,5.644458,1.883422,0.07108086,-0.3044357,1.522421,-0.03221786,0.08105148,1.534861,0.1097655,0.48799,1.685977,-0.001177675,-0.3366854,1.549149,-0.06979503,0.007751789,1.531859,0.08581889,0.02312868,1.693439,0.07407682,-0.298611,1.673723,-0.07142232,0.2023759,1.645576,-0.009163403,-0.2918932,1.634075,-0.09429206,-0.0474903,1.576132,0.2524935,-0.0130793,1.515109,NA,NA,Unknown,Unknown,
0.8266602,-0.5307617,0.03759766,0.06982422,0.7412109,0.2602539,-18,-6,2,0,-3,-3,0,-12,1,0,0,6,16,-3,-1,9,8.0625,8.0625,8.0625,20.6875,20.6875,20.6875,2.720574,3.47983,2.985641,6.959159,5.678112,2.083732,0.07228236,-0.3010068,1.525251,-0.03763882,0.09244952,1.549837,0.1096272,0.4878701,1.686247,-0.000228307,-0.3358163,1.54768,-0.07279481,0.03053285,1.543736,0.08624669,0.02352828,1.694386,0.07327583,-0.2976885,1.67505,-0.07041124,0.2011428,1.641081,-0.009492427,-0.2908008,1.634939,-0.09196545,-0.04251559,1.573705,0.238531,-0.006034698,1.506243,NA,NA,Closed,NotTracked,
0.7993164,-0.5180664,0.09277344,-0.04345703,0.8212891,0.1606445,0,7,17,3,4,15,3,-1,3,-4,-3,-9,-36,-3,-2,-1,56.6875,56.6875,56.6875,-7.9375,-7.9375,-7.9375,2.768827,3.454665,3.050968,7.026716,5.650021,2.22681,0.06998592,-0.3027034,1.526084,-0.03872333,0.1044668,1.555153,0.1087556,0.4875741,1.686309,-0.006939418,-0.3385144,1.549424,-0.0864336,0.04107753,1.546372,0.08658503,0.02377272,1.694552,0.07331891,-0.2973883,1.675093,-0.07022065,0.2006677,1.639493,-0.009387438,-0.2903635,1.63477,-0.09116303,-0.04039074,1.572775,0.2325844,-0.003881734,1.503945,NA,NA,Closed,NotTracked,
0.8452148,-0.5522461,0.1391602,-0.1152344,0.8769531,0.2070313,-2,-1,-8,-2,3,-7,-2,-1,-1,-1,-3,-4,2,-1,-4,-5,50.8125,50.8125,50.8125,-40.875,-40.875,-40.875,2.80495,3.427691,3.113752,6.991434,5.631079,2.211693,0.06318358,-0.3056968,1.526854,-0.03456033,0.09840599,1.552443,0.1057826,0.4876143,1.686543,-0.01276647,-0.3369981,1.549415,-0.01955447,0.04121641,1.559576,0.08678819,0.02419302,1.694708,0.07332268,-0.2964371,1.675201,-0.0701624,0.2005543,1.639173,-0.009322204,-0.2895313,1.634946,-0.09086844,-0.04002548,1.572719,0.2342531,-0.002049901,1.506426,NA,NA,Closed,NotTracked,
0.8618164,-0.546875,0.1352539,-0.3271484,0.8774414,0.3710938,4,-1,-12,-6,-2,0,6,3,6,5,2,0,-6,0,-2,-11,40.375,40.375,40.375,-12.25,-12.25,-12.25,2.840255,3.406867,3.161854,6.916836,5.623168,2.151357,0.05409895,-0.3055885,1.52816,-0.02671184,0.1032375,1.554069,0.1009401,0.4872277,1.685933,-0.02531847,-0.3366241,1.551435,-0.08953172,0.03736607,1.547899,0.08678662,0.02422968,1.694574,0.07321399,-0.29637,1.674882,-0.07033451,0.2002243,1.638915,-0.009444274,-0.2894129,1.63468,-0.090804,-0.03922194,1.572727,0.2408966,-0.004123695,1.507601,NA,NA,Closed,NotTracked,
0.8120117,-0.5708008,0.1665039,-0.4399414,0.9365234,0.3662109,-4,1,-22,-6,-8,-4,-1,-2,-1,-8,-8,-8,-2,5,-6,-18,4.875,4.875,4.875,-15.125,-15.125,-15.125,2.863878,3.40376,3.183143,6.876885,5.636132,2.058625,0.04549471,-0.3061745,1.529376,-0.005649564,0.101752,1.544912,0.09544795,0.4868954,1.685387,-0.03119815,-0.3369438,1.554262,-0.0738583,0.04772953,1.54275,0.08671749,0.02425295,1.694351,0.0729249,-0.2962603,1.674414,-0.07041583,0.2001816,1.639052,-0.009690079,-0.2893434,1.634481,-0.09096317,-0.03889627,1.573111,0.2555572,-0.008263753,1.512952,NA,NA,Unknown,Unknown,
0.8310547,-0.5585938,0.144043,-0.7075195,0.8261719,0.3959961,-2,-1,-1,1,4,3,0,-2,-4,-10,-1,-2,-5,13,12,-2,-9.9375,-9.9375,-9.9375,16.1875,16.1875,16.1875,2.864226,3.407355,3.173909,6.804122,5.713888,1.890424,0.04123222,-0.3132333,1.525964,0.02260357,0.1044464,1.534494,0.09095052,0.4870574,1.684877,-0.03386868,-0.3447821,1.550622,-0.02608393,0.09819857,1.48082,0.08642118,0.02437132,1.693891,0.07209934,-0.29605,1.673434,-0.07073776,0.2000654,1.639639,-0.01044899,-0.2890765,1.634035,-0.09153712,-0.03846769,1.573474,0.2660925,-0.009880692,1.516029,NA,NA,Unknown,Closed,
0.8310547,-0.5629883,0.159668,-0.9135742,0.8256836,0.3496094,0,2,4,2,9,0,2,-1,3,-7,-6,3,17,2,-3,21,-16.25,-16.25,-16.25,31.75,31.75,31.75,2.871996,3.414267,3.134599,6.794856,5.824736,1.737137,0.04302831,-0.3165581,1.524576,0.03027361,0.1141117,1.522485,0.08706348,0.4868135,1.683939,-0.0341964,-0.3480624,1.54895,0.02973386,0.1833178,1.5588,0.08600094,0.0243663,1.693252,0.07119167,-0.2961049,1.672624,-0.07106026,0.2001029,1.640013,-0.01127928,-0.2890891,1.633816,-0.09208094,-0.03789769,1.573751,0.267708,-0.009648044,1.516033,NA,NA,Unknown,Closed,
0.8188477,-0.5292969,0.1186523,-0.7670898,0.6533203,0.4726563,-5,-4,14,2,-5,-7,-2,-3,15,-3,-2,1,1,2,4,30,-34,-34,-34,21.1875,21.1875,21.1875,2.860631,3.419179,3.068197,6.777532,5.884716,1.656102,0.04333246,-0.3094316,1.526204,0.03226173,0.1343505,1.512916,0.08473329,0.4860777,1.682841,-0.03276673,-0.3410286,1.550737,0.01091591,0.08833809,1.55058,0.08572993,0.02406738,1.692543,0.07056999,-0.2965506,1.671598,-0.07041348,0.1997864,1.639237,-0.0120168,-0.2894568,1.632996,-0.09274005,-0.03726903,1.57306,0.2682482,-0.006839184,1.511902,NA,NA,Unknown,Closed,
0.84375,-0.5268555,0.1274414,-0.7929688,0.6020508,0.6513672,-3,-5,-13,-2,-3,-3,-2,3,-3,-4,-5,-10,-15,-8,-9,15,-27.75,-27.75,-27.75,-8.3125,-8.3125,-8.3125,2.855987,3.417005,3.016097,6.760839,5.953331,1.661362,0.04567686,-0.3092428,1.525415,-0.04220098,0.191708,1.534395,0.0839715,0.4854877,1.68182,-0.03120209,-0.3406211,1.549898,-0.03842133,0.1436672,1.566712,0.08567575,0.02366754,1.691957,0.07037617,-0.2972125,1.670993,-0.06570435,0.1980812,1.631189,-0.01255468,-0.2904406,1.631317,-0.0924394,-0.03691915,1.571277,0.2640929,0.0004138272,1.501798,NA,NA,Unknown,NotTracked,
0.8564453,-0.5083008,0.1049805,-0.6538086,0.6137695,0.5419922,5,1,-5,-3,0,-2,-4,-1,-3,-1,1,1,7,4,3,-4,-19.0625,-19.0625,-19.0625,-55.125,-55.125,-55.125,2.851422,3.416292,2.976282,6.754898,6.000395,1.790248,0.04830352,-0.3089483,1.525382,-0.04240115,0.1852541,1.542592,0.08410713,0.4850136,1.680689,-0.02889857,-0.340211,1.547733,-0.08480643,0.1362835,1.564999,0.0858527,0.02338415,1.69157,0.07056339,-0.2976682,1.670634,-0.06327672,0.1970189,1.625711,-0.01249445,-0.291048,1.630038,-0.09180882,-0.03672384,1.569465,0.255689,0.006226694,1.494406,NA,NA,Unknown,NotTracked,
0.8583984,-0.5024414,0.1074219,-0.3017578,0.5214844,0.3842773,4,4,0,1,1,-4,-1,1,0,1,0,-1,-5,37,0,-13,2.375,2.375,2.375,-77.3125,-77.3125,-77.3125,2.833417,3.423105,2.977571,6.719481,6.003301,1.949821,0.06676195,-0.3114157,1.520375,-0.04965544,0.1766652,1.549155,0.08413923,0.4846063,1.679065,-0.01225407,-0.3496219,1.53786,-0.09460634,0.1211506,1.5602,0.08586469,0.02338333,1.690802,0.07093206,-0.2975512,1.670027,-0.06275335,0.1961713,1.622869,-0.01200645,-0.2908861,1.629023,-0.09037605,-0.03758303,1.566003,0.2435621,0.01025482,1.489906,NA,NA,Unknown,NotTracked,
0.8339844,-0.519043,0.1362305,-0.2915039,0.887207,0.2856445,-1,-2,-6,-2,-4,-2,-4,0,9,1,-1,-11,-13,34,28,55,19.3125,19.3125,19.3125,-45.4375,-45.4375,-45.4375,2.837014,3.433249,3.007265,6.710608,5.820825,2.145503,0.05622756,-0.3086076,1.518883,-0.04972715,0.1638347,1.54681,0.08375089,0.4844916,1.678009,-0.01901972,-0.3425754,1.541491,-0.1026399,0.1542702,1.522913,0.08611871,0.02383431,1.689917,0.07134689,-0.2966218,1.669332,-0.06498142,0.1944284,1.614265,-0.0114121,-0.2902191,1.628388,-0.09034341,-0.04076296,1.56474,0.2408934,0.01469476,1.493625,NA,NA,Closed,NotTracked,
0.8168945,-0.5458984,0.125,-0.2280273,0.7250977,0.4326172,0,1,6,3,-1,-5,-1,2,4,-3,-3,1,7,-16,0,19,19,19,19,21.8125,21.8125,21.8125,2.841411,3.433398,3.041587,6.705092,5.672726,2.098743,0.05573215,-0.3038902,1.517777,-0.01045343,0.1161659,1.520797,0.0830933,0.4841051,1.676713,-0.02176038,-0.338066,1.539684,-0.08456639,0.1093256,1.498794,0.08598625,0.02440223,1.688982,0.07134651,-0.2951262,1.667966,-0.07003803,0.1974944,1.619033,-0.01128651,-0.2891414,1.627644,-0.08998794,-0.03751065,1.564679,0.2407431,0.01623879,1.493827,NA,NA,Lasso,Unknown,
0.7924805,-0.5395508,0.1870117,-0.3686523,0.9067383,0.4482422,-1,-1,6,0,2,0,6,0,-9,-6,-2,8,-8,-24,-31,6,28.875,28.875,28.875,42.8125,42.8125,42.8125,2.88374,3.431198,3.065791,6.759542,5.413167,2.081288,0.05505969,-0.326132,1.511093,-0.01006869,0.09468373,1.521478,0.08196461,0.4839219,1.675992,-0.0201451,-0.3593929,1.535315,-0.08631315,0.06672277,1.482781,0.0858849,0.02470588,1.687829,0.07126942,-0.2945756,1.666408,-0.073782,0.1983516,1.627687,-0.01125629,-0.2887896,1.627093,-0.08980062,-0.03731074,1.563113,0.2419745,0.01560526,1.489958,NA,NA,Unknown,Unknown,
0.8706055,-0.5629883,0.1455078,-0.3300781,0.9882813,0.4301758,2,-5,-19,-6,1,-1,0,3,4,-3,-1,0,6,10,14,5,18.3125,18.3125,18.3125,42.3125,42.3125,42.3125,2.92214,3.422234,3.071249,6.7822,5.359585,2.070509,0.04645176,-0.3110015,1.514334,-0.01388799,0.08522312,1.516686,0.08029424,0.4837131,1.675477,-0.03198283,-0.3421302,1.537159,0.02734348,0.1460131,1.548038,0.08542632,0.02468575,1.686353,0.07100677,-0.2944575,1.663925,-0.07657279,0.1996088,1.6335,-0.01143674,-0.2886682,1.62563,-0.08979546,-0.03979489,1.560541,0.2456321,0.01495078,1.487205,NA,NA,Closed,Unknown,
0.8588867,-0.5361328,0.1611328,-0.2626953,0.8916016,0.6889648,-3,-2,-6,-4,-2,-3,4,5,5,1,4,4,-7,-6,2,28,2.75,2.75,2.75,-15.75,-15.75,-15.75,2.930929,3.421473,3.070997,6.707792,5.285313,2.014632,0.04510493,-0.3143734,1.513955,-0.01983356,0.08643197,1.515671,0.07879408,0.4835981,1.674538,-0.03055349,-0.3477361,1.535631,0.02340903,0.1442207,1.546629,0.08518859,0.02474147,1.684901,0.07116345,-0.2944158,1.66186,-0.07737772,0.1994428,1.634609,-0.01133032,-0.2885455,1.624172,-0.08946104,-0.04181723,1.559052,0.2469093,0.01422316,1.486186,NA,NA,Closed,Unknown,
0.8227539,-0.5112305,0.1567383,-0.1826172,0.8330078,0.3779297,-1,0,5,-1,0,0,3,-1,-6,-3,-1,-3,-5,-13,-6,-15,-3.8125,-3.8125,-3.8125,9.375,9.375,9.375,2.92558,3.429045,3.075067,6.734993,5.343895,2.034972,0.04316617,-0.315514,1.512546,-0.0211475,0.0883867,1.515107,0.07821532,0.4836178,1.674401,-0.02775146,-0.3496746,1.535779,0.02284559,0.1437396,1.545935,0.08510552,0.02475706,1.684372,0.07130139,-0.2943487,1.661047,-0.07767203,0.1993634,1.635151,-0.01119956,-0.2884393,1.623655,-0.08954814,-0.04121983,1.557878,0.2471093,0.01375019,1.486046,NA,NA,Unknown,Unknown,
0.8393555,-0.5151367,0.1513672,-0.1713867,0.8549805,0.3842773,-2,-1,-12,-2,-2,-2,-3,-3,3,2,-1,-5,-7,3,13,27,-0.6875,-0.6875,-0.6875,3.8125,3.8125,3.8125,2.923311,3.429886,3.073599,6.747554,5.349318,2.040972,0.04535698,-0.3096289,1.513725,-0.0189268,0.08833837,1.51362,0.07742506,0.4836648,1.674002,-0.03397794,-0.3418641,1.535868,0.02530246,0.1423583,1.545017,0.08470531,0.02476064,1.683406,0.07103656,-0.2944313,1.660067,-0.07742603,0.1993849,1.635288,-0.01145915,-0.2884302,1.622903,-0.08949258,-0.04078439,1.556503,0.2470254,0.01259489,1.484683,NA,NA,Closed,Unknown,
0.8623047,-0.5175781,0.1313477,-0.152832,0.8383789,0.4511719,-2,-2,-3,-2,0,-2,-1,-3,-1,-1,2,-3,0,1,-2,1,11.375,11.375,11.375,-12.5625,-12.5625,-12.5625,2.92555,3.424779,3.084317,6.724414,5.341562,2.02304,0.04542444,-0.3130791,1.5117,-0.01945504,0.08912734,1.511932,0.07674982,0.483621,1.673727,-0.02909863,-0.3480223,1.535391,0.02617139,0.142805,1.544378,0.08439498,0.02472074,1.682425,0.07093838,-0.2945104,1.65903,-0.07726362,0.1993389,1.635314,-0.01156293,-0.28848,1.621857,-0.08956361,-0.04045973,1.55564,0.247323,0.01161916,1.484049,NA,NA,Unknown,Unknown,
0.8549805,-0.484375,0.1030273,-0.02294922,0.7524414,0.3657227,-1,-2,-7,0,1,0,2,1,0,0,1,1,2,2,0,1,36.625,36.625,36.625,-18.6875,-18.6875,-18.6875,2.913925,3.422521,3.165057,6.701704,5.342766,1.998934,0.05101054,-0.3365269,1.503251,-0.01827877,0.08603764,1.509366,0.07562163,0.4837283,1.673189,-0.01593786,-0.3826407,1.531784,0.02671685,0.1406358,1.542828,0.08399826,0.02468179,1.681467,0.07060209,-0.2946096,1.658234,-0.07718651,0.199466,1.635626,-0.01184096,-0.2885166,1.621384,-0.08992778,-0.04322496,1.554972,0.2500541,0.008015994,1.486853,NA,NA,Closed,Unknown,
0.8427734,-0.4614258,0.1069336,0.5429688,0.8491211,0.8979492,1,-5,3,-3,-3,-3,-1,-1,-7,-4,-1,-1,-7,-4,-1,-9,67.6875,67.6875,67.6875,-28.625,-28.625,-28.625,2.908877,3.415261,3.282681,6.564178,5.246748,1.824544,0.04708138,-0.3391427,1.499646,-0.01114755,0.06979781,1.500618,0.07385591,0.4841318,1.672671,-0.02632235,-0.3707304,1.53269,0.0262583,0.1276464,1.538484,0.08361841,0.02474195,1.680583,0.07052162,-0.2945989,1.65766,-0.07714217,0.1997789,1.63658,-0.01191319,-0.2884936,1.621,-0.09177344,-0.04876105,1.555265,0.2631322,0.001036393,1.499261,NA,NA,Closed,Unknown,
0.8398438,-0.4643555,0.1386719,-0.2631836,0.5766602,-0.09960938,-2,0,4,-3,1,-2,-4,-4,1,1,-3,-2,3,-2,0,0,78.0625,78.0625,78.0625,-29.875,-29.875,-29.875,2.918825,3.385094,3.421268,6.491623,5.106215,1.64803,0.04044305,-0.3428214,1.497961,-0.0004851433,0.01412688,1.478513,0.0711807,0.484715,1.671681,-0.03576303,-0.3675362,1.5346,0.01390804,0.07425158,1.530912,0.08305802,0.02482566,1.679133,0.07043674,-0.2946709,1.656906,-0.07982155,0.1991053,1.639213,-0.01202426,-0.2887222,1.620194,-0.0937227,-0.0577852,1.555833,0.2809771,-0.01236284,1.526805,NA,NA,Closed,Unknown,
0.8969727,-0.3920898,0.1181641,0.1123047,0.6103516,0.6289063,-4,-4,2,0,1,0,3,1,1,-2,-2,-1,0,-2,-4,0,28.375,28.375,28.375,-61.875,-61.875,-61.875,2.89584,3.318456,3.594523,6.409315,4.736778,1.330864,0.007256903,-0.3352301,1.474234,0.01517675,-0.08145671,1.455092,0.0691603,0.4851593,1.670353,-0.03098413,-0.366031,1.472813,0.0408121,-0.1520772,1.491175,0.08195486,0.02457812,1.67722,0.06970948,-0.2949215,1.655615,-0.08150397,0.1981058,1.640952,-0.01299937,-0.2892766,1.619277,-0.1064344,-0.04508632,1.566817,0.3002183,-0.01687002,1.548008,NA,NA,Closed,Unknown,
0.8974609,-0.496582,0.1308594,-0.2436523,0.5742188,0.4746094,-1,0,-4,-1,-2,-3,-6,3,-4,4,4,-4,-15,3,5,-5,48.3125,48.3125,48.3125,-16.875,-16.875,-16.875,2.861912,3.270876,3.696081,6.403893,4.359675,1.095294,-0.01242283,-0.3410316,1.481756,0.08785067,-0.1814376,1.429243,0.06723893,0.4854328,1.668538,-0.05128007,-0.3702801,1.477534,0.1025281,-0.252102,1.465222,0.08139261,0.02406294,1.675827,0.06973045,-0.295533,1.655234,-0.0842476,0.1961775,1.643006,-0.01293253,-0.2897685,1.619062,-0.108687,-0.04743445,1.569673,0.3093328,-0.02203965,1.568572,NA,NA,NotTracked,NotTracked,
0.8696289,-0.4238281,0.1142578,1.07666,0.8964844,0.9438477,-1,-5,-1,0,-1,-5,-6,-8,-1,-2,0,0,1,0,-1,0,85.125,85.125,85.125,-50.1875,-50.1875,-50.1875,2.894361,3.228901,3.808246,6.446713,3.996044,0.8605761,-0.03302214,-0.3415551,1.496047,0.1558695,-0.2695141,1.415366,0.06600339,0.4860259,1.665816,-0.07107701,-0.3713306,1.478667,0.183173,-0.3099829,1.422312,0.08012211,0.02357774,1.673231,0.06829274,-0.2966512,1.653708,-0.08556866,0.1959959,1.643623,-0.01581312,-0.289859,1.617294,-0.1146398,-0.05516762,1.575642,0.3091809,-0.02654354,1.584801,NA,NA,NotTracked,Unknown,
0.9223633,-0.4785156,0.1567383,0.3774414,0.690918,-0.00390625,2,1,-2,1,-1,1,0,4,3,-1,3,-2,-10,3,3,0,75.4375,75.4375,75.4375,-30.75,-30.75,-30.75,2.883017,3.17009,4.000983,6.673663,3.564931,0.4654292,-0.05005563,-0.3525022,1.507254,0.212703,-0.3439619,1.44035,0.06563024,0.486268,1.663228,-0.09327543,-0.3750339,1.496727,0.179556,-0.3639991,1.466,0.07933982,0.02278412,1.670294,0.06801833,-0.2984514,1.651246,-0.08804106,0.1946675,1.643663,-0.01724697,-0.2916991,1.615014,-0.1208531,-0.06198932,1.583476,0.3077713,-0.03444919,1.595394,NA,NA,Unknown,Unknown,
0.925293,-0.359375,0.09033203,0.1918945,0.3740234,0.2255859,-2,0,0,0,1,2,10,-1,4,0,0,0,-4,1,0,10,67.75,67.75,67.75,-73.3125,-73.3125,-73.3125,2.861826,3.123292,4.169713,6.843452,3.299239,0.129169,-0.06869284,-0.3636408,1.51748,0.2633401,-0.3827012,1.480301,0.06561212,0.4864239,1.659767,-0.1144973,-0.3851051,1.503864,0.2273167,-0.3787832,1.459804,0.08126397,0.02162698,1.668156,0.07438043,-0.3017517,1.649806,-0.08951522,0.1940389,1.643206,-0.01089318,-0.2965537,1.613236,-0.1248196,-0.06740934,1.591995,0.3079355,-0.05543508,1.602717,NA,NA,Closed,Unknown,
0.9438477,-0.4111328,0.1484375,1.303711,0.4541016,0.7290039,-2,-1,-1,-2,0,2,0,-1,-4,-1,-1,0,-1,0,0,-5,71.3125,71.3125,71.3125,-95.1875,-95.1875,-95.1875,2.80371,3.091111,4.347793,7.075575,3.089331,9.703899,-0.08867705,-0.3695758,1.528569,0.2923669,-0.4015993,1.524707,0.06625415,0.4862915,1.656629,-0.1378061,-0.3803691,1.519708,0.2316791,-0.3859648,1.522864,0.0820602,0.02068286,1.66707,0.07610184,-0.3036472,1.649834,-0.09125714,0.1923199,1.642545,-0.009079759,-0.2986482,1.613344,-0.1304842,-0.07066409,1.600139,0.3081158,-0.06994837,1.608454,NA,NA,Unknown,Unknown,
0.9433594,-0.3071289,0.078125,0.5996094,0.2202148,0.3422852,-1,-2,1,-2,0,0,2,-1,2,1,0,-1,0,0,0,-2,87.125,87.125,87.125,-76.75,-76.75,-76.75,2.768728,3.059779,4.546366,7.540961,2.928027,9.024824,-0.1064757,-0.3810774,1.535579,0.3157021,-0.413637,1.558249,0.0669315,0.4860668,1.653527,-0.1581431,-0.3341346,1.5125,0.2483215,-0.3694248,1.549333,0.08189701,0.01995189,1.666131,0.07570004,-0.3049125,1.650056,-0.09242486,0.1912907,1.64163,-0.009289471,-0.2997481,1.613606,-0.1345165,-0.07277109,1.607608,0.3080441,-0.07870542,1.613617,NA,NA,Unknown,NotTracked,
0.9628906,-0.3178711,0.09277344,1.002441,0.2763672,0.1337891,-2,-3,-1,-1,-2,1,1,0,-1,0,-2,0,-1,-2,-1,-1,47.625,47.625,47.625,-63.75,-63.75,-63.75,2.66446,3.022496,4.791371,7.77756,2.87157,8.657427,-0.121553,-0.3875103,1.545852,0.3236319,-0.4224429,1.583098,0.06781835,0.48589,1.650176,-0.1743824,-0.3378186,1.532158,0.2588561,-0.3729694,1.5708,0.08130644,0.01925544,1.665105,0.0741733,-0.3061469,1.650479,-0.09286938,0.1908163,1.640666,-0.01042937,-0.3007088,1.614214,-0.1367936,-0.07525192,1.613337,0.3082315,-0.08616018,1.619271,NA,NA,Unknown,NotTracked,
