ALX,ALY,ALZ,ARX,ARY,ARZ,EMG0L,EMG1L,EMG2L,EMG3L,EMG4L,EMG5L,EMG6L,EMG7L,EMG0R,EMG1R,EMG2R,EMG3R,EMG4R,EMG5R,EMG6R,EMG7R,GLX,GLY,GLZ,GRX,GRY,GRZ,ORL,OPL,OYL,ORR,OPR,OYR,LHNX,LHNY,LHNZ,RHNX,RHNY,RHNZ,HX,HY,HZ,LTX,LTY,LTZ,RTX,RTY,RTZ,SpineMidX,SpineMidY,SpineMidZ,SpineBaseX,SpineBaseY,SpineBaseZ,ShoulderLeftX,ShoulderLeftY,ShoulderLeftZ,ShoulderRightX,ShoulderRightY,ShoulderRightZ,ElbowLeftX,ElbowLeftY,ElbowLeftZ,ElbowRightX,ElbowRightY,ElbowRightZ,Myo_Pose_left,Myo_Pose_Right,Kinect_pose_left,Kinect_pose_right
0.9633789,-0.2807617,-0.007324219,0.9316406,0.2617188,0.1381836,-1,-3,-1,-2,0,1,1,1,5,1,-2,0,0,-1,-1,4,2.3125,2.3125,2.3125,0,0,0,2.415194,2.952574,4.475351,6.708191,2.993505,9.989241,-0.1191348,-0.4094812,1.561064,0.2685058,-0.4109193,1.55198,0.09431417,0.4903447,1.689206,-0.1653052,-0.3961729,1.5521,0.3094743,-0.403885,1.553,0.08255649,0.0187894,1.685162,0.07553206,-0.3088889,1.66277,-0.08631145,0.1911965,1.659197,-0.008770195,-0.3023568,1.624452,-0.1325026,-0.09272851,1.632833,0.2966316,-0.08227045,1.634464,NA,NA,NotTracked,NotTracked,
0.9633789,-0.2807617,-0.007324219,0.9287109,0.2641602,0.1333008,-1,-3,-1,-2,0,1,1,1,1,-1,-2,-2,-1,-3,1,-1,2.3125,2.3125,2.3125,-0.8125,-0.8125,-0.8125,2.415194,2.952574,4.475351,6.709215,2.993195,9.988463,-0.1192969,-0.410378,1.562017,0.2689787,-0.4091988,1.552754,0.09442054,0.4903618,1.690157,-0.1684557,-0.412152,1.564706,0.3096627,-0.424894,1.547786,0.08256184,0.01876071,1.685244,0.07552078,-0.308913,1.662762,-0.08608818,0.1911795,1.659457,-0.008785328,-0.3023875,1.624456,-0.1325212,-0.09240197,1.632827,0.2966708,-0.08226752,1.6345,NA,NA,NotTracked,NotTracked,
0.9633789,-0.2807617,-0.007324219,0.9277344,0.2578125,0.1450195,-1,-3,-1,-2,0,1,1,1,-4,-1,-3,-2,-2,-1,-1,-19,2.3125,2.3125,2.3125,0.0625,0.0625,0.0625,2.415194,2.952574,4.475351,6.70909,2.993518,9.988267,-0.1194355,-0.4097498,1.562408,0.2689182,-0.4084934,1.552826,0.09459293,0.4903156,1.691306,-0.1664988,-0.4028632,1.559187,0.3106271,-0.4137517,1.554317,0.0826057,0.0187531,1.685412,0.07553207,-0.3089258,1.662756,-0.08596567,0.1908587,1.659969,-0.008780228,-0.3023964,1.624449,-0.1325156,-0.09226953,1.632897,0.2966905,-0.08224294,1.634638,NA,NA,NotTracked,NotTracked,
0.9633789,-0.2807617,-0.007324219,0.9335938,0.2680664,0.1391602,-1,-3,-1,-2,0,1,1,1,-1,-3,-2,-1,0,0,-2,0,2.3125,2.3125,2.3125,0.8125,0.8125,0.8125,2.415194,2.952574,4.475351,6.711797,2.993637,9.987309,-0.1196444,-0.4102497,1.563957,0.2688055,-0.4085419,1.553778,0.09458773,0.4901736,1.692156,-0.1666692,-0.4021439,1.56034,0.3105904,-0.4133481,1.55258,0.0826499,0.01879412,1.685648,0.07553891,-0.3089059,1.662814,-0.0859846,0.1908095,1.660597,-0.008774678,-0.3023931,1.624535,-0.1323701,-0.09225703,1.633105,0.2967442,-0.08233305,1.635015,NA,NA,NotTracked,NotTracked,
0.9633789,-0.2807617,-0.007324219,0.9213867,0.2661133,0.1352539,-1,-3,-1,-2,0,1,1,1,-10,-3,-1,1,-2,-3,2,0,2.3125,2.3125,2.3125,0.625,0.625,0.625,2.415194,2.952574,4.475351,6.711797,2.993637,9.987309,-0.1190795,-0.4098577,1.563693,0.2687993,-0.4091197,1.554156,0.09463199,0.4902838,1.693164,-0.1670981,-0.4122655,1.569333,0.3112888,-0.4135895,1.554307,0.08273511,0.01884316,1.686033,0.07559042,-0.3088621,1.662971,-0.08578746,0.1908656,1.661177,-0.008720888,-0.3023678,1.624749,-0.1323072,-0.09221754,1.633298,0.2968386,-0.08221423,1.63533,NA,NA,NotTracked,NotTracked,
0.9633789,-0.2807617,-0.007324219,1.009766,0.3569336,0.1157227,-1,-3,-1,-2,0,1,1,1,8,-11,-8,-7,18,7,2,3,2.3125,2.3125,2.3125,0.5,0.5,0.5,2.415194,2.952574,4.475351,6.721743,2.999464,9.978909,-0.1183201,-0.406761,1.563093,0.2669476,-0.4055859,1.549427,0.09463465,0.4903115,1.694049,-0.1673912,-0.410023,1.565403,0.3046108,-0.4222926,1.540136,0.08279496,0.01885236,1.68631,0.07563063,-0.3088605,1.663084,-0.08578838,0.19082,1.661563,-0.00870445,-0.3023794,1.624883,-0.1321413,-0.09198035,1.633403,0.2970147,-0.08180469,1.636114,NA,NA,NotTracked,NotTracked,
0.9633789,-0.2807617,-0.007324219,1.18457,0.4868164,0.3764648,-1,-3,-1,-2,0,1,1,1,3,-6,4,3,-3,-8,-5,-2,2.3125,2.3125,2.3125,19.75,19.75,19.75,2.415194,2.952574,4.475351,6.5476,3.117039,0.1708853,-0.1150741,-0.403192,1.557266,0.2544095,-0.3989376,1.52477,0.09472888,0.4902579,1.695472,-0.1602221,-0.3924944,1.547938,0.292431,-0.3910471,1.500763,0.08291174,0.01895071,1.686873,0.07561604,-0.3085552,1.663582,-0.08579673,0.1911815,1.66259,-0.008733727,-0.3021174,1.6253,-0.1318005,-0.09068859,1.633315,0.2987642,-0.07991547,1.639675,NA,NA,NotTracked,Unknown,
0.9633789,-0.2807617,-0.007324219,1.076172,0.6899414,0.6967773,-1,-3,-1,-2,0,1,1,1,-8,-1,-3,2,-2,-8,2,-1,2.3125,2.3125,2.3125,87.875,87.875,87.875,2.415194,2.952574,4.475351,6.422763,3.373328,0.4285941,-0.1033864,-0.3920347,1.540285,0.2212693,-0.3432565,1.475283,0.09482223,0.4904124,1.696556,-0.1465181,-0.3812214,1.522327,0.2492796,-0.3463153,1.431611,0.08267249,0.0193793,1.687331,0.07463523,-0.307428,1.664116,-0.08544759,0.1917328,1.663162,-0.009923045,-0.3008736,1.625867,-0.1309635,-0.08261569,1.629282,0.3028547,-0.07368146,1.644321,NA,NA,NotTracked,Unknown,
0.9633789,-0.2807617,-0.007324219,0.8457031,0.7407227,0.7719727,-1,-3,-1,-2,0,1,1,1,0,-3,-18,-4,18,-1,-8,-2,2.3125,2.3125,2.3125,118.25,118.25,118.25,2.415194,2.952574,4.475351,6.453214,3.772392,0.6572392,-0.08112974,-0.3724835,1.516666,0.1485791,-0.2487188,1.449348,0.09488226,0.4902961,1.69742,-0.1199126,-0.4089782,1.503786,0.156009,-0.2243139,1.393696,0.08235238,0.02000904,1.687772,0.07263934,-0.3056126,1.664208,-0.08430856,0.1925875,1.663386,-0.01237422,-0.2982505,1.625812,-0.1264157,-0.07921389,1.615562,0.3101242,-0.04777943,1.643367,NA,NA,Closed,Unknown,
0.9633789,-0.2807617,-0.007324219,0.3549805,0.5595703,0.753418,-1,-3,-1,-2,0,1,1,1,-11,10,9,-3,-16,8,14,-26,2.3125,2.3125,2.3125,80.875,80.875,80.875,2.415194,2.952574,4.475351,6.454994,4.443548,0.9963067,-0.04591882,-0.3597708,1.494641,0.0820297,-0.1172756,1.433512,0.09505266,0.4904365,1.697978,-0.07041389,-0.3473553,1.448952,0.08474551,-0.1035779,1.378899,0.08429066,0.02114474,1.689889,0.07648128,-0.3036215,1.666231,-0.08252182,0.1942968,1.663511,-0.008168404,-0.2976853,1.62692,-0.1176134,-0.06960312,1.600582,0.3209117,-0.03835277,1.622149,NA,NA,Closed,Unknown,
0.9633789,-0.2807617,-0.007324219,0.01269531,0.6230469,0.6953125,-1,-3,-1,-2,0,1,1,1,8,-11,-13,-2,17,-1,-6,10,2.3125,2.3125,2.3125,67.3125,67.3125,67.3125,2.415194,2.952574,4.475351,6.527693,4.95028,1.259492,-0.007400281,-0.3466837,1.481851,0.03139684,-0.006936231,1.449506,0.09548747,0.49029,1.699277,-0.04216188,-0.3904065,1.4791,0.07954112,-0.0007523258,1.413865,0.0849553,0.02294922,1.692721,0.07664321,-0.3000884,1.66861,-0.0806219,0.1961406,1.663733,-0.007507586,-0.2939897,1.629128,-0.103965,-0.06385433,1.587519,0.3491431,-0.03852214,1.593186,NA,NA,Closed,Unknown,
0.9633789,-0.2807617,-0.007324219,-0.1538086,0.5385742,0.5517578,-1,-3,-1,-2,0,1,1,1,-6,-8,-4,-10,-6,1,2,-4,2.3125,2.3125,2.3125,51,51,51,2.415194,2.952574,4.475351,6.639255,5.364298,1.546316,0.02175781,-0.3264619,1.4774,-0.01321925,0.0884793,1.482159,0.09639517,0.4897467,1.70109,-0.0103252,-0.3622371,1.468143,-0.02244484,0.06216609,1.42575,0.08529302,0.02367593,1.695058,0.07622177,-0.2986279,1.670156,-0.08033697,0.1993099,1.655851,-0.00748225,-0.2924559,1.631043,-0.09355506,-0.05451689,1.57825,0.279661,-0.01504117,1.540881,NA,NA,Closed,Unknown,
0.9633789,-0.2807617,-0.007324219,-0.1533203,0.5927734,0.4785156,-1,-3,-1,-2,0,1,1,1,8,21,14,8,19,6,-1,-2,2.3125,2.3125,2.3125,33.8125,33.8125,33.8125,2.415194,2.952574,4.475351,6.793046,5.633158,1.855919,0.04128764,-0.3219326,1.517188,-0.02064921,0.1171523,1.52289,0.09738071,0.4891778,1.703483,-0.02201449,-0.3531081,1.550504,0.009694401,0.1372731,1.476157,0.08531731,0.02429857,1.69778,0.07542515,-0.2977013,1.671941,-0.07817173,0.2012142,1.648709,-0.007839511,-0.2914094,1.632181,-0.09002559,-0.04924716,1.576568,0.2630765,-0.006689744,1.521079,NA,NA,Closed,Unknown,
0.9633789,-0.2807617,-0.007324219,-0.05859375,0.6943359,0.2617188,-1,-3,-1,-2,0,1,1,1,-9,-6,-6,-4,-1,5,4,-2,2.3125,2.3125,2.3125,-3.0625,-3.0625,-3.0625,2.415194,2.952574,4.475351,7.001633,5.791073,2.23936,0.05140888,-0.3167886,1.518534,-0.01260367,0.1196635,1.545165,0.09845944,0.4888419,1.705109,-0.01405799,-0.3447298,1.548324,-0.04638281,0.05988128,1.555789,0.08524759,0.02443345,1.69982,0.07429679,-0.2974571,1.674222,-0.07500139,0.1997392,1.639496,-0.008444485,-0.2911668,1.633982,-0.08700612,-0.04233928,1.573581,0.2433135,0.003502215,1.504567,NA,NA,Closed,Unknown,
0.9633789,-0.2807617,-0.007324219,0.07519531,0.7573242,0.0625,-1,-3,-1,-2,0,1,1,1,-7,-5,-2,-2,0,-5,-5,3,2.3125,2.3125,2.3125,-5.9375,-5.9375,-5.9375,2.415194,2.952574,4.475351,7.145686,5.780569,2.51497,0.05277082,-0.3157812,1.51779,0.001091903,0.1125937,1.551857,0.0992488,0.4889702,1.7069,-0.00652521,-0.3604931,1.543524,-0.04905431,0.05651246,1.55251,0.08558471,0.02486744,1.700978,0.07432532,-0.2967641,1.675532,-0.07532527,0.1992381,1.637233,-0.008279853,-0.2906061,1.635323,-0.08554863,-0.0405248,1.571846,0.2368314,0.007061991,1.499418,NA,NA,Closed,NotTracked,
0.9633789,-0.2807617,-0.007324219,-0.1850586,0.8632813,0.09228516,-1,-3,-1,-2,0,1,1,1,2,-2,-6,-5,-29,-7,11,40,2.3125,2.3125,2.3125,-24.125,-24.125,-24.125,2.415194,2.952574,4.475351,7.160612,5.732589,2.568553,0.04938191,-0.316455,1.517804,0.003917578,0.1130844,1.553628,0.09937804,0.4891031,1.708346,-0.01569008,-0.3569738,1.544361,-0.04896713,0.05706935,1.555123,0.08592292,0.02513465,1.701615,0.07484099,-0.2963306,1.676058,-0.07561968,0.1990532,1.637019,-0.007643756,-0.2902217,1.635913,-0.08509007,-0.03929309,1.571637,0.2342938,0.008098079,1.497472,NA,NA,Closed,NotTracked,
0.9633789,-0.2807617,-0.007324219,-0.2880859,0.8901367,0.3569336,-1,-3,-1,-2,0,1,1,1,-1,-2,-2,-13,-20,-1,-2,-3,2.3125,2.3125,2.3125,1.125,1.125,1.125,2.415194,2.952574,4.475351,7.101329,5.700605,2.517436,0.04256904,-0.317697,1.520096,0.01816756,0.1133387,1.549398,0.09890061,0.4891049,1.709453,-0.03193898,-0.337023,1.552697,0.07380868,0.06925298,1.470529,0.08617105,0.02526202,1.701938,0.0751444,-0.2961273,1.67615,-0.07582579,0.1987961,1.637251,-0.007438554,-0.2901691,1.636128,-0.08523531,-0.03906675,1.572426,0.23576,0.007647425,1.497308,NA,NA,Closed,NotTracked,
0.9633789,-0.2807617,-0.007324219,-0.503418,0.8867188,0.2885742,-1,-3,-1,-2,0,1,1,1,6,1,-1,-1,21,-6,-10,7,2.3125,2.3125,2.3125,4.8125,4.8125,4.8125,2.415194,2.952574,4.475351,7.065991,5.711767,2.445174,0.03341766,-0.320118,1.522268,0.01449786,0.1141603,1.552794,0.09753825,0.4890975,1.71007,-0.04204675,-0.3388728,1.555937,0.01681322,0.04136645,1.549803,0.08617354,0.02528396,1.70191,0.07539751,-0.2960245,1.675636,-0.07590575,0.1986317,1.637476,-0.007353421,-0.2902041,1.635971,-0.08525456,-0.03970773,1.572912,0.243534,0.006195511,1.497974,NA,NA,Closed,NotTracked,
0.9633789,-0.2807617,-0.007324219,-0.4667969,0.8071289,0.2758789,-1,-3,-1,-2,0,1,1,1,-1,0,4,9,5,9,4,-2,2.3125,2.3125,2.3125,24.6875,24.6875,24.6875,2.415194,2.952574,4.475351,7.053569,5.746236,2.36056,0.00896277,-0.3354287,1.487485,0.0199707,0.1149254,1.55212,0.09585515,0.4892373,1.710468,-0.01195932,-0.3339224,1.450866,0.0102923,0.04525584,1.553238,0.08613647,0.02534628,1.701844,0.075552,-0.2958887,1.675092,-0.07598681,0.1984793,1.637992,-0.007326904,-0.2902319,1.635795,-0.08597407,-0.03990173,1.574259,0.2555621,0.002287568,1.502615,NA,NA,Closed,NotTracked,
0.9633789,-0.2807617,-0.007324219,-0.5859375,0.7641602,0.2651367,-1,-3,-1,-2,0,1,1,1,-5,-4,-4,2,-27,-15,-6,-9,2.3125,2.3125,2.3125,36.25,36.25,36.25,2.415194,2.952574,4.475351,6.98508,5.842067,2.191404,0.006724609,-0.3354895,1.488564,-0.004182368,0.1391186,1.559211,0.09385272,0.489588,1.710726,-0.03207226,-0.3652391,1.476462,-0.05275584,0.1070712,1.53325,0.08574703,0.02542951,1.701678,0.07543408,-0.2958157,1.674429,-0.07622533,0.1983056,1.638731,-0.007464175,-0.2903039,1.635482,-0.08692628,-0.0401912,1.575562,0.2644535,0.0006214902,1.505451,NA,NA,Closed,NotTracked,
0.9633789,-0.2807617,-0.007324219,-0.831543,0.6953125,0.2338867,-1,-3,-1,-2,0,1,1,1,0,1,-2,-2,-2,-2,1,-2,2.3125,2.3125,2.3125,22.5625,22.5625,22.5625,2.415194,2.952574,4.475351,6.970318,5.933155,2.064163,0.008012861,-0.3353015,1.486941,0.007798401,0.1471626,1.538927,0.09241823,0.489352,1.711146,-0.02828651,-0.3650464,1.4658,-0.01861838,0.1329549,1.487943,0.08520618,0.02527728,1.701493,0.07503974,-0.2962046,1.673633,-0.07604751,0.1981208,1.639063,-0.007868538,-0.2906625,1.635073,-0.08774009,-0.0407218,1.576215,0.2695997,-0.0009470156,1.508341,NA,NA,Closed,Unknown,
0.9633789,-0.2807617,-0.007324219,-0.8227539,0.6884766,0.331543,-1,-3,-1,-2,0,1,1,1,0,10,-1,3,-3,5,1,0,2.3125,2.3125,2.3125,25.3125,25.3125,25.3125,2.415194,2.952574,4.475351,6.965571,5.970621,1.976239,0.00855105,-0.3349424,1.485585,-0.03701898,0.1552729,1.554754,0.09128053,0.4887289,1.711723,-0.0105881,-0.3254318,1.448731,-0.07884841,0.1295599,1.563667,0.08492428,0.02502599,1.701499,0.07481802,-0.2966917,1.672965,-0.07596866,0.198023,1.639167,-0.00816579,-0.2910614,1.634577,-0.08837886,-0.04101616,1.576469,0.2709155,-0.00070523,1.508726,NA,NA,Closed,NotTracked,
0.9633789,-0.2807617,-0.007324219,-0.703125,0.7124023,0.4306641,-1,-3,-1,-2,0,1,1,1,-2,-3,1,1,-6,-4,2,-4,2.3125,2.3125,2.3125,-4.3125,-4.3125,-4.3125,2.415194,2.952574,4.475351,6.958787,5.979854,1.979148,0.01144676,-0.3334521,1.483774,0.0053257,0.1662512,1.524295,0.09113201,0.4885707,1.712027,-0.01142899,-0.3523964,1.449313,0.01768138,0.1859592,1.474634,0.08482485,0.02495014,1.701496,0.07504055,-0.2969368,1.672408,-0.07565584,0.1980005,1.638869,-0.008005949,-0.2915567,1.633286,-0.0886347,-0.04133335,1.576184,0.2695784,0.001383614,1.506084,NA,NA,Closed,Unknown,
0.9633789,-0.2807617,-0.007324219,-0.7407227,0.7719727,0.328125,-1,-3,-1,-2,0,1,1,1,-1,-1,-2,-1,-8,-9,-14,-6,2.3125,2.3125,2.3125,-53.875,-53.875,-53.875,2.415194,2.952574,4.475351,6.943881,6.004425,2.059877,0.01497427,-0.3323773,1.481654,0.004651159,0.1676515,1.531121,0.09126193,0.4883649,1.712124,-0.006843387,-0.3165962,1.441333,0.05024295,0.1774274,1.469399,0.08489504,0.02489074,1.701431,0.07556243,-0.297116,1.671814,-0.07418462,0.1971326,1.635468,-0.007448077,-0.2918418,1.6313,-0.08848406,-0.04149475,1.575215,0.2626124,0.006582353,1.498694,NA,NA,Closed,Unknown,
0.9633789,-0.2807617,-0.007324219,-0.4667969,0.7607422,0.3789063,-1,-3,-1,-2,0,1,1,1,5,2,0,-6,14,6,9,5,2.3125,2.3125,2.3125,-62.1875,-62.1875,-62.1875,2.415194,2.952574,4.475351,6.895518,5.99229,2.159175,0.01854581,-0.3315449,1.47967,-0.0103885,0.1760285,1.538003,0.09181492,0.4880897,1.712409,-0.006601174,-0.3086439,1.441231,-0.03466587,0.1228381,1.573279,0.08501338,0.02496175,1.70141,0.07624665,-0.2969058,1.671317,-0.07269777,0.1965276,1.631298,-0.006825534,-0.2914499,1.629994,-0.08812488,-0.04111136,1.574061,0.2535895,0.01195924,1.492159,NA,NA,Closed,NotTracked,
0.9633789,-0.2807617,-0.007324219,-0.4667969,0.7607422,0.3789063,-1,-3,-1,-2,0,1,1,1,-5,-2,1,15,5,-10,-13,-6,2.3125,2.3125,2.3125,-62.1875,-62.1875,-62.1875,2.415194,2.952574,4.475351,6.895518,5.99229,2.159175,0.02155196,-0.3313993,1.478156,-0.02309719,0.1698603,1.545294,0.09236404,0.4877032,1.712742,-0.0009777852,-0.3477136,1.444018,-0.04482992,0.1109685,1.570586,0.08520106,0.02500896,1.69997,0.07689165,-0.2966306,1.671011,-0.07250021,0.1959976,1.628066,-0.006343575,-0.2912042,1.629584,-0.08802167,-0.04097497,1.573393,0.245147,0.01781826,1.48573,NA,NA,Closed,NotTracked,
0.9633789,-0.2807617,-0.007324219,-0.3491211,0.6337891,0.3295898,-1,-3,-1,-2,0,1,1,1,1,0,0,0,-10,-38,2,-21,2.3125,2.3125,2.3125,-43.875,-43.875,-43.875,2.415194,2.952574,4.475351,6.873765,5.921012,2.311792,0.02233853,-0.3315513,1.477364,-0.03113182,0.1560908,1.551241,0.09291993,0.4873649,1.713244,-0.003081184,-0.3647938,1.445482,0.03041646,0.1915658,1.58,0.08535016,0.02509987,1.700045,0.07715342,-0.2963419,1.670835,-0.07275599,0.1961636,1.627909,-0.006153126,-0.2910237,1.629675,-0.08798745,-0.04061688,1.572843,0.2371519,0.02355534,1.4799,NA,NA,Closed,NotTracked,
0.9633789,-0.2807617,-0.007324219,-0.1870117,0.8051758,0.2602539,-1,-3,-1,-2,0,1,1,1,6,-3,-10,-16,10,15,0,-2,2.3125,2.3125,2.3125,-9.9375,-9.9375,-9.9375,2.415194,2.952574,4.475351,6.858927,5.63116,2.39273,0.02186277,-0.3322605,1.477332,-0.03434461,0.1425021,1.544507,0.09306837,0.4873543,1.713314,-0.002984273,-0.3550493,1.445264,0.01535742,0.1833527,1.576073,0.08549468,0.02527667,1.70005,0.0774883,-0.2959108,1.670497,-0.07407394,0.1970676,1.629593,-0.005891854,-0.2907792,1.629853,-0.08777172,-0.04059825,1.572218,0.2344504,0.02558885,1.477493,NA,NA,Closed,NotTracked,
0.9633789,-0.2807617,-0.007324219,-0.2749023,0.8027344,0.5092773,-1,-3,-1,-2,0,1,1,1,3,-4,-2,0,-8,-20,10,20,2.3125,2.3125,2.3125,-7.1875,-7.1875,-7.1875,2.415194,2.952574,4.475351,6.838058,5.475502,2.359035,0.01843408,-0.3329811,1.478323,-0.03978553,0.1149971,1.546907,0.09322263,0.4874255,1.713462,-0.01113401,-0.355482,1.446853,0.003286654,0.1734924,1.573728,0.08549017,0.02592197,1.700011,0.07751628,-0.2938066,1.669768,-0.07656629,0.2000028,1.638146,-0.005726901,-0.2890572,1.630009,-0.08772638,-0.04075808,1.572043,0.2360598,0.02878994,1.48086,NA,NA,Closed,NotTracked,
0.9633789,-0.2807617,-0.007324219,-0.2773438,1.03125,0.4047852,-1,-3,-1,-2,0,1,1,1,-1,1,2,-3,-3,-2,10,5,2.3125,2.3125,2.3125,2.625,2.625,2.625,2.415194,2.952574,4.475351,6.835637,5.315721,2.345125,0.01472844,-0.3345457,1.479691,-0.03503714,0.09936762,1.535226,0.09322797,0.4873944,1.713466,-0.0240671,-0.3626337,1.472286,-0.002775807,0.1482231,1.565925,0.08539606,0.02603144,1.699907,0.07739739,-0.2937044,1.669314,-0.07767493,0.1997024,1.639003,-0.005782212,-0.2889943,1.629988,-0.08775864,-0.04156549,1.571145,0.2378664,0.02810987,1.478238,NA,NA,Closed,Unknown,
0.9633789,-0.2807617,-0.007324219,-0.1391602,1.033691,0.5307617,-1,-3,-1,-2,0,1,1,1,-3,-5,-2,0,-6,-5,5,29,2.3125,2.3125,2.3125,7.875,7.875,7.875,2.415194,2.952574,4.475351,6.823446,5.200003,2.310651,0.01196378,-0.3365923,1.481093,-0.03665794,0.09007555,1.534765,0.09320672,0.4872911,1.713627,-0.02465518,-0.3712511,1.459,-0.00808095,0.14105,1.566475,0.08534994,0.02630693,1.699946,0.07749412,-0.2931801,1.668973,-0.07850165,0.1985751,1.642825,-0.0056574,-0.288751,1.63009,-0.08767857,-0.04186913,1.570869,0.2396583,0.02967226,1.48065,NA,NA,Closed,Unknown,
0.9633789,-0.2807617,-0.007324219,-0.1962891,0.9384766,0.4897461,-1,-3,-1,-2,0,1,1,1,-16,0,3,10,-3,-8,-21,4,2.3125,2.3125,2.3125,-3.8125,-3.8125,-3.8125,2.415194,2.952574,4.475351,6.812028,5.202319,2.307969,0.01135346,-0.3373875,1.482234,-0.03709131,0.08949514,1.537058,0.09315704,0.4871261,1.713636,-0.009368699,-0.3131435,1.443917,-0.0094076,0.1426636,1.56622,0.08537558,0.02643222,1.69984,0.07757296,-0.2927794,1.668569,-0.07870527,0.1980649,1.644261,-0.005578684,-0.2886168,1.629999,-0.08744331,-0.04269559,1.569991,0.240086,0.03052017,1.481859,NA,NA,Closed,Unknown,
0.9633789,-0.2807617,-0.007324219,-0.1264648,0.8637695,0.3530273,-1,-3,-1,-2,0,1,1,1,-9,0,-4,-3,-7,-10,-7,-10,2.3125,2.3125,2.3125,-0.625,-0.625,-0.625,2.415194,2.952574,4.475351,6.820178,5.224082,2.308596,0.0123932,-0.3365811,1.479219,-0.03835374,0.08853664,1.534875,0.09310468,0.4871298,1.713562,-0.01495779,-0.3559204,1.446941,-0.009358232,0.1436272,1.564672,0.08539134,0.02668902,1.699604,0.07761834,-0.2923669,1.668107,-0.07873406,0.1977158,1.644901,-0.005506109,-0.2883719,1.629875,-0.08755165,-0.04304412,1.569158,0.239866,0.03082215,1.482382,NA,NA,Closed,Unknown,
0.9633789,-0.2807617,-0.007324219,-0.1123047,0.8798828,0.4145508,-1,-3,-1,-2,0,1,1,1,2,2,3,3,10,15,19,-8,2.3125,2.3125,2.3125,-4.1875,-4.1875,-4.1875,2.415194,2.952574,4.475351,6.816053,5.218775,2.304672,0.01336991,-0.3367926,1.47829,-0.03795067,0.08797923,1.534669,0.09310687,0.4871704,1.713515,-0.0124641,-0.3505987,1.444889,-0.01458919,0.03896802,1.557449,0.08543028,0.02688768,1.699484,0.07778615,-0.2920942,1.667759,-0.07892823,0.1970889,1.646068,-0.005367593,-0.2881936,1.629792,-0.08759596,-0.04283322,1.568723,0.239992,0.03103439,1.482884,NA,NA,Closed,Unknown,
0.9633789,-0.2807617,-0.007324219,-0.1269531,0.9072266,0.4360352,-1,-3,-1,-2,0,1,1,1,-1,-1,-2,-4,-3,-34,1,-5,2.3125,2.3125,2.3125,-8.3125,-8.3125,-8.3125,2.415194,2.952574,4.475351,6.801146,5.209939,2.299456,0.01323758,-0.336514,1.477825,-0.03812286,0.0875807,1.535705,0.09312427,0.4871292,1.713457,-0.005108557,-0.3103873,1.437786,-0.007495072,0.1423841,1.564311,0.08532416,0.02689748,1.699255,0.07765929,-0.292262,1.667226,-0.07889932,0.1967181,1.646527,-0.005447041,-0.2882699,1.629553,-0.08722354,-0.043461,1.567896,0.2401444,0.0284319,1.480931,NA,NA,Closed,Unknown,
0.9633789,-0.2807617,-0.007324219,-0.1674805,0.902832,0.4223633,-1,-3,-1,-2,0,1,1,1,-11,-4,3,6,13,20,-6,-16,2.3125,2.3125,2.3125,-6.6875,-6.6875,-6.6875,2.415194,2.952574,4.475351,6.789419,5.208776,2.295049,0.01284199,-0.3364969,1.477248,-0.03754414,0.086831,1.534623,0.0930992,0.4871129,1.713434,-0.01208665,-0.3476091,1.441595,-0.006854737,0.1426324,1.563992,0.08533783,0.02688499,1.699091,0.07758758,-0.2924314,1.666855,-0.07884537,0.1960179,1.646794,-0.00551562,-0.2884685,1.629279,-0.08736913,-0.04344751,1.567632,0.2405218,0.02703195,1.480638,NA,NA,Closed,Unknown,
0.9633789,-0.2807617,-0.007324219,-0.152832,0.8847656,0.4199219,-1,-3,-1,-2,0,1,1,1,1,0,-1,-1,-6,-6,1,0,2.3125,2.3125,2.3125,-5.375,-5.375,-5.375,2.415194,2.952574,4.475351,6.782959,5.208287,2.289743,0.01101133,-0.3371954,1.47862,-0.03821944,0.08377873,1.5347,0.09317578,0.487076,1.713354,-0.01400307,-0.3562146,1.445696,-0.007175836,0.1405602,1.563802,0.08520271,0.02688702,1.69892,0.07736203,-0.2924674,1.666562,-0.07878382,0.1960051,1.647227,-0.005719652,-0.2884172,1.629068,-0.08730491,-0.0435302,1.567331,0.240826,0.02609175,1.481035,NA,NA,Unknown,Unknown,
0.9633789,-0.2807617,-0.007324219,0.02294922,0.8076172,0.3476563,-1,-3,-1,-2,0,1,1,1,-2,-1,-3,-3,-3,-5,0,3,2.3125,2.3125,2.3125,-15.6875,-15.6875,-15.6875,2.415194,2.952574,4.475351,6.751475,5.210437,2.261751,0.009526469,-0.3371282,1.477521,-0.03842845,0.08332671,1.53175,0.09324522,0.4871539,1.713196,-0.01379185,-0.3233258,1.438667,-0.005143744,0.1408497,1.563194,0.08512717,0.02694499,1.698665,0.07721008,-0.2925088,1.666218,-0.07883499,0.1960863,1.647688,-0.005842869,-0.288421,1.628835,-0.08773392,-0.04336936,1.566678,0.2419186,0.02251999,1.481783,NA,NA,Closed,Unknown,
0.9633789,-0.2807617,-0.007324219,0.1640625,0.628418,0.3129883,-1,-3,-1,-2,0,1,1,1,-3,-5,-2,-4,-6,-6,-8,-15,2.3125,2.3125,2.3125,-25.4375,-25.4375,-25.4375,2.415194,2.952574,4.475351,6.711333,5.227023,2.203669,0.006653124,-0.3382262,1.473698,-0.03227363,0.07640358,1.52158,0.09316342,0.4873587,1.712885,-0.0309752,-0.3666272,1.453923,0.005102547,0.1351061,1.557092,0.08461089,0.02708157,1.698075,0.07673418,-0.2924644,1.665746,-0.07967587,0.1976445,1.647707,-0.006244716,-0.288235,1.628656,-0.08836371,-0.04492703,1.566007,0.2495821,0.01377521,1.489974,NA,NA,Closed,Unknown,
0.9633789,-0.2807617,-0.007324219,0.005371094,0.487793,0.2895508,-1,-3,-1,-2,0,1,1,1,0,1,1,3,0,-2,-1,-4,2.3125,2.3125,2.3125,-52.5,-52.5,-52.5,2.415194,2.952574,4.475351,6.6165,5.243083,2.044228,0.001493105,-0.3446979,1.471955,-0.01687721,0.03301166,1.4973,0.09246259,0.487632,1.712317,-0.03727994,-0.3676956,1.452476,0.01844011,0.09489273,1.547618,0.0836749,0.02668339,1.69717,0.07595921,-0.2931536,1.665207,-0.08029414,0.1980809,1.648107,-0.006916839,-0.2886069,1.628394,-0.09086561,-0.06373107,1.565027,0.2667353,-0.006922806,1.516664,NA,NA,Closed,Unknown,
0.9633789,-0.2807617,-0.007324219,0.05615234,0.5151367,0.5375977,-1,-3,-1,-2,0,1,1,1,-14,1,3,1,-4,-1,2,-3,2.3125,2.3125,2.3125,-46.3125,-46.3125,-46.3125,2.415194,2.952574,4.475351,6.483556,4.996097,1.719853,-0.009024458,-0.3595975,1.47073,0.007003327,-0.05027539,1.469727,0.09078741,0.4880422,1.710957,-0.04795999,-0.3838239,1.458372,0.01866517,0.008571094,1.533806,0.0826708,0.02656629,1.694884,0.07540323,-0.2933612,1.663167,-0.082195,0.1971119,1.658425,-0.007717219,-0.2884865,1.62661,-0.1035151,-0.0544711,1.578095,0.2764419,-0.01877644,1.540893,NA,NA,Closed,Unknown,
0.9633789,-0.2807617,-0.007324219,0.1396484,0.7167969,0.6381836,-1,-3,-1,-2,0,1,1,1,5,4,5,1,-10,1,5,0,2.3125,2.3125,2.3125,-59.6875,-59.6875,-59.6875,2.415194,2.952574,4.475351,6.413108,4.618638,1.49357,-0.03173472,-0.3679577,1.480653,0.0421591,-0.1823341,1.425156,0.08862835,0.4885012,1.708901,-0.07421583,-0.3863534,1.475833,-0.03321098,-0.1880066,1.468,0.08189796,0.02605127,1.692425,0.07518112,-0.294388,1.661406,-0.08324657,0.1965362,1.657972,-0.007930769,-0.2893678,1.624661,-0.1108983,-0.05099651,1.585243,0.2857054,-0.02864665,1.563423,NA,NA,Closed,NotTracked,
0.9633789,-0.2807617,-0.007324219,0.6362305,0.9863281,0.8466797,-1,-3,-1,-2,0,1,1,1,-8,-5,0,3,6,6,-1,-1,2.3125,2.3125,2.3125,-63.1875,-63.1875,-63.1875,2.415194,2.952574,4.475351,6.454578,4.20135,1.252949,-0.05881065,-0.3800587,1.497909,0.1145427,-0.2786315,1.423601,0.08653419,0.4887629,1.705799,-0.09326246,-0.3837507,1.47147,0.1440064,-0.3156672,1.4278,0.08080555,0.02510852,1.689938,0.07481034,-0.2959493,1.660625,-0.08395036,0.1962384,1.659616,-0.00926966,-0.2906353,1.623809,-0.1159598,-0.05882026,1.590312,0.2895727,-0.03397749,1.580207,NA,NA,NotTracked,Unknown,
0.9633789,-0.2807617,-0.007324219,0.9223633,0.4912109,0.5131836,-1,-3,-1,-2,0,1,1,1,2,1,5,0,-7,-1,1,0,2.3125,2.3125,2.3125,-18.625,-18.625,-18.625,2.415194,2.952574,4.475351,6.505449,3.82312,1.003494,-0.08619516,-0.3940366,1.520654,0.1776001,-0.3558063,1.452813,0.08494455,0.4893912,1.701818,-0.1250195,-0.4088519,1.501547,0.2172163,-0.3848628,1.449889,0.07736224,0.02445443,1.686714,0.06859232,-0.2975382,1.659591,-0.08539609,0.1955249,1.660273,-0.01660692,-0.2914447,1.623398,-0.1225482,-0.07255784,1.598854,0.2887084,-0.0440788,1.588919,NA,NA,Unknown,Unknown,
0.9633789,-0.2807617,-0.007324219,1.039551,0.7241211,0.5043945,-1,-3,-1,-2,0,1,1,1,-4,-1,-1,-2,-4,-2,0,3,2.3125,2.3125,2.3125,-72.4375,-72.4375,-72.4375,2.415194,2.952574,4.475351,6.637732,3.486671,0.7511547,-0.1091122,-0.4013857,1.544748,0.2285716,-0.3918173,1.494728,0.08354301,0.4893966,1.697344,-0.1512624,-0.4033087,1.527974,0.2618712,-0.3893865,1.472511,0.07594702,0.02336737,1.685276,0.06704508,-0.2995774,1.660142,-0.08763781,0.1942641,1.660014,-0.01792166,-0.2935878,1.624217,-0.1297791,-0.08249933,1.60759,0.2900966,-0.05588804,1.595509,NA,NA,Unknown,Unknown,
