ALX,ALY,ALZ,ARX,ARY,ARZ,EMG0L,EMG1L,EMG2L,EMG3L,EMG4L,EMG5L,EMG6L,EMG7L,EMG0R,EMG1R,EMG2R,EMG3R,EMG4R,EMG5R,EMG6R,EMG7R,GLX,GLY,GLZ,GRX,GRY,GRZ,ORL,OPL,OYL,ORR,OPR,OYR,LHNX,LHNY,LHNZ,RHNX,RHNY,RHNZ,HX,HY,HZ,LTX,LTY,LTZ,RTX,RTY,RTZ,SpineMidX,SpineMidY,SpineMidZ,SpineBaseX,SpineBaseY,SpineBaseZ,ShoulderLeftX,ShoulderLeftY,ShoulderLeftZ,ShoulderRightX,ShoulderRightY,ShoulderRightZ,ElbowLeftX,ElbowLeftY,ElbowLeftZ,ElbowRightX,ElbowRightY,ElbowRightZ,Myo_Pose_left,Myo_Pose_Right,Kinect_pose_left,Kinect_pose_right
0.9584961,-0.2866211,0.007324219,0.9492188,0.2124023,0.04492188,-2,-2,-1,1,0,-4,-2,-2,-7,-2,0,-2,-2,0,-1,-3,-4.6875,-4.6875,-4.6875,-2.5,-2.5,-2.5,2.515289,2.969468,5.252409,7.124749,2.858276,9.309725,-0.1238698,-0.398766,1.582291,0.2895173,-0.4230553,1.58589,0.1052909,0.4865578,1.669691,-0.1693209,-0.4116122,1.570353,0.3280053,-0.4259593,1.584204,0.08425422,0.01682402,1.685235,0.07678854,-0.3102548,1.671431,-0.08498577,0.1931036,1.661429,-0.006897666,-0.302894,1.63348,-0.1352961,-0.09136252,1.650482,0.3001532,-0.09255023,1.641226,NA,NA,NotTracked,NotTracked,
0.9492188,-0.2817383,0.009277344,0.9575195,0.2104492,0.04931641,-1,-1,0,-2,-2,-1,-1,-1,11,1,0,0,0,0,2,15,-3.25,-3.25,-3.25,-1.625,-1.625,-1.625,2.512869,2.968699,5.248901,7.119223,2.85928,9.310888,-0.1238975,-0.3980555,1.581964,0.2891018,-0.4228099,1.586052,0.1058943,0.4866025,1.669904,-0.1754343,-0.3691136,1.580134,0.3278926,-0.4254468,1.583141,0.0843299,0.01685278,1.68517,0.07680651,-0.3102246,1.671272,-0.08472744,0.1932546,1.661116,-0.006913434,-0.3028492,1.633277,-0.1354035,-0.0915069,1.65016,0.3002427,-0.09250526,1.641092,NA,NA,NotTracked,NotTracked,
0.9575195,-0.2832031,0.01416016,0.9467773,0.2163086,0.05078125,0,-1,0,-1,-2,-2,-2,-2,1,-2,0,-1,-1,-1,0,0,-3.625,-3.625,-3.625,-0.5625,-0.5625,-0.5625,2.507373,2.968076,5.247022,7.117976,2.85901,9.312112,-0.1234357,-0.3979385,1.580857,0.2892584,-0.4230846,1.585598,0.1064767,0.4865773,1.670359,-0.1685862,-0.4174653,1.5681,0.328191,-0.4212516,1.584135,0.08438203,0.01688109,1.685124,0.07688177,-0.3102122,1.671066,-0.0821537,0.1944878,1.657512,-0.006820903,-0.3028056,1.632965,-0.1354129,-0.09146494,1.649924,0.3003163,-0.09264762,1.640974,NA,NA,NotTracked,NotTracked,
0.9580078,-0.2885742,0.01220703,0.9487305,0.2143555,0.05029297,-1,0,0,-1,0,-2,0,-2,3,1,1,-2,-1,-3,2,5,-2.6875,-2.6875,-2.6875,-1.875,-1.875,-1.875,2.506095,2.968252,5.24299,7.113696,2.858549,9.313483,-0.1237499,-0.3975976,1.580972,0.2891827,-0.422251,1.586273,0.1072785,0.4865988,1.670547,-0.1731335,-0.3759321,1.574643,0.3273547,-0.421147,1.581857,0.08451462,0.01703079,1.685126,0.07693636,-0.3100765,1.671,-0.08214654,0.1945322,1.657569,-0.006775201,-0.3026032,1.632862,-0.1353593,-0.09133539,1.649548,0.3004317,-0.09261608,1.640981,NA,NA,NotTracked,NotTracked,
0.9501953,-0.2836914,0.007324219,0.9492188,0.2133789,0.05126953,-1,-1,-1,-1,-2,-1,0,-1,0,0,-1,0,0,1,0,10,-1.6875,-1.6875,-1.6875,-2.25,-2.25,-2.25,2.504732,2.968007,5.241177,7.108452,2.858634,9.315253,-0.1238199,-0.3977149,1.580518,0.2894997,-0.4221995,1.586796,0.1079081,0.4865921,1.670847,-0.1715088,-0.3813848,1.572716,0.3282514,-0.4253953,1.583416,0.08466174,0.01710705,1.685035,0.07700704,-0.309993,1.670874,-0.08214299,0.1945809,1.657619,-0.006716562,-0.3025013,1.632696,-0.1354795,-0.09126476,1.649154,0.300692,-0.09314621,1.640969,NA,NA,NotTracked,NotTracked,
0.9511719,-0.2900391,0.01416016,0.949707,0.215332,0.05273438,-3,-2,-1,-1,-2,-1,1,-3,-2,-1,-1,0,-1,-1,-3,-3,1.625,1.625,1.625,-1.75,-1.75,-1.75,2.504296,2.968115,5.242688,7.103817,2.858877,9.316923,-0.1238,-0.3975723,1.579883,0.2895826,-0.4224626,1.585972,0.108594,0.4866146,1.671287,-0.1745028,-0.3654293,1.575333,0.328722,-0.4224803,1.584367,0.08480784,0.01716834,1.684954,0.07710288,-0.3099515,1.670795,-0.08036274,0.1956199,1.655183,-0.006626936,-0.3024237,1.632551,-0.1353836,-0.0912204,1.648583,0.3007796,-0.09323037,1.640918,NA,NA,NotTracked,NotTracked,
0.9570313,-0.2871094,0.01513672,0.9521484,0.2167969,0.04980469,-2,-1,-1,-1,-1,-2,-4,-5,1,-1,-2,1,-1,-1,-1,-4,-5.75,-5.75,-5.75,-3,-3,-3,2.500254,2.96744,5.243063,7.099821,2.860058,9.317348,-0.1234112,-0.3976258,1.580068,0.2894314,-0.4226227,1.585467,0.1093232,0.4866366,1.671601,-0.1733371,-0.3765733,1.575755,0.3280324,-0.4288601,1.58107,0.08496785,0.01725269,1.684953,0.07715171,-0.3099069,1.67076,-0.07948165,0.1960665,1.654142,-0.006592069,-0.3023623,1.632521,-0.1351801,-0.09093264,1.64828,0.3009413,-0.09325939,1.640953,NA,NA,NotTracked,NotTracked,
0.9541016,-0.2880859,0.01367188,0.9433594,0.2124023,0.05908203,0,0,-1,-3,-1,-2,-1,1,1,-3,-2,1,1,0,-1,-1,-8.4375,-8.4375,-8.4375,-2.9375,-2.9375,-2.9375,2.498511,2.969338,5.231645,7.089153,2.864719,9.318731,-0.1238459,-0.3979417,1.579261,0.2891834,-0.4228446,1.584555,0.1097208,0.4867,1.671834,-0.1742526,-0.3765049,1.578038,0.3272399,-0.4354262,1.577467,0.08510906,0.01730239,1.684901,0.07726356,-0.3098782,1.670638,-0.07881702,0.1961937,1.653266,-0.006509864,-0.3023362,1.632363,-0.1349956,-0.09102363,1.647863,0.3010996,-0.09294407,1.6409,NA,NA,NotTracked,NotTracked,
0.96875,-0.2939453,0.02050781,0.9458008,0.2172852,0.05957031,-2,-1,2,-1,-3,-4,-2,-1,-2,-2,0,-2,-4,0,0,-3,-7.3125,-7.3125,-7.3125,3.6875,3.6875,3.6875,2.506647,2.97416,5.209428,7.086857,2.867158,9.324196,-0.1236154,-0.396774,1.579098,0.2899193,-0.4227495,1.585347,0.1102264,0.4867413,1.672217,-0.1740255,-0.3682506,1.574419,0.3286115,-0.4259411,1.581815,0.08522312,0.01734683,1.68496,0.07738508,-0.3098587,1.670615,-0.07917293,0.1959787,1.654017,-0.006339484,-0.3023213,1.632275,-0.1348853,-0.09098101,1.647158,0.3013023,-0.09277266,1.640917,NA,NA,NotTracked,NotTracked,
1.011719,-0.328125,0.04101563,0.9541016,0.215332,0.0390625,-1,-6,-8,-4,-2,-2,-1,-2,5,7,-1,1,5,0,4,18,-17.1875,-17.1875,-17.1875,3.6875,3.6875,3.6875,2.528816,2.984944,5.159698,7.101377,2.868348,9.316667,-0.1223454,-0.3965973,1.576258,0.2894768,-0.4244381,1.58365,0.1108685,0.4868142,1.672872,-0.1716299,-0.3801894,1.57222,0.3286331,-0.415161,1.576176,0.08542828,0.01739398,1.684995,0.07756133,-0.3098449,1.670489,-0.07934979,0.1958568,1.654625,-0.006146744,-0.302337,1.6321,-0.1346022,-0.09075587,1.646137,0.3014494,-0.09220368,1.640796,NA,NA,NotTracked,NotTracked,
0.9536133,-0.3457031,0.07470703,0.9960938,0.3076172,0.03173828,0,-7,3,0,1,0,-1,1,9,1,0,0,13,-1,-2,0,-39.125,-39.125,-39.125,-29.25,-29.25,-29.25,2.577913,2.99923,5.061212,7.10152,2.877652,9.298429,-0.1195644,-0.394142,1.571138,0.2891109,-0.423876,1.578353,0.1113696,0.4867332,1.673505,-0.1674807,-0.3618171,1.5614,0.3300406,-0.442702,1.572091,0.08564703,0.01743895,1.685009,0.07785287,-0.3097588,1.670221,-0.07959913,0.1955038,1.655449,-0.00594404,-0.3023007,1.63186,-0.1344791,-0.09019326,1.645067,0.3016128,-0.09187408,1.640988,NA,NA,NotTracked,NotTracked,
0.9287109,-0.4023438,0.1728516,1.066406,0.3886719,0.1499023,-1,0,-3,3,-1,0,1,3,-4,-9,-22,-15,-16,-9,-5,-5,-72.8125,-72.8125,-72.8125,-25.375,-25.375,-25.375,2.637654,3.02694,4.882049,6.902575,2.924886,9.445341,-0.1124187,-0.3871165,1.564394,0.2791658,-0.4182531,1.55516,0.1119699,0.4868759,1.674772,-0.1578697,-0.3718004,1.553025,0.3167249,-0.4552345,1.537727,0.08584902,0.01753721,1.684999,0.07811439,-0.3095777,1.669919,-0.07982974,0.1955151,1.656265,-0.005774411,-0.3021773,1.631544,-0.1339022,-0.08767859,1.642858,0.3025207,-0.09120163,1.642136,NA,NA,NotTracked,NotTracked,
0.9086914,-0.3867188,0.1723633,1.115234,0.3422852,0.4804688,-3,2,13,1,-2,0,-1,-1,3,-1,-8,-5,4,-2,-5,-1,-97.25,-97.25,-97.25,10.375,10.375,10.375,2.764196,3.087507,4.555572,6.551442,3.087761,9.796397,-0.09849553,-0.3726049,1.551566,0.251516,-0.3875988,1.509727,0.1126387,0.4869524,1.67556,-0.1404431,-0.3705155,1.532477,0.2862511,-0.3824258,1.469853,0.08607103,0.01790019,1.685006,0.07837471,-0.3088425,1.669525,-0.07979654,0.19601,1.656889,-0.005636729,-0.3015404,1.631048,-0.132403,-0.08210179,1.635059,0.3051873,-0.08500445,1.64647,NA,NA,NotTracked,Unknown,
0.9331055,-0.3989258,0.2001953,0.956543,0.6455078,0.7163086,-7,-15,-21,-3,1,0,0,-3,-1,1,2,-10,-9,-5,-1,3,-99.25,-99.25,-99.25,109.25,109.25,109.25,2.837025,3.148191,4.307276,6.365754,3.664367,0.2964834,-0.07653641,-0.3656786,1.532461,0.2056846,-0.3071299,1.450247,0.1133964,0.487252,1.676711,-0.1106136,-0.3182077,1.484846,0.2304135,-0.3089555,1.404342,0.08602628,0.01851413,1.685043,0.07689361,-0.3068931,1.668503,-0.07908553,0.1970812,1.657565,-0.007834939,-0.2994209,1.629906,-0.1279933,-0.07739154,1.623349,0.3087816,-0.06741528,1.648898,NA,NA,Unknown,Unknown,
0.9477539,-0.3242188,0.1015625,0.6416016,0.5917969,0.765625,-1,3,5,0,-2,0,-6,6,-1,3,6,0,6,0,1,-1,-118,-118,-118,82.6875,82.6875,82.6875,2.872906,3.23688,4.002947,6.352214,4.13689,0.5553678,-0.04555932,-0.3577731,1.514625,0.1270482,-0.1940751,1.436922,0.1143959,0.4873658,1.677957,-0.08599024,-0.3827254,1.5142,0.1387219,-0.1843,1.37466,0.08660015,0.01908233,1.685606,0.07724711,-0.3060478,1.668495,-0.07717405,0.1987206,1.657524,-0.007892463,-0.2980887,1.629079,-0.1205713,-0.06987644,1.608047,0.3159068,-0.05021467,1.639601,NA,NA,Unknown,Unknown,
0.9042969,-0.3408203,0.03027344,0.07958984,0.6210938,0.7197266,-3,-10,-11,-2,-5,-2,-5,1,4,6,13,11,2,-6,-8,2,-140.5,-140.5,-140.5,92.3125,92.3125,92.3125,2.839569,3.300752,3.781947,6.449731,4.785943,0.9223005,-0.0131678,-0.345996,1.498598,0.06099858,-0.08125696,1.425422,0.1156414,0.4872897,1.679499,-0.0548171,-0.3587666,1.5155,0.0632421,-0.06545634,1.372649,0.08766978,0.02021012,1.686811,0.07836676,-0.3037481,1.669472,-0.07357803,0.200416,1.652636,-0.006556751,-0.2962184,1.629129,-0.1117087,-0.05836796,1.595741,0.3258677,-0.04513268,1.607469,NA,NA,Closed,Unknown,
0.9140625,-0.3725586,0.005371094,-0.1132813,0.5263672,0.5742188,-2,-1,0,5,3,-1,-1,1,2,1,-9,-8,1,-3,-8,5,-153,-153,-153,67.625,67.625,67.625,2.783331,3.351413,3.561359,6.567247,5.20128,1.205698,0.01735192,-0.3423915,1.48895,-0.01027068,0.02180344,1.447156,0.1168219,0.4872836,1.681387,-0.02187094,-0.3675921,1.516,-0.008058592,-0.00469705,1.4,0.08835004,0.02153586,1.688828,0.07817478,-0.3012818,1.671148,-0.07201234,0.2014634,1.652833,-0.006280119,-0.2934271,1.630627,-0.09899908,-0.05931605,1.582938,0.2984805,-0.03475963,1.552943,NA,NA,Closed,Unknown,
0.9018555,-0.4287109,-0.01171875,-0.01953125,0.5683594,0.4921875,2,-1,3,3,-2,1,0,-2,-21,-13,-4,-5,-1,-2,-3,-3,-79.875,-79.875,-79.875,40.5625,40.5625,40.5625,2.700712,3.376486,3.36632,6.705063,5.485859,1.479583,0.03566126,-0.3209322,1.529112,-0.01330983,0.07248209,1.49216,0.1184035,0.4875007,1.683843,-0.03498983,-0.3550947,1.555055,-0.03954455,0.05413335,1.439836,0.08910977,0.02269759,1.690698,0.07814692,-0.299661,1.672443,-0.070337,0.2034699,1.650918,-0.00591163,-0.291865,1.631903,-0.09236354,-0.05593525,1.575912,0.2786902,-0.03315673,1.546086,NA,NA,Closed,Unknown,
0.8608398,-0.456543,0.003417969,-0.01513672,0.6474609,0.3173828,-4,-5,-12,-13,-5,-2,-4,-3,8,6,-1,-5,-5,5,1,0,-10.875,-10.875,-10.875,11.0625,11.0625,11.0625,2.68037,3.372164,3.323936,6.822247,5.639234,1.717395,0.04416861,-0.3198776,1.530833,-0.01677568,0.0853298,1.523708,0.1196171,0.4875875,1.685668,-0.02821412,-0.3493647,1.554741,-0.05249395,0.009865955,1.534,0.08950079,0.023517,1.69206,0.07785185,-0.2984359,1.673322,-0.0677873,0.2041767,1.646007,-0.005914578,-0.290665,1.632717,-0.08930746,-0.04466345,1.572779,0.2643818,-0.02180356,1.525103,NA,NA,Closed,Unknown,
0.8427734,-0.46875,0.04589844,0.04736328,0.7148438,0.2871094,0,4,7,-1,-2,1,1,4,-1,5,7,6,5,3,4,0,37.625,37.625,37.625,-11.25,-11.25,-11.25,2.702395,3.371563,3.341194,6.887815,5.672997,1.88756,0.04547826,-0.3191434,1.529398,-0.02289552,0.09548172,1.543335,0.1202055,0.4876325,1.686443,-0.02876743,-0.3503142,1.553619,-0.05314063,0.03789105,1.550289,0.08983837,0.02380192,1.692501,0.07785446,-0.2981327,1.673574,-0.06684245,0.2033244,1.642196,-0.00579327,-0.2903745,1.63308,-0.08812025,-0.04433512,1.572229,0.2529302,-0.01563639,1.515333,NA,NA,Closed,Unknown,
0.8330078,-0.4970703,0.1020508,-0.1591797,0.8847656,0.1987305,-2,-1,2,-3,-3,0,0,-2,2,-3,-6,-4,-11,-5,-12,-3,53,53,53,-12.875,-12.875,-12.875,2.745697,3.355503,3.386655,6.93856,5.628139,2.037745,0.04615609,-0.319308,1.530461,-0.01947048,0.08888125,1.554915,0.1203167,0.4877111,1.687858,-0.03159691,-0.3518162,1.55483,-0.08161138,0.0201272,1.541111,0.09035919,0.02397016,1.692867,0.07844157,-0.2978824,1.673615,-0.06711286,0.2023893,1.641404,-0.005132956,-0.2902574,1.633227,-0.08738368,-0.04405919,1.572345,0.2483974,-0.01428879,1.513578,NA,NA,Closed,NotTracked,
0.8774414,-0.4960938,0.1088867,-0.1674805,0.9204102,0.1875,-2,-4,0,-2,-2,-4,-1,-1,-13,-2,1,6,9,8,1,-8,42,42,42,-43.25,-43.25,-43.25,2.795046,3.327397,3.456006,6.915249,5.592162,2.057657,0.04305901,-0.3194886,1.531282,-0.0154895,0.08903684,1.556127,0.1199259,0.4876163,1.688393,-0.0338474,-0.3494401,1.555681,-0.07887681,0.01897015,1.544879,0.0904744,0.02409103,1.692974,0.07882902,-0.2976013,1.673487,-0.06721126,0.2021416,1.641294,-0.004823226,-0.2901392,1.633248,-0.08730107,-0.04343098,1.572853,0.2502648,-0.01472637,1.514012,NA,NA,Closed,NotTracked,
0.8862305,-0.5224609,0.1010742,-0.1757813,0.9414063,0.4545898,0,-2,-1,-4,-4,-2,-1,1,-2,-4,-7,-8,3,-4,-7,3,25.6875,25.6875,25.6875,-6.8125,-6.8125,-6.8125,2.806969,3.318238,3.498486,6.869012,5.563252,2.019562,0.03864623,-0.3222921,1.530358,-0.001345554,0.09360193,1.552366,0.118103,0.4877511,1.688853,-0.03685838,-0.3503544,1.555732,-0.06698906,0.03570656,1.545958,0.09039035,0.02426525,1.693025,0.07876708,-0.297253,1.673388,-0.0674205,0.2017535,1.64138,-0.004884234,-0.2900152,1.63326,-0.08746661,-0.04309287,1.573798,0.2595637,-0.01556307,1.515586,NA,NA,Closed,NotTracked,
0.8686523,-0.5039063,0.1298828,-0.3325195,0.8432617,0.3173828,-3,-4,0,-1,0,-1,-2,-4,7,1,-5,-9,-36,-11,-1,-2,-0.8125,-0.8125,-0.8125,-5.375,-5.375,-5.375,2.806759,3.324328,3.52632,6.825123,5.595747,1.935648,0.03563157,-0.322853,1.529136,-0.02130978,0.1050761,1.55847,0.1149669,0.4878957,1.689377,-0.04101555,-0.3512128,1.556106,-0.07969934,0.04531404,1.548256,0.09021629,0.02442132,1.693009,0.07893013,-0.2968684,1.672888,-0.06763401,0.201606,1.641657,-0.004747771,-0.2898162,1.632892,-0.08836053,-0.04287354,1.575078,0.2719634,-0.01727205,1.519731,NA,NA,Closed,NotTracked,
0.8881836,-0.5444336,0.1342773,-0.722168,0.8500977,0.4321289,-1,-1,-2,0,-2,1,-1,-1,-5,-2,-7,3,13,-2,-9,-26,-4.5,-4.5,-4.5,11.5,11.5,11.5,2.812423,3.3319,3.51064,6.774028,5.670346,1.777935,0.03494558,-0.3228403,1.529118,0.0285376,0.103726,1.526722,0.1116714,0.4879985,1.689837,-0.04400576,-0.352365,1.556879,-0.003474885,0.09335022,1.473389,0.08990666,0.02451671,1.693016,0.07877799,-0.2966574,1.672541,-0.06801596,0.2015595,1.642177,-0.004824981,-0.2897223,1.632823,-0.08940895,-0.04244028,1.576303,0.2782723,-0.01718925,1.521096,NA,NA,Closed,Closed,
0.8759766,-0.5283203,0.1513672,-0.7797852,0.6352539,0.5776367,-2,5,16,0,-2,-2,-1,-2,1,-1,0,-2,-1,-1,1,2,-27.0625,-27.0625,-27.0625,2.875,2.875,2.875,2.818619,3.332511,3.472998,6.702514,5.826005,1.497624,0.03273802,-0.3231473,1.526842,0.05740873,0.1137641,1.513989,0.1100636,0.4880455,1.68979,-0.04260333,-0.3520868,1.555714,0.1028293,0.1323554,1.447899,0.08964302,0.02465844,1.692932,0.07863203,-0.2962836,1.671899,-0.06820942,0.2017038,1.642469,-0.004960735,-0.2894235,1.632494,-0.08994596,-0.04146048,1.576803,0.2844239,-0.01535135,1.520772,NA,NA,Closed,Unknown,
0.8828125,-0.4926758,0.1025391,-0.753418,0.7001953,0.7143555,-2,-3,3,2,-1,1,-1,-2,0,0,0,1,-10,-4,6,2,-24.1875,-24.1875,-24.1875,-21.4375,-21.4375,-21.4375,2.811657,3.326137,3.435035,6.68779,5.926431,1.531618,0.03223821,-0.3234491,1.528175,0.04792752,0.1464239,1.507549,0.1095772,0.4879297,1.689804,-0.04238012,-0.3516843,1.554809,0.09243113,0.1521817,1.444985,0.0895963,0.02461345,1.692876,0.07867248,-0.2966226,1.671329,-0.06660007,0.2010217,1.640409,-0.005068764,-0.2897435,1.631663,-0.08977141,-0.04114671,1.576454,0.2820172,-0.009054247,1.51246,NA,NA,Closed,Unknown,
0.8759766,-0.4682617,0.09228516,-0.5717773,0.4208984,0.2514648,-2,-3,-10,-2,-4,-2,1,-3,4,-2,1,-1,3,5,5,-6,-22.6875,-22.6875,-22.6875,-60.5625,-60.5625,-60.5625,2.805311,3.318048,3.38405,6.671381,6.023873,1.674945,0.03268548,-0.3247948,1.528017,-0.02090029,0.1947564,1.527,0.1095835,0.4879066,1.689756,-0.04373103,-0.3512309,1.554212,-0.0393616,0.1937018,1.47978,0.08968784,0.0245671,1.692802,0.07894836,-0.2969252,1.670829,-0.06350616,0.200132,1.634955,-0.004900078,-0.2901861,1.62995,-0.08913026,-0.04044848,1.574898,0.2724664,-0.002123855,1.502352,NA,NA,Closed,Unknown,
0.8828125,-0.4438477,0.06396484,-0.315918,0.5805664,0.3964844,-2,-2,12,2,-1,-1,0,-1,4,-3,1,0,10,-18,-10,7,-17.625,-17.625,-17.625,-53.6875,-53.6875,-53.6875,2.790054,3.314168,3.364929,6.713813,6.012876,1.89699,0.03381873,-0.324802,1.526494,0.002229876,0.1605707,1.531689,0.1100501,0.4877976,1.689416,-0.04312545,-0.3516382,1.552946,0.04509567,0.1701246,1.465495,0.09010093,0.02460047,1.692596,0.07952151,-0.2967995,1.670239,-0.06309662,0.1997986,1.632708,-0.004211133,-0.2898956,1.628365,-0.08842337,-0.04033606,1.572514,0.260881,0.004694229,1.492922,NA,NA,Closed,Unknown,
0.8779297,-0.449707,0.07568359,-0.315918,0.5805664,0.3964844,-1,3,4,0,-1,0,-2,-4,1,-2,-3,-1,0,5,18,15,8.4375,8.4375,8.4375,-53.6875,-53.6875,-53.6875,2.777255,3.317051,3.373144,6.713813,6.012876,1.89699,0.03404641,-0.3249556,1.524201,-0.004625668,0.1525272,1.538009,0.1106608,0.4877426,1.688909,-0.04196794,-0.3522928,1.551163,0.04179085,0.1855938,1.565276,0.08960483,0.02434775,1.690897,0.07995706,-0.2965264,1.669396,-0.06315552,0.1996952,1.631568,-0.003804038,-0.2895866,1.627495,-0.08727375,-0.04071954,1.569869,0.2540054,0.00634567,1.490415,NA,NA,Closed,NotTracked,
0.9174805,-0.4921875,0.08203125,-0.359375,0.9545898,-0.02001953,0,1,-1,0,-1,-4,-1,-1,9,-3,-2,2,-5,-8,1,-4,20.5625,20.5625,20.5625,-80,-80,-80,2.791191,3.318407,3.414598,6.710476,5.889274,2.049282,0.03699746,-0.3243184,1.522375,-0.01086954,0.1378369,1.536182,0.1110168,0.4875933,1.688687,-0.04230323,-0.3524917,1.549105,0.02670492,0.1832251,1.564586,0.09000168,0.02454226,1.69058,0.08013327,-0.2957995,1.668435,-0.06339777,0.2000699,1.631768,-0.003615882,-0.2890305,1.626888,-0.0867493,-0.04066363,1.568889,0.2525046,0.005797832,1.490501,NA,NA,Closed,Unknown,
0.8286133,-0.4765625,0.1152344,-0.3857422,0.5917969,0.5185547,1,5,6,1,1,-4,1,-1,10,2,0,-2,13,-20,-20,24,22.625,22.625,22.625,20,20,20,2.795804,3.316636,3.445951,6.642065,5.592731,1.992802,0.03622054,-0.3238544,1.521889,-0.02166511,0.09991453,1.535094,0.1111521,0.4875428,1.688518,-0.04331296,-0.3519759,1.548006,0.002216186,0.1615261,1.558594,0.09031607,0.02479978,1.690194,0.08037207,-0.2950275,1.667129,-0.0646855,0.2009845,1.633788,-0.003368347,-0.2886607,1.626371,-0.08683296,-0.04047828,1.568202,0.2522525,0.007275883,1.491298,NA,NA,Closed,Closed,
0.9145508,-0.519043,0.1337891,-0.3105469,1.024902,0.5908203,-2,1,1,-3,-3,0,1,-1,41,5,-5,-4,-7,-17,18,12,21.0625,21.0625,21.0625,26.25,26.25,26.25,2.857755,3.300103,3.454371,6.705495,5.334647,2.001422,0.03246986,-0.3267608,1.520099,-0.0252205,0.07678543,1.532817,0.1111406,0.4874036,1.688308,-0.04563658,-0.3519576,1.546749,-0.04616966,0.1352396,1.565048,0.09033106,0.02514313,1.68972,0.08019466,-0.294165,1.665687,-0.06588542,0.20109,1.635633,-0.003320586,-0.2881346,1.625597,-0.0867551,-0.04286196,1.5656,0.2541378,0.008611018,1.491339,NA,NA,Closed,Unknown,
0.9130859,-0.4697266,0.112793,-0.2822266,0.8227539,0.6625977,-1,-1,4,1,-4,-2,-1,-1,-16,-2,0,2,-4,-14,-15,-6,11.1875,11.1875,11.1875,3.625,3.625,3.625,2.870958,3.297004,3.462006,6.604971,5.282194,1.91862,0.03019428,-0.3276735,1.518898,-0.02666678,0.07092138,1.529906,0.1109681,0.4873776,1.688053,-0.04822292,-0.3539859,1.546253,-0.01178172,0.1364398,1.553758,0.09039602,0.02556452,1.688805,0.080084,-0.2932647,1.663651,-0.06659027,0.2012274,1.636544,-0.003275874,-0.2873688,1.624279,-0.08652295,-0.0438216,1.564052,0.2562255,0.008380312,1.492226,NA,NA,Closed,Unknown,
0.8623047,-0.4648438,0.1152344,-0.2197266,0.8081055,0.3994141,0,6,9,3,-1,1,2,1,-6,2,7,11,5,7,-5,5,1.75,1.75,1.75,10.5625,10.5625,10.5625,2.866878,3.301328,3.474446,6.640005,5.332378,1.946427,0.03012246,-0.3279268,1.519323,-0.02786141,0.07183512,1.530066,0.1108216,0.4873666,1.687936,-0.04829116,-0.3557079,1.545762,-0.01038585,0.1367073,1.553048,0.09048741,0.02579697,1.688131,0.08004168,-0.2929331,1.662553,-0.06694849,0.2010511,1.636799,-0.003202801,-0.2870407,1.623486,-0.08658785,-0.04383344,1.563161,0.2563521,0.008311285,1.493029,NA,NA,Closed,Unknown,
0.8549805,-0.4511719,0.1396484,-0.1166992,0.8286133,0.5019531,-4,-4,2,0,-2,-1,-1,-1,-1,-1,0,-3,-2,6,11,-3,-4.375,-4.375,-4.375,-3.6875,-3.6875,-3.6875,2.863035,3.3072,3.476236,6.644939,5.332045,1.945092,0.0303086,-0.3274361,1.516844,-0.02833324,0.07280948,1.52726,0.1105915,0.4872344,1.687623,-0.04755914,-0.3543718,1.546582,-0.04676726,0.1296409,1.559111,0.09048977,0.02589723,1.687408,0.07983568,-0.2928429,1.661361,-0.06738348,0.2011373,1.63717,-0.003340829,-0.2869074,1.622024,-0.08711065,-0.04348501,1.561656,0.256443,0.006926687,1.491654,NA,NA,Closed,Unknown,
0.902832,-0.4619141,0.1083984,-0.1904297,0.8222656,0.543457,2,-1,-4,-3,-1,-1,1,0,0,-1,0,-2,-5,-28,-1,5,4.4375,4.4375,4.4375,-6.9375,-6.9375,-6.9375,2.865844,3.303267,3.472414,6.626091,5.317129,1.937548,0.02903361,-0.3302057,1.514918,-0.02850332,0.07203852,1.526457,0.1104831,0.487145,1.6874,-0.04798881,-0.3555935,1.544647,-0.04162082,0.1297603,1.558343,0.09039432,0.02599456,1.686783,0.0797148,-0.2927358,1.66051,-0.06784143,0.2012181,1.637579,-0.003395232,-0.2868075,1.621238,-0.08724333,-0.04355104,1.56129,0.2565359,0.006733892,1.492162,NA,NA,Closed,Closed,
0.8789063,-0.4580078,0.1118164,-0.1879883,0.8198242,0.5024414,1,-1,-1,-1,0,0,1,1,-2,-1,1,-3,-1,1,0,4,15.6875,15.6875,15.6875,-9.75,-9.75,-9.75,2.87684,3.300623,3.482583,6.607816,5.317888,1.921488,0.0299128,-0.330624,1.514394,-0.02822657,0.07148266,1.524921,0.1102111,0.4870885,1.686842,-0.0482122,-0.3565354,1.543685,-0.05111636,0.1284424,1.557684,0.09040214,0.02598405,1.685966,0.07949333,-0.2928121,1.659572,-0.06809092,0.2012911,1.63773,-0.003588265,-0.2867733,1.620531,-0.08730064,-0.04395341,1.560049,0.2567749,0.005646916,1.491292,NA,NA,Unknown,Unknown,
0.9018555,-0.434082,0.08691406,-0.04492188,0.7592773,0.4663086,0,-1,-2,-3,-1,-3,-2,-2,4,2,1,1,-1,1,1,2,25.625,25.625,25.625,-3.125,-3.125,-3.125,2.879123,3.29074,3.520853,6.597452,5.318439,1.897491,0.02175994,-0.3467905,1.476779,-0.02909036,0.07172315,1.520631,0.1098727,0.4870536,1.686254,-0.02172704,-0.3307083,1.507833,0.001479202,0.1354254,1.54512,0.09035587,0.02581766,1.684875,0.0792338,-0.293108,1.65866,-0.06830817,0.2014628,1.637895,-0.003867707,-0.2868796,1.619835,-0.08760295,-0.04444964,1.558929,0.257111,0.00391947,1.4915,NA,NA,Closed,Closed,
0.8969727,-0.3813477,0.06201172,0.03466797,0.6518555,0.3710938,-2,-1,-2,-2,-1,-1,-3,-2,-5,2,5,0,-5,0,0,-1,48.375,48.375,48.375,-2.9375,-2.9375,-2.9375,2.854526,3.273598,3.646385,6.582658,5.305965,1.813183,0.01615016,-0.3486032,1.477803,-0.02205387,0.06732147,1.512644,0.1090343,0.4870744,1.685087,-0.02237581,-0.3717155,1.464636,-0.005937257,0.1297785,1.545357,0.09023704,0.02579986,1.683923,0.07903297,-0.2933569,1.657774,-0.0685638,0.2015692,1.637973,-0.004092545,-0.2869979,1.619043,-0.08924513,-0.04952434,1.558035,0.2642776,-0.001215879,1.497286,NA,NA,Closed,Unknown,
0.8535156,-0.3505859,0.04296875,-0.0078125,0.5473633,0.3691406,1,1,-1,0,-3,-4,-2,-2,-1,0,-1,-2,-5,1,-1,-1,55.8125,55.8125,55.8125,-18.125,-18.125,-18.125,2.826425,3.256308,3.779712,6.552306,5.273677,1.726642,0.006663815,-0.3533959,1.476148,-0.007234722,0.02616194,1.48928,0.1069852,0.487131,1.683273,-0.03391889,-0.383478,1.466071,-0.007008256,-0.03627967,1.517612,0.0898973,0.02553447,1.682455,0.07849868,-0.2939495,1.656755,-0.06880809,0.2015519,1.638193,-0.004745582,-0.2872992,1.618165,-0.0908097,-0.06006079,1.55712,0.279774,-0.01475892,1.5192,NA,NA,Closed,Unknown,
0.9291992,-0.4204102,0.07080078,0.315918,0.6323242,0.5161133,2,1,-2,0,1,-1,-1,-2,5,-3,-4,-5,-1,-6,-6,4,82.75,82.75,82.75,-35.1875,-35.1875,-35.1875,2.797168,3.226367,3.977147,6.487352,5.128916,1.525564,-0.008074369,-0.3641483,1.476921,0.004287521,-0.05878379,1.450147,0.1029173,0.4871068,1.679938,-0.04912579,-0.3836737,1.465429,0.01949004,0.002758927,1.51727,0.08948556,0.0254434,1.679963,0.07841105,-0.2942968,1.654927,-0.07043585,0.2005722,1.639317,-0.005214161,-0.287653,1.616575,-0.09493314,-0.0619325,1.561374,0.2921332,-0.02404473,1.54082,NA,NA,Closed,Unknown,
0.9350586,-0.3554688,0.09765625,0.1503906,0.7797852,1.424316,0,0,-1,0,1,0,-1,0,7,-4,-9,-5,0,-5,-5,6,83.3125,83.3125,83.3125,-42.875,-42.875,-42.875,2.805869,3.19559,4.131878,6.423795,4.836439,1.288569,-0.0309671,-0.3630373,1.483291,0.06193702,-0.1519363,1.437471,0.09972282,0.487038,1.676926,-0.05410005,-0.3736227,1.448976,0.02882815,-0.1084721,1.488354,0.08890356,0.025169,1.677318,0.07847241,-0.2947744,1.652795,-0.07274321,0.1985727,1.640922,-0.005303277,-0.2882122,1.61456,-0.1067645,-0.05353089,1.571981,0.3075163,-0.03011304,1.566069,NA,NA,Closed,NotTracked,
0.9008789,-0.3598633,0.09960938,0.8793945,0.8901367,1.524902,-3,-2,-2,-4,-2,-1,-1,-3,-4,-4,-2,-1,3,-1,-5,0,59.6875,59.6875,59.6875,-54.375,-54.375,-54.375,2.775554,3.156666,4.287711,6.343412,4.425403,1.063414,-0.0513241,-0.3750805,1.494221,0.13562,-0.2520139,1.447832,0.09725416,0.4869432,1.674568,-0.09379276,-0.3947665,1.489875,0.1598002,-0.328023,1.49025,0.08815346,0.02407163,1.675467,0.07824188,-0.2970356,1.651564,-0.07492971,0.1978804,1.642201,-0.006036023,-0.290688,1.613423,-0.1131643,-0.0650293,1.580454,0.3089891,-0.03449548,1.581409,NA,NA,NotTracked,Unknown,
0.9375,-0.362793,0.1079102,0.7138672,0.847168,0.5981445,1,-1,0,-1,-2,-2,-2,-1,-5,-1,3,1,-4,0,7,-3,56.4375,56.4375,56.4375,-5.0625,-5.0625,-5.0625,2.713627,3.100957,4.492786,6.547298,3.733281,0.6866307,-0.073339,-0.3773995,1.507064,0.1923768,-0.3376225,1.435808,0.09562204,0.486986,1.672279,-0.1042441,-0.3422583,1.468381,0.223932,-0.3871344,1.446091,0.08563033,0.02250831,1.672545,0.07439406,-0.3002744,1.649085,-0.07749324,0.1968746,1.643335,-0.01083461,-0.2931063,1.611743,-0.1188462,-0.07489409,1.587493,0.3076679,-0.03831293,1.590958,NA,NA,Closed,Unknown,
