ALX,ALY,ALZ,ARX,ARY,ARZ,EMG0L,EMG1L,EMG2L,EMG3L,EMG4L,EMG5L,EMG6L,EMG7L,EMG0R,EMG1R,EMG2R,EMG3R,EMG4R,EMG5R,EMG6R,EMG7R,GLX,GLY,GLZ,GRX,GRY,GRZ,ORL,OPL,OYL,ORR,OPR,OYR,LHNX,LHNY,LHNZ,RHNX,RHNY,RHNZ,HX,HY,HZ,LTX,LTY,LTZ,RTX,RTY,RTZ,SpineMidX,SpineMidY,SpineMidZ,SpineBaseX,SpineBaseY,SpineBaseZ,ShoulderLeftX,ShoulderLeftY,ShoulderLeftZ,ShoulderRightX,ShoulderRightY,ShoulderRightZ,ElbowLeftX,ElbowLeftY,ElbowLeftZ,ElbowRightX,ElbowRightY,ElbowRightZ,Myo_Pose_left,Myo_Pose_Right,Kinect_pose_left,Kinect_pose_right
0.9633789,-0.2807617,-0.007324219,0.9238281,0.2641602,0.1240234,-1,-3,-1,-2,0,1,1,1,5,1,2,-1,0,0,3,21,2.3125,2.3125,2.3125,-1.1875,-1.1875,-1.1875,2.415194,2.952574,4.475351,6.801937,2.990816,0.3816531,-0.125441,-0.4086193,1.646926,0.2613642,-0.406836,1.607359,0.09792783,0.4889322,1.755306,-0.07449132,-0.4041727,1.628555,0.2118798,-0.3979316,1.582133,0.08000975,0.01899356,1.750391,0.0715542,-0.3075138,1.730233,-0.08553819,0.1951757,1.73455,-0.01141482,-0.3000543,1.694575,-0.1376468,-0.08451532,1.709358,0.295765,-0.08397073,1.686344,NA,NA,NotTracked,NotTracked,
0.9633789,-0.2807617,-0.007324219,0.9335938,0.2646484,0.1279297,-1,-3,-1,-2,0,1,1,1,-6,-3,0,-4,-2,-1,-2,1,2.3125,2.3125,2.3125,-1.75,-1.75,-1.75,2.415194,2.952574,4.475351,6.801555,2.990472,0.3800545,-0.1258115,-0.4080311,1.647707,0.2614855,-0.4068303,1.608462,0.09811606,0.4889536,1.75587,-0.07443401,-0.4036938,1.629488,0.2122545,-0.4097266,1.581334,0.07973075,0.01888861,1.750349,0.07154884,-0.3075264,1.730285,-0.08540735,0.1951736,1.734633,-0.01142752,-0.3000485,1.69464,-0.1377742,-0.08530134,1.709418,0.2957982,-0.08394153,1.686376,NA,NA,NotTracked,NotTracked,
0.9633789,-0.2807617,-0.007324219,0.9355469,0.2675781,0.1235352,-1,-3,-1,-2,0,1,1,1,8,-2,0,-1,-1,-4,1,2,2.3125,2.3125,2.3125,-3.375,-3.375,-3.375,2.415194,2.952574,4.475351,6.803519,2.98923,0.3748958,-0.1257018,-0.4083522,1.647623,0.2625137,-0.4089438,1.608227,0.09822882,0.4889127,1.756096,-0.07457735,-0.407723,1.629025,0.2125606,-0.399851,1.582873,0.07994058,0.0188777,1.750662,0.0714905,-0.3076277,1.73032,-0.08528838,0.1951707,1.734753,-0.01147201,-0.3000914,1.69465,-0.137592,-0.08431397,1.709512,0.2958769,-0.08407591,1.686475,NA,NA,NotTracked,NotTracked,
0.9633789,-0.2807617,-0.007324219,0.9272461,0.2568359,0.1298828,-1,-3,-1,-2,0,1,1,1,0,-1,-2,-1,1,0,0,-4,2.3125,2.3125,2.3125,-3.25,-3.25,-3.25,2.415194,2.952574,4.475351,6.803481,2.987599,0.36577,-0.1261092,-0.4081082,1.647688,0.2629214,-0.4100116,1.608464,0.09845801,0.4889041,1.756711,-0.07462558,-0.407154,1.629227,0.2127379,-0.4050554,1.582208,0.08008638,0.01885244,1.750985,0.07149081,-0.3076923,1.730375,-0.08502503,0.1952013,1.735039,-0.01147915,-0.3001153,1.694669,-0.1374589,-0.08320495,1.709868,0.2959422,-0.08405528,1.686594,NA,NA,NotTracked,NotTracked,
0.9633789,-0.2807617,-0.007324219,0.9345703,0.2641602,0.1352539,-1,-3,-1,-2,0,1,1,1,-7,-3,-1,-1,-1,0,-1,-4,2.3125,2.3125,2.3125,-1.75,-1.75,-1.75,2.415194,2.952574,4.475351,6.799421,2.987827,0.3657322,-0.1261674,-0.4086374,1.647383,0.263695,-0.4077307,1.608578,0.09850507,0.488906,1.757161,-0.07490052,-0.3978367,1.628044,0.2135715,-0.4133107,1.580241,0.08035415,0.01883272,1.751259,0.07151132,-0.3077143,1.730378,-0.08498792,0.1951728,1.735154,-0.01146306,-0.3001252,1.694666,-0.1373238,-0.08271813,1.709931,0.2959687,-0.08403434,1.686647,NA,NA,NotTracked,NotTracked,
0.9633789,-0.2807617,-0.007324219,0.9370117,0.2602539,0.137207,-1,-3,-1,-2,0,1,1,1,14,2,4,2,-1,1,-1,5,2.3125,2.3125,2.3125,-0.6875,-0.6875,-0.6875,2.415194,2.952574,4.475351,6.790261,2.991928,0.3711956,-0.1257024,-0.4086862,1.647308,0.2630431,-0.4094414,1.608201,0.09860583,0.4890527,1.757956,-0.07444181,-0.4002437,1.629079,0.2136232,-0.4166094,1.581546,0.08006092,0.0186682,1.751211,0.07151572,-0.3077722,1.730432,-0.08481953,0.1949776,1.735551,-0.01146156,-0.3001533,1.694716,-0.1373432,-0.08255087,1.71001,0.2960382,-0.08413462,1.686888,NA,NA,NotTracked,NotTracked,
0.9633789,-0.2807617,-0.007324219,0.9301758,0.2636719,0.1293945,-1,-3,-1,-2,0,1,1,1,1,1,-2,-1,-2,1,0,-2,2.3125,2.3125,2.3125,1.1875,1.1875,1.1875,2.415194,2.952574,4.475351,6.786555,2.995707,0.375867,-0.1261585,-0.4085948,1.646499,0.262945,-0.4095463,1.605386,0.09857021,0.4890547,1.758397,-0.0744908,-0.4028726,1.628326,0.2136633,-0.411382,1.581196,0.08029456,0.0186293,1.751546,0.07154418,-0.3078865,1.73047,-0.08491765,0.1945604,1.736158,-0.0114217,-0.3002862,1.694749,-0.1373283,-0.08257755,1.710036,0.2960677,-0.08412642,1.686947,NA,NA,NotTracked,NotTracked,
0.9633789,-0.2807617,-0.007324219,0.934082,0.2851563,0.1567383,-1,-3,-1,-2,0,1,1,1,-12,-3,-1,-1,-1,0,-1,2,2.3125,2.3125,2.3125,4.5,4.5,4.5,2.415194,2.952574,4.475351,6.77041,3.007419,0.3982384,-0.1259074,-0.4083814,1.646552,0.2613081,-0.4085947,1.602298,0.09855767,0.4890052,1.759175,-0.07452892,-0.4059164,1.629013,0.2135128,-0.4210875,1.580565,0.08051421,0.01847789,1.751997,0.07152872,-0.308017,1.7305,-0.08483572,0.194418,1.736638,-0.01143623,-0.3004113,1.694806,-0.1372959,-0.08238493,1.710129,0.2961641,-0.08405935,1.68709,NA,NA,NotTracked,NotTracked,
0.9633789,-0.2807617,-0.007324219,1.058105,0.3945313,0.1210938,-1,-3,-1,-2,0,1,1,1,-2,-1,24,10,4,3,4,12,2.3125,2.3125,2.3125,-30.6875,-30.6875,-30.6875,2.415194,2.952574,4.475351,6.716824,3.054448,0.4418561,-0.1259212,-0.4083711,1.646182,0.2568346,-0.4046642,1.595637,0.09833536,0.4890713,1.760604,-0.07433628,-0.4028643,1.628841,0.2103423,-0.3999283,1.58105,0.08012393,0.01819557,1.751873,0.07150228,-0.3080829,1.730533,-0.08486664,0.1943178,1.737212,-0.01146552,-0.3004722,1.694855,-0.1371696,-0.08223637,1.710296,0.2963115,-0.08374126,1.687493,NA,NA,NotTracked,Unknown,
0.9633789,-0.2807617,-0.007324219,1.138184,0.3251953,0.265625,-1,-3,-1,-2,0,1,1,1,2,-7,-23,-18,0,-14,-6,-1,2.3125,2.3125,2.3125,-65.875,-65.875,-65.875,2.415194,2.952574,4.475351,6.556175,3.116013,0.539808,-0.1255414,-0.4086174,1.646375,0.2438347,-0.3865998,1.571013,0.09809881,0.4890554,1.761668,-0.07449763,-0.406245,1.629044,0.2077077,-0.3750818,1.586771,0.07883848,0.01791667,1.751086,0.07111466,-0.3081232,1.730586,-0.08481543,0.1942716,1.737906,-0.01187721,-0.3004702,1.694892,-0.1369222,-0.08209883,1.710557,0.2974205,-0.08099209,1.691767,NA,NA,NotTracked,Unknown,
0.9633789,-0.2807617,-0.007324219,1.136719,0.4267578,0.5859375,-1,-3,-1,-2,0,1,1,1,-24,-13,-7,-8,-16,7,5,-11,2.3125,2.3125,2.3125,-2.6875,-2.6875,-2.6875,2.415194,2.952574,4.475351,6.302003,3.342511,0.758421,-0.1255952,-0.4081333,1.647408,0.2359903,-0.3203843,1.511872,0.09804184,0.4891316,1.762029,-0.07394015,-0.3990698,1.629378,0.2322665,-0.3555995,1.513,0.07874266,0.01817828,1.751637,0.06897115,-0.307498,1.73078,-0.0847281,0.1943391,1.738047,-0.01419551,-0.2996204,1.695047,-0.1364657,-0.08152862,1.710858,0.2987657,-0.07431255,1.701317,NA,NA,NotTracked,Unknown,
0.9633789,-0.2807617,-0.007324219,0.953125,0.7207031,0.7661133,-1,-3,-1,-2,0,1,1,1,-1,-2,3,2,9,7,-1,3,2.3125,2.3125,2.3125,39,39,39,2.415194,2.952574,4.475351,6.211871,3.75744,0.9133302,-0.1259236,-0.4084167,1.650641,0.2076085,-0.21656,1.457182,0.09812337,0.4892055,1.762236,-0.07458922,-0.4108017,1.630066,0.1718366,-0.265309,1.475444,0.07850201,0.01852596,1.752142,0.0661132,-0.3066884,1.730914,-0.08458892,0.1942376,1.738086,-0.01706669,-0.2987481,1.69514,-0.1358873,-0.0805854,1.711261,0.2993484,-0.05547399,1.712385,NA,NA,NotTracked,Unknown,
0.9633789,-0.2807617,-0.007324219,0.3212891,0.8930664,0.737793,-1,-3,-1,-2,0,1,1,1,-9,-1,4,5,5,-2,1,-7,2.3125,2.3125,2.3125,-43.3125,-43.3125,-43.3125,2.415194,2.952574,4.475351,6.182423,4.643419,0.9999264,-0.1258136,-0.4090592,1.650489,0.1242741,-0.1163126,1.307677,0.09852142,0.4891178,1.762399,-0.07471356,-0.4146031,1.630834,0.06928828,-0.1401042,1.407109,0.07885443,0.01878038,1.753015,0.06595951,-0.3064047,1.73152,-0.08425833,0.1942953,1.738146,-0.01714024,-0.2986646,1.695477,-0.1356645,-0.0801781,1.711484,0.3563908,-0.05850697,1.714573,NA,NA,NotTracked,Unknown,
0.9633789,-0.2807617,-0.007324219,0.1669922,0.6318359,0.6831055,-1,-3,-1,-2,0,1,1,1,3,14,11,5,-13,-1,3,1,2.3125,2.3125,2.3125,-72.75,-72.75,-72.75,2.415194,2.952574,4.475351,6.106282,5.021892,1.031344,-0.1254507,-0.4060699,1.64865,0.1704705,0.05584019,1.419741,0.09945596,0.4890067,1.76213,-0.07443955,-0.4055941,1.629852,0.1352227,0.06949686,1.428167,0.07863622,0.01900096,1.753522,0.06608258,-0.3058937,1.732239,-0.08343772,0.1944676,1.738136,-0.01694459,-0.2983049,1.695914,-0.1350712,-0.07896711,1.711792,0.2991724,-0.03889145,1.672475,NA,NA,NotTracked,Unknown,
0.9633789,-0.2807617,-0.007324219,-0.3959961,0.4462891,0.4956055,-1,-3,-1,-2,0,1,1,1,-4,10,14,3,-2,-1,1,6,2.3125,2.3125,2.3125,27.25,27.25,27.25,2.415194,2.952574,4.475351,6.110381,5.750731,1.111782,-0.1246511,-0.4074861,1.646431,0.1787198,0.1543189,1.465082,0.1010476,0.4884681,1.761461,-0.07511538,-0.4261043,1.632864,0.1511163,0.1331725,1.4708,0.07858868,0.01824532,1.754277,0.06614435,-0.3069644,1.732793,-0.08333816,0.1946861,1.737651,-0.0169678,-0.3000192,1.698188,-0.1350382,-0.07868869,1.711975,0.3201706,-0.08828225,1.669237,NA,NA,NotTracked,Unknown,
0.9633789,-0.2807617,-0.007324219,-0.5297852,0.3969727,0.4882813,-1,-3,-1,-2,0,1,1,1,7,-1,2,0,-2,-2,1,10,2.3125,2.3125,2.3125,35.3125,35.3125,35.3125,2.415194,2.952574,4.475351,6.262578,6.348059,1.234131,-0.1248532,-0.407773,1.64541,0.1825276,0.2433858,1.491837,0.1005316,0.4884149,1.761142,-0.07438833,-0.4014761,1.629571,0.1600197,0.2033322,1.480353,0.07868257,0.01847004,1.754723,0.06597621,-0.3067019,1.73289,-0.08209374,0.1951153,1.73901,-0.01755817,-0.2997105,1.701126,-0.1350469,-0.07706142,1.712349,0.2966249,-0.07303122,1.620608,NA,NA,NotTracked,Unknown,
0.9633789,-0.2807617,-0.007324219,-0.6196289,0.3173828,0.3491211,-1,-3,-1,-2,0,1,1,1,-23,5,1,-1,-1,0,2,0,2.3125,2.3125,2.3125,18.0625,18.0625,18.0625,2.415194,2.952574,4.475351,6.43573,6.678627,1.399857,-0.125065,-0.4076678,1.645316,0.1889092,0.2775629,1.524946,0.09931336,0.4883869,1.760005,-0.07445152,-0.4079925,1.629564,0.1628968,0.239948,1.530059,0.07856362,0.01993348,1.753549,0.06551965,-0.3058842,1.73254,-0.08028959,0.1955884,1.740407,-0.01825246,-0.2986979,1.701528,-0.1354473,-0.07459763,1.713037,0.2820491,-0.04358288,1.58959,NA,NA,NotTracked,Unknown,
0.9633789,-0.2807617,-0.007324219,-0.6928711,0.3183594,0.2729492,-1,-3,-1,-2,0,1,1,1,3,-1,-9,-6,-1,0,1,-5,2.3125,2.3125,2.3125,-17.1875,-17.1875,-17.1875,2.415194,2.952574,4.475351,6.723582,6.906766,1.706413,-0.1262388,-0.4078352,1.646796,0.1588385,0.3583633,1.592458,0.09815732,0.4881757,1.759052,-0.07407725,-0.4018588,1.629717,0.09997185,0.3978326,1.620667,0.07875361,0.02047111,1.752841,0.06520665,-0.3056347,1.732314,-0.07889195,0.196011,1.74126,-0.01877554,-0.2983234,1.701836,-0.135965,-0.07299127,1.71362,0.2604554,0.01673723,1.553017,NA,NA,NotTracked,Unknown,
0.9633789,-0.2807617,-0.007324219,-0.5693359,0.2529297,0.1630859,-1,-3,-1,-2,0,1,1,1,-6,-8,-6,-5,-4,-2,-6,-11,2.3125,2.3125,2.3125,-21.4375,-21.4375,-21.4375,2.415194,2.952574,4.475351,7.206944,7.040929,2.255895,-0.1271638,-0.4080696,1.646778,0.1781348,0.3182071,1.592266,0.09785454,0.4872777,1.757197,-0.07409301,-0.4032684,1.628983,0.210333,0.3479207,1.567615,0.07940223,0.02058116,1.752587,0.06490611,-0.3058302,1.731934,-0.07808055,0.1962807,1.741379,-0.01912272,-0.2984262,1.701975,-0.136302,-0.07270173,1.713505,0.2591193,0.01678074,1.548891,NA,NA,NotTracked,Unknown,
0.9633789,-0.2807617,-0.007324219,-0.9306641,0.2802734,-0.4418945,-1,-3,-1,-2,0,1,1,1,-1,-6,-4,-8,-9,-2,-2,3,2.3125,2.3125,2.3125,-36.9375,-36.9375,-36.9375,2.415194,2.952574,4.475351,7.835455,7.065899,2.976184,-0.1271185,-0.4080733,1.64783,0.1532397,0.3336106,1.635132,0.09814217,0.4861679,1.755704,-0.07427744,-0.4017516,1.629564,0.1917147,0.3428453,1.591681,0.07790212,0.01933726,1.750343,0.0648322,-0.3065156,1.731656,-0.0778504,0.1963609,1.741321,-0.01918059,-0.2995838,1.702746,-0.1365218,-0.07283524,1.713235,0.2579184,0.0188343,1.549172,NA,NA,NotTracked,NotTracked,
0.9633789,-0.2807617,-0.007324219,-0.9003906,0.3154297,-0.2285156,-1,-3,-1,-2,0,1,1,1,26,-13,-10,-4,0,0,1,24,2.3125,2.3125,2.3125,-33.25,-33.25,-33.25,2.415194,2.952574,4.475351,8.198629,7.005977,3.409146,-0.1272584,-0.4084029,1.646709,0.1512873,0.3291081,1.629757,0.09866335,0.4849053,1.753893,-0.07477324,-0.4074291,1.627547,0.1830156,0.3425052,1.582214,0.07824735,0.01916374,1.750148,0.06476684,-0.307069,1.731381,-0.07774206,0.1964882,1.741246,-0.01922118,-0.3002874,1.70306,-0.1366801,-0.07276592,1.712971,0.2566137,0.01914728,1.548986,NA,NA,Unknown,NotTracked,
0.9633789,-0.2807617,-0.007324219,-1.008301,0.2275391,-0.04492188,-1,-3,-1,-2,0,1,1,1,14,-18,-8,-1,-1,0,-2,6,2.3125,2.3125,2.3125,11.8125,11.8125,11.8125,2.415194,2.952574,4.475351,7.978851,7.023118,3.186852,-0.1269953,-0.4084899,1.645057,0.1530772,0.3315751,1.610989,0.09843876,0.4847071,1.752643,-0.07456113,-0.3998455,1.628275,0.1804744,0.3421313,1.558881,0.07762284,0.01860724,1.749318,0.06458847,-0.3077566,1.731041,-0.07773337,0.1963873,1.741142,-0.0193536,-0.301089,1.703159,-0.1368447,-0.07263794,1.712733,0.2540024,0.01874966,1.548266,NA,NA,Unknown,NotTracked,
0.9633789,-0.2807617,-0.007324219,-1.085449,0.3295898,0.04003906,-1,-3,-1,-2,0,1,1,1,8,2,0,4,3,-1,0,7,2.3125,2.3125,2.3125,-14.75,-14.75,-14.75,2.415194,2.952574,4.475351,7.616772,7.040882,2.809067,-0.1269046,-0.4078949,1.643595,0.1561862,0.3309419,1.598264,0.09818257,0.4845006,1.752045,-0.07458505,-0.4087587,1.628383,0.1822813,0.3431474,1.548112,0.07671094,0.01807363,1.748486,0.06451422,-0.3081212,1.730899,-0.07775875,0.1964341,1.741025,-0.01940903,-0.3015688,1.703175,-0.1371915,-0.07288329,1.712207,0.2515245,0.01838628,1.546857,NA,NA,Unknown,Unknown,
0.9633789,-0.2807617,-0.007324219,-0.949707,0.3417969,0.1665039,-1,-3,-1,-2,0,1,1,1,-6,1,-2,1,1,-1,-2,-7,2.3125,2.3125,2.3125,-21.5625,-21.5625,-21.5625,2.415194,2.952574,4.475351,7.533248,7.044995,2.721627,-0.1267439,-0.4081106,1.643007,0.1548133,0.3237289,1.608963,0.09782232,0.4845799,1.751401,-0.07419635,-0.4023986,1.628438,0.1755993,0.3474141,1.566355,0.07635386,0.01772737,1.74798,0.06428964,-0.3086537,1.730661,-0.08019853,0.1967835,1.738581,-0.01969675,-0.3021531,1.703337,-0.1377863,-0.07301634,1.711636,0.250313,0.01842787,1.546341,NA,NA,Unknown,NotTracked,
0.9633789,-0.2807617,-0.007324219,-0.9384766,0.2749023,-0.02294922,-1,-3,-1,-2,0,1,1,1,20,59,11,1,-3,0,2,11,2.3125,2.3125,2.3125,-7.75,-7.75,-7.75,2.415194,2.952574,4.475351,7.754589,7.044062,2.96734,-0.127202,-0.4086473,1.644016,0.1493443,0.3288837,1.623848,0.09778304,0.4844158,1.750894,-0.07419353,-0.4021373,1.627869,0.1753374,0.3465643,1.581892,0.07668659,0.01758147,1.74798,0.0642705,-0.3089734,1.730481,-0.08019277,0.1967317,1.738454,-0.01968422,-0.3025979,1.703416,-0.1386562,-0.07315457,1.710995,0.2500323,0.01813564,1.545945,NA,NA,Unknown,NotTracked,
0.9633789,-0.2807617,-0.007324219,-0.980957,0.265625,-0.2866211,-1,-3,-1,-2,0,1,1,1,4,37,28,6,-2,-2,0,7,2.3125,2.3125,2.3125,5.875,5.875,5.875,2.415194,2.952574,4.475351,7.983517,7.025098,3.206201,-0.1279237,-0.4078991,1.643973,0.150213,0.3280191,1.612201,0.09733966,0.4841997,1.750111,-0.07424369,-0.4034274,1.628198,0.1765208,0.3451306,1.567723,0.07626945,0.01718396,1.747417,0.06417042,-0.3095206,1.730001,-0.08023181,0.1965932,1.738122,-0.0197858,-0.3031506,1.703143,-0.1389125,-0.0731504,1.709861,0.2492977,0.01780165,1.545659,NA,NA,Unknown,NotTracked,
0.9633789,-0.2807617,-0.007324219,-1.025879,0.2519531,0.03271484,-1,-3,-1,-2,0,1,1,1,5,2,5,8,7,2,2,10,2.3125,2.3125,2.3125,16.75,16.75,16.75,2.415194,2.952574,4.475351,7.668099,7.040361,2.839859,-0.1279334,-0.4081059,1.642312,0.1520577,0.3274376,1.593101,0.09682081,0.4842102,1.749278,-0.07415728,-0.4114042,1.624774,0.1741478,0.34363,1.544372,0.07591866,0.0169144,1.747071,0.06397862,-0.3100449,1.729675,-0.0802201,0.1964658,1.738007,-0.01993989,-0.3036121,1.703092,-0.1391706,-0.07325301,1.709292,0.2484947,0.017701,1.545213,NA,NA,Unknown,Unknown,
0.9633789,-0.2807617,-0.007324219,-0.9956055,0.2832031,0.2050781,-1,-3,-1,-2,0,1,1,1,21,4,-2,-9,-8,-5,-1,15,2.3125,2.3125,2.3125,6.875,6.875,6.875,2.415194,2.952574,4.475351,7.387532,7.026826,2.53921,-0.1279587,-0.4075275,1.64118,0.1535716,0.3248803,1.590608,0.0964469,0.4840046,1.747893,-0.0743719,-0.3967312,1.623871,0.1732776,0.344527,1.548378,0.07536957,0.01608281,1.746323,0.06372414,-0.3111322,1.728916,-0.08023785,0.1961631,1.737422,-0.02029085,-0.3045899,1.702621,-0.139784,-0.07330011,1.708548,0.2472891,0.01728338,1.543351,NA,NA,Unknown,Unknown,
0.9633789,-0.2807617,-0.007324219,-0.9365234,0.300293,0.09472656,-1,-3,-1,-2,0,1,1,1,-2,-2,-1,10,4,1,1,-2,2.3125,2.3125,2.3125,-15.25,-15.25,-15.25,2.415194,2.952574,4.475351,7.51516,7.030839,2.699161,-0.1274347,-0.4075947,1.641714,0.1485803,0.3293055,1.61553,0.09642324,0.4839731,1.747621,-0.0741682,-0.4128025,1.626515,0.1749575,0.3494181,1.575166,0.07529581,0.01585915,1.746141,0.06372241,-0.3113843,1.728704,-0.08030446,0.1957557,1.737096,-0.02027318,-0.3049007,1.702477,-0.139859,-0.07326014,1.708058,0.2469016,0.01780109,1.543427,NA,NA,Unknown,NotTracked,
0.9633789,-0.2807617,-0.007324219,-0.9697266,0.2949219,-0.237793,-1,-3,-1,-2,0,1,1,1,-4,-6,-3,-4,-1,2,1,-2,2.3125,2.3125,2.3125,-18,-18,-18,2.415194,2.952574,4.475351,7.913682,7.028587,3.147578,-0.1263232,-0.4081407,1.640641,0.1476747,0.325458,1.622555,0.09651499,0.4837561,1.747119,-0.07410076,-0.4019193,1.624832,0.1703255,0.3481761,1.58203,0.07490706,0.01577165,1.745711,0.06373598,-0.311339,1.728656,-0.08324359,0.1962087,1.73461,-0.02026313,-0.3049017,1.702481,-0.1398834,-0.07331875,1.707792,0.2472408,0.01804827,1.544761,NA,NA,Unknown,NotTracked,
0.9633789,-0.2807617,-0.007324219,-0.9384766,0.2998047,-0.07275391,-1,-3,-1,-2,0,1,1,1,-1,-7,-5,-3,-1,-1,-3,-1,2.3125,2.3125,2.3125,7.9375,7.9375,7.9375,2.415194,2.952574,4.475351,7.857605,7.027991,3.084468,-0.1258849,-0.4076087,1.639794,0.1465895,0.3279178,1.618537,0.09649715,0.4835397,1.746645,-0.0741366,-0.4012416,1.62472,0.16971,0.343961,1.573152,0.07458335,0.0155647,1.745124,0.06388165,-0.3113593,1.728275,-0.08285796,0.1960365,1.734591,-0.02009962,-0.3050181,1.702159,-0.1400848,-0.0734399,1.707514,0.2471973,0.01816889,1.544782,NA,NA,Unknown,NotTracked,
0.9633789,-0.2807617,-0.007324219,-0.9921875,0.2861328,0.02099609,-1,-3,-1,-2,0,1,1,1,-4,-3,2,4,2,-2,-2,0,2.3125,2.3125,2.3125,-0.75,-0.75,-0.75,2.415194,2.952574,4.475351,7.723555,7.030057,2.942886,-0.1262733,-0.4078525,1.64083,0.1479645,0.3239243,1.617548,0.09663001,0.483404,1.745893,-0.07418461,-0.4017225,1.624686,0.1717384,0.3450048,1.574073,0.07438728,0.01542316,1.74474,0.06390937,-0.3114364,1.728093,-0.08357206,0.1961662,1.733636,-0.02008332,-0.3051213,1.702035,-0.1400584,-0.07363538,1.707039,0.2474406,0.01762196,1.544892,NA,NA,Unknown,NotTracked,
0.9633789,-0.2807617,-0.007324219,-0.9604492,0.2832031,-0.08056641,-1,-3,-1,-2,0,1,1,1,12,7,3,1,0,1,1,9,2.3125,2.3125,2.3125,1.375,1.375,1.375,2.415194,2.952574,4.475351,7.73419,7.036106,2.95036,-0.1269641,-0.4077201,1.641633,0.1472489,0.3240166,1.617883,0.09674841,0.4834504,1.745419,-0.07410163,-0.4041778,1.624249,0.1666481,0.3437562,1.573356,0.07470282,0.01539842,1.744502,0.0640009,-0.3114544,1.727913,-0.08310954,0.1959574,1.733438,-0.01997696,-0.3051814,1.701801,-0.1401349,-0.07359211,1.706775,0.2477007,0.01728556,1.545431,NA,NA,Unknown,NotTracked,
0.9633789,-0.2807617,-0.007324219,-0.9023438,0.2983398,-0.02929688,-1,-3,-1,-2,0,1,1,1,12,20,-3,-2,-2,-3,-4,-8,2.3125,2.3125,2.3125,2.75,2.75,2.75,2.415194,2.952574,4.475351,7.668412,7.03322,2.873967,-0.1265985,-0.4077488,1.642843,0.1484094,0.3244981,1.611631,0.096781,0.4835456,1.744794,-0.07421175,-0.4032406,1.624885,0.1713283,0.3408339,1.564569,0.0745232,0.01535294,1.744293,0.06401458,-0.3114726,1.72787,-0.0824355,0.1961244,1.733213,-0.0199673,-0.3052162,1.70176,-0.1403218,-0.07361537,1.706652,0.2477116,0.01716011,1.545618,NA,NA,Unknown,NotTracked,
0.9633789,-0.2807617,-0.007324219,-0.8911133,0.2836914,0.00390625,-1,-3,-1,-2,0,1,1,1,-13,-19,-6,-5,-4,-1,-1,9,2.3125,2.3125,2.3125,1.625,1.625,1.625,2.415194,2.952574,4.475351,7.619793,7.031234,2.822865,-0.126025,-0.4083817,1.642609,0.1506097,0.3214753,1.596535,0.09671161,0.4837772,1.74403,-0.07527989,-0.4186653,1.627545,0.1713761,0.3325338,1.546366,0.07439633,0.01537528,1.744136,0.06404214,-0.3114266,1.727834,-0.08196089,0.1961711,1.733132,-0.01991656,-0.3051368,1.701587,-0.140269,-0.07341734,1.706496,0.2494436,0.01382349,1.550168,NA,NA,Unknown,Unknown,
0.9633789,-0.2807617,-0.007324219,-0.7299805,0.3115234,0.07177734,-1,-3,-1,-2,0,1,1,1,13,4,2,4,2,1,2,9,2.3125,2.3125,2.3125,14.5625,14.5625,14.5625,2.415194,2.952574,4.475351,7.200051,6.951402,2.363357,-0.1259638,-0.4084269,1.641672,0.1582031,0.2946576,1.552399,0.09577748,0.4845748,1.743109,-0.07512126,-0.4055466,1.626039,0.1916148,0.32037,1.520322,0.07410916,0.01541038,1.743823,0.06401315,-0.3112967,1.727769,-0.08184229,0.1961787,1.733179,-0.01997415,-0.3048894,1.701267,-0.1402514,-0.07342462,1.706463,0.255144,0.002348983,1.562335,NA,NA,Unknown,Unknown,
0.9633789,-0.2807617,-0.007324219,-0.6674805,0.3144531,0.1088867,-1,-3,-1,-2,0,1,1,1,3,0,0,1,1,1,0,5,2.3125,2.3125,2.3125,-9.9375,-9.9375,-9.9375,2.415194,2.952574,4.475351,6.820903,6.789895,1.955685,-0.1260977,-0.4088247,1.643772,0.1525376,0.2446559,1.508934,0.09432025,0.4854613,1.742937,-0.07467286,-0.4022986,1.625853,0.1801877,0.2789222,1.470584,0.07343915,0.01546447,1.743514,0.06377229,-0.3111612,1.727784,-0.08221335,0.1964018,1.733764,-0.02025397,-0.3047441,1.701349,-0.1401501,-0.07373124,1.706561,0.2612516,-0.01129782,1.583918,NA,NA,Unknown,Unknown,
0.9633789,-0.2807617,-0.007324219,-0.7182617,0.2749023,0.2470703,-1,-3,-1,-2,0,1,1,1,-2,1,0,-2,-2,-1,-2,-4,2.3125,2.3125,2.3125,-34.0625,-34.0625,-34.0625,2.415194,2.952574,4.475351,6.41156,6.328966,1.53881,-0.1262167,-0.4091859,1.645414,0.146556,0.1471517,1.459607,0.09386808,0.4852137,1.742938,-0.07470528,-0.4027684,1.626089,0.1658212,0.189734,1.426316,0.0726953,0.01523213,1.743705,0.06360546,-0.3112935,1.727829,-0.08493309,0.1961832,1.733584,-0.0204062,-0.3049695,1.70137,-0.1398393,-0.07386566,1.707006,0.2827388,-0.02191365,1.616373,NA,NA,NotTracked,Closed,
0.9633789,-0.2807617,-0.007324219,-0.512207,0.5507813,0.5371094,-1,-3,-1,-2,0,1,1,1,27,6,2,0,-2,-1,-1,2,2.3125,2.3125,2.3125,-15.125,-15.125,-15.125,2.415194,2.952574,4.475351,6.216434,5.401403,1.249312,-0.1271818,-0.4085778,1.645863,0.1497389,0.0168336,1.41728,0.09375573,0.4854271,1.742825,-0.07429274,-0.4148632,1.626172,0.1053324,0.06839577,1.5138,0.07290041,0.01657748,1.74496,0.06357989,-0.308304,1.728309,-0.08639204,0.1955499,1.732917,-0.01960228,-0.3014591,1.69827,-0.1395395,-0.07423677,1.70743,0.2971085,-0.0300015,1.644327,NA,NA,NotTracked,Unknown,
0.9633789,-0.2807617,-0.007324219,0.1474609,0.4887695,0.6459961,-1,-3,-1,-2,0,1,1,1,-10,-5,-3,-4,2,-2,-2,-1,2.3125,2.3125,2.3125,35,35,35,2.415194,2.952574,4.475351,6.223326,4.997932,1.153778,-0.127938,-0.4086952,1.647601,0.143874,-0.124816,1.379705,0.09328626,0.4855655,1.742711,-0.07501702,-0.409264,1.626332,0.1146472,-0.1764057,1.466333,0.07324219,0.01712529,1.745565,0.06362835,-0.307485,1.728386,-0.08694139,0.195101,1.733206,-0.01935881,-0.3005939,1.696901,-0.1392717,-0.07503264,1.707629,0.3504297,-0.06973046,1.658223,NA,NA,NotTracked,Closed,
0.9633789,-0.2807617,-0.007324219,0.3330078,0.9750977,0.855957,-1,-3,-1,-2,0,1,1,1,9,-7,2,0,-3,3,3,2,2.3125,2.3125,2.3125,32.25,32.25,32.25,2.415194,2.952574,4.475351,6.300199,4.442913,1.085975,-0.1276401,-0.4099307,1.647449,0.1724779,-0.2552606,1.42354,0.09227666,0.485807,1.742894,-0.07452458,-0.4042687,1.62608,0.1367335,-0.2857341,1.511286,0.0731013,0.01740927,1.745901,0.061661,-0.3068311,1.727988,-0.08767034,0.1948022,1.733593,-0.02181444,-0.2991124,1.694998,-0.1393158,-0.0759251,1.70741,0.3352231,-0.05493906,1.661991,NA,NA,NotTracked,Unknown,
0.9633789,-0.2807617,-0.007324219,0.9345703,0.7680664,0.6601563,-1,-3,-1,-2,0,1,1,1,-2,0,-2,-2,1,0,0,-6,2.3125,2.3125,2.3125,-2.1875,-2.1875,-2.1875,2.415194,2.952574,4.475351,6.434792,3.828441,0.913445,-0.1262567,-0.4095848,1.645388,0.200017,-0.3397427,1.471548,0.0915378,0.4858863,1.743117,-0.07449523,-0.4040702,1.626838,0.1720672,-0.3614709,1.5041,0.07285412,0.01750292,1.746058,0.05946444,-0.3066003,1.727416,-0.08850597,0.194362,1.733805,-0.02428918,-0.2983235,1.693653,-0.1395187,-0.07712197,1.707415,0.2937892,-0.05291971,1.667822,NA,NA,NotTracked,Unknown,
0.9633789,-0.2807617,-0.007324219,1.001953,0.7143555,0.3544922,-1,-3,-1,-2,0,1,1,1,16,0,1,0,0,-5,-2,-1,2.3125,2.3125,2.3125,-45.3125,-45.3125,-45.3125,2.415194,2.952574,4.475351,6.55122,3.402255,0.6981186,-0.1260535,-0.4092844,1.64421,0.2250361,-0.390019,1.524996,0.09094673,0.4860791,1.742981,-0.07416575,-0.3936135,1.624519,0.2010247,-0.4121726,1.554917,0.07257994,0.01751658,1.745794,0.0595844,-0.3066527,1.727344,-0.08886663,0.1940907,1.733655,-0.02405936,-0.2984599,1.693324,-0.1394872,-0.07759572,1.707271,0.2921873,-0.05652672,1.667912,NA,NA,NotTracked,Lasso,
0.9633789,-0.2807617,-0.007324219,1.026367,0.4008789,0.2709961,-1,-3,-1,-2,0,1,1,1,7,2,-2,-2,-4,-1,0,-4,2.3125,2.3125,2.3125,-52,-52,-52,2.415194,2.952574,4.475351,6.597642,3.19914,0.5118994,-0.1265983,-0.4094446,1.644708,0.2392018,-0.4072312,1.571535,0.09047228,0.4866156,1.742575,-0.07431027,-0.4171829,1.626709,0.1978752,-0.3871301,1.57771,0.07279173,0.01762079,1.745555,0.06080227,-0.3065424,1.727199,-0.08936036,0.1936881,1.733342,-0.02243319,-0.2986906,1.692891,-0.1397129,-0.07863905,1.706903,0.2908151,-0.0634237,1.667992,NA,NA,NotTracked,Unknown,
0.9633789,-0.2807617,-0.007324219,1.089844,0.3481445,0.2822266,-1,-3,-1,-2,0,1,1,1,7,2,1,-2,-2,1,2,7,2.3125,2.3125,2.3125,-12.5625,-12.5625,-12.5625,2.415194,2.952574,4.475351,6.6835,3.086912,0.395658,-0.1277887,-0.4093324,1.645784,0.2484102,-0.4107104,1.591201,0.09024476,0.4869887,1.741874,-0.07435296,-0.4073985,1.625641,0.2001337,-0.3959547,1.574523,0.07376256,0.01782125,1.745264,0.0627369,-0.306754,1.726812,-0.08992176,0.1936703,1.732752,-0.02014973,-0.2993044,1.692208,-0.1397671,-0.08305293,1.705977,0.2905558,-0.06838049,1.669194,NA,NA,NotTracked,Unknown,
0.9633789,-0.2807617,-0.007324219,0.9980469,0.2573242,0.2382813,-1,-3,-1,-2,0,1,1,1,12,2,-2,0,1,-5,-1,2,2.3125,2.3125,2.3125,-28.375,-28.375,-28.375,2.415194,2.952574,4.475351,6.73715,3.040716,0.2822328,-0.129197,-0.408994,1.647202,0.2562378,-0.4074972,1.601581,0.09015476,0.4872507,1.741427,-0.07445078,-0.4064499,1.6256,0.2049618,-0.4040258,1.576022,0.07408568,0.01780972,1.745047,0.06435256,-0.3069039,1.726817,-0.09022988,0.1935301,1.73232,-0.01838886,-0.2997077,1.692043,-0.1402459,-0.08648977,1.705183,0.2908894,-0.07354227,1.672155,NA,NA,NotTracked,Unknown,
