ALX,ALY,ALZ,ARX,ARY,ARZ,EMG0L,EMG1L,EMG2L,EMG3L,EMG4L,EMG5L,EMG6L,EMG7L,EMG0R,EMG1R,EMG2R,EMG3R,EMG4R,EMG5R,EMG6R,EMG7R,GLX,GLY,GLZ,GRX,GRY,GRZ,ORL,OPL,OYL,ORR,OPR,OYR,LHNX,LHNY,LHNZ,RHNX,RHNY,RHNZ,HX,HY,HZ,LTX,LTY,LTZ,RTX,RTY,RTZ,SpineMidX,SpineMidY,SpineMidZ,SpineBaseX,SpineBaseY,SpineBaseZ,ShoulderLeftX,ShoulderLeftY,ShoulderLeftZ,ShoulderRightX,ShoulderRightY,ShoulderRightZ,ElbowLeftX,ElbowLeftY,ElbowLeftZ,ElbowRightX,ElbowRightY,ElbowRightZ,Myo_Pose_left,Myo_Pose_Right,Kinect_pose_left,Kinect_pose_right
0.5473633,-0.6098633,0.6166992,0.8979492,0.3085938,0.2421875,-3,-1,-5,-13,-14,-13,-7,-5,0,-1,-1,0,-2,-2,1,0,6.5,6.5,6.5,-0.0625,-0.0625,-0.0625,3.740138,4.084162,2.552473,6.508302,3.124539,6.577331,-0.04793297,-0.3447516,1.356024,0.292808,-0.5019317,1.541435,0.123913,0.3314462,1.612561,0.001075302,-0.3816936,1.370333,0.3356198,-0.4913161,1.548052,0.1174237,-0.1202111,1.63654,0.117505,-0.4333984,1.628828,-0.05431678,0.06774793,1.618815,0.04215105,-0.4244668,1.598068,-0.1122322,-0.1619016,1.62738,0.3194895,-0.1961144,1.62178,NA,NA,Unknown,NotTracked,
0.3183594,-0.6508789,0.6787109,0.8999023,0.328125,0.2324219,-1,2,-5,-4,-1,2,17,-1,-1,-2,0,0,-1,-1,-1,-2,-10.875,-10.875,-10.875,1.375,1.375,1.375,3.779368,4.53592,2.444574,6.516394,3.135911,6.575212,-0.01692738,-0.2393628,1.297225,0.2933545,-0.5013716,1.539789,0.1250969,0.3317676,1.614818,0.03565153,-0.2452217,1.300625,0.3393303,-0.4990844,1.552307,0.1193846,-0.1199777,1.636814,0.1204344,-0.4331224,1.628679,-0.05233006,0.0689359,1.619034,0.04548782,-0.4237986,1.59761,-0.1405769,-0.1681101,1.559273,0.3206601,-0.1952568,1.621662,NA,NA,Closed,NotTracked,
0.2094727,-0.6474609,0.690918,0.8950195,0.3369141,0.2543945,7,-1,-5,-6,-5,-4,-18,-10,0,0,-3,-2,-1,1,-4,-1,-13.875,-13.875,-13.875,4.375,4.375,4.375,3.766091,4.729096,2.389317,6.526251,3.150567,6.57159,-0.007765583,-0.1959835,1.281173,0.2933638,-0.5007868,1.536442,0.1255178,0.3319938,1.616122,0.04540272,-0.2111552,1.278667,0.3371176,-0.4986768,1.545511,0.1196837,-0.1197872,1.637248,0.1204663,-0.4329771,1.628837,-0.05172522,0.06934817,1.619103,0.04549172,-0.4234738,1.597708,-0.1420214,-0.1642961,1.550455,0.3212133,-0.1949214,1.621484,NA,NA,Unknown,NotTracked,
0.1665039,-0.6376953,0.7114258,0.8896484,0.3232422,0.2529297,0,-2,-1,3,3,-2,-9,-1,-1,-1,-2,0,0,0,-1,-2,-9.25,-9.25,-9.25,2.125,2.125,2.125,3.755048,4.827686,2.357401,6.534797,3.165795,6.566544,-0.0019164,-0.1628567,1.273618,0.2934096,-0.4997827,1.531555,0.1260435,0.3321592,1.61804,0.05238139,-0.1799667,1.2755,0.3345585,-0.5081639,1.529688,0.119836,-0.1195624,1.637646,0.1203022,-0.4327188,1.628996,-0.05028856,0.06977881,1.618832,0.04524311,-0.4229749,1.59787,-0.1201353,-0.120023,1.591398,0.322115,-0.1936539,1.621165,NA,NA,Unknown,NotTracked,
0.1015625,-0.6503906,0.6923828,0.890625,0.3129883,0.2607422,-4,-1,-2,-3,-3,-6,-30,-4,2,1,1,0,-1,-1,0,-7,-1.5,-1.5,-1.5,0.125,0.125,0.125,3.754844,4.895348,2.337252,6.543181,3.180873,6.556767,0.0006061984,-0.1403929,1.268375,0.2941369,-0.4981735,1.527888,0.1265012,0.3328589,1.620552,0.05533443,-0.1566266,1.27275,0.3405873,-0.4913291,1.538143,0.1198946,-0.1191561,1.638234,0.1200651,-0.4322657,1.62916,-0.04893183,0.07035533,1.618725,0.04495038,-0.4222503,1.597888,-0.1479781,-0.1583006,1.510233,0.3228641,-0.1936179,1.620896,NA,NA,Closed,NotTracked,
-0.09179688,-0.7680664,0.6865234,0.8857422,0.3149414,0.2568359,-1,-3,-2,-2,5,4,-4,0,3,0,-3,-2,-2,-2,1,1,0.3125,0.3125,0.3125,0.9375,0.9375,0.9375,3.749272,4.951982,2.322834,6.545737,3.192964,6.548917,0.002927605,-0.1277267,1.262794,0.2940459,-0.4974513,1.524188,0.1267218,0.3332869,1.622586,0.05354807,-0.1407433,1.259778,0.3336976,-0.4928821,1.51625,0.1198756,-0.1188956,1.638719,0.1197672,-0.4318943,1.629344,-0.04803847,0.07089973,1.618472,0.04461133,-0.4216501,1.597877,-0.1460638,-0.1551732,1.506578,0.3235477,-0.1937353,1.620383,NA,NA,Closed,NotTracked,
-0.1484375,-0.7548828,0.4091797,0.9047852,0.3710938,0.2114258,-2,2,0,1,3,-5,2,3,0,-1,-1,-1,0,-3,0,-1,-1.875,-1.875,-1.875,0.125,0.125,0.125,3.743383,4.961965,2.321874,6.54459,3.195712,6.555989,0.00396547,-0.1224214,1.261058,0.2952566,-0.4967608,1.52432,0.1268162,0.3334994,1.623933,0.05358467,-0.1372204,1.251778,0.3379849,-0.4862637,1.52725,0.1199013,-0.1185599,1.638968,0.1195102,-0.4313908,1.629275,-0.04719577,0.07115897,1.618299,0.04433722,-0.4208594,1.597575,-0.1454905,-0.1538847,1.505217,0.3239702,-0.1936787,1.619974,NA,NA,Closed,NotTracked,
0.6088867,-0.6660156,0.9023438,0.9140625,0.3652344,0.215332,-9,0,-1,2,-2,-16,15,-2,8,3,1,5,-1,-1,-2,1,0.3125,0.3125,0.3125,-1.125,-1.125,-1.125,3.758508,4.944948,2.314503,6.541487,3.199161,6.559134,0.006342947,-0.1202576,1.259882,0.2946212,-0.4930725,1.52122,0.1268101,0.3335793,1.625306,0.06098893,-0.134358,1.264,0.3359485,-0.4963115,1.521934,0.119923,-0.1184358,1.639206,0.1193197,-0.4311789,1.629239,-0.04662341,0.07134946,1.61811,0.04413486,-0.4204573,1.597395,-0.1420022,-0.1511808,1.495566,0.324649,-0.1932576,1.619996,NA,NA,Closed,NotTracked,
0.5390625,-0.7084961,1.098145,0.9677734,0.4575195,0.2524414,-6,-3,-3,-5,-6,-2,1,-4,2,5,8,8,-1,-4,1,2,-6.875,-6.875,-6.875,-21.25,-21.25,-21.25,3.77078,4.888068,2.310704,6.504312,3.265517,6.571778,0.007869512,-0.1188368,1.261039,0.2928447,-0.47738,1.508374,0.1267442,0.3337219,1.62654,0.05498854,-0.1363486,1.257535,0.3334572,-0.4769028,1.5095,0.1198817,-0.1180988,1.639574,0.1187381,-0.4306574,1.629166,-0.04627072,0.0714763,1.618268,0.0435851,-0.4198502,1.597262,-0.1418715,-0.1511408,1.495377,0.3268392,-0.1914954,1.620722,NA,NA,Closed,NotTracked,
0.1660156,-0.6821289,0.7441406,0.8876953,0.5175781,0.4555664,2,0,0,-1,-1,18,-9,6,26,-18,-15,-11,-4,3,-3,5,-2.1875,-2.1875,-2.1875,-4.5,-4.5,-4.5,3.775932,4.893308,2.305836,6.417492,3.450512,6.635239,0.00915277,-0.1166064,1.260608,0.2787234,-0.4533194,1.473696,0.1266327,0.3336684,1.626935,0.05861426,-0.1319499,1.257979,0.2526181,-0.4890158,1.486273,0.1193268,-0.1176985,1.639876,0.1162112,-0.4295044,1.62862,-0.04609827,0.07146683,1.618271,0.0409232,-0.4184072,1.596702,-0.1417111,-0.1508769,1.495066,0.331877,-0.184699,1.621714,NA,NA,Closed,NotTracked,
-0.1904297,-0.7836914,0.8598633,0.7695313,0.6030273,0.5517578,-4,-1,-1,3,0,1,0,4,9,7,9,10,6,-4,-6,-12,-6.5625,-6.5625,-6.5625,8.4375,8.4375,8.4375,3.775515,4.903169,2.300318,6.379531,3.587267,6.690833,0.01084326,-0.1149954,1.261137,0.2610785,-0.4090576,1.424937,0.1265361,0.3336435,1.62711,0.06269049,-0.13231,1.265287,0.2284464,-0.4231506,1.440885,0.1178918,-0.1170902,1.640393,0.1108082,-0.4276175,1.628243,-0.04575511,0.07167505,1.618431,0.03515714,-0.415895,1.596071,-0.1399521,-0.1492491,1.492957,0.341889,-0.1684991,1.620551,NA,NA,Closed,Unknown,
-0.1245117,-0.7163086,0.9394531,0.6914063,0.621582,0.6357422,0,0,3,6,3,3,-6,1,5,-1,3,-12,-4,4,-3,3,-6.5,-6.5,-6.5,7.75,7.75,7.75,3.769984,4.915533,2.294167,6.349175,3.747463,6.742209,0.01184166,-0.1120256,1.261762,0.2385153,-0.3390045,1.383978,0.1264285,0.3333282,1.627228,0.0641349,-0.1245224,1.257667,0.1913932,-0.3819495,1.450789,0.1162822,-0.1166273,1.640892,0.1058152,-0.4262564,1.627913,-0.04538424,0.07173054,1.618537,0.03029683,-0.4140424,1.595796,-0.1398194,-0.1491816,1.492775,0.3508762,-0.150497,1.61478,NA,NA,Closed,Unknown,
0.4008789,-0.6923828,1.080078,0.3022461,0.6547852,0.7192383,3,-3,-4,-4,-4,4,8,-2,-22,10,17,7,-6,0,2,-4,-6.5,-6.5,-6.5,9.1875,9.1875,9.1875,3.775026,4.924933,2.279671,6.312517,4.333878,6.863723,0.01325649,-0.1085515,1.261452,0.2278163,-0.2538169,1.33726,0.1263774,0.332838,1.627487,0.06594165,-0.1221912,1.263082,0.1796789,-0.2487494,1.381182,0.1149704,-0.1163768,1.641537,0.1027097,-0.4252563,1.627529,-0.04527576,0.07188135,1.618737,0.02745385,-0.4128456,1.595562,-0.1400628,-0.1490207,1.49262,0.3555434,-0.1333199,1.604833,NA,NA,Closed,Unknown,
0.5351563,-0.6279297,0.855957,0.1708984,0.5947266,0.703125,-3,0,-3,-6,-2,-5,7,-4,70,7,-4,1,5,3,-2,1,-2.625,-2.625,-2.625,13.875,13.875,13.875,3.767497,4.95339,2.270044,6.312641,4.535079,6.894935,0.01423778,-0.1050857,1.261567,0.2146273,-0.1836302,1.309214,0.1263869,0.3323208,1.627622,0.0641735,-0.1231672,1.261775,0.1883337,-0.14971,1.3125,0.1146595,-0.1161959,1.641838,0.1020295,-0.4246663,1.627519,-0.04493987,0.07202491,1.619026,0.02682205,-0.4123355,1.595744,-0.1408167,-0.1481495,1.493846,0.3928708,-0.1356495,1.53733,NA,NA,Closed,Unknown,
-0.2006836,-0.7998047,0.8701172,0.09375,0.6269531,0.6557617,1,0,-4,0,2,3,0,1,-71,-12,-21,-14,-12,-5,-19,-17,-6.125,-6.125,-6.125,26.9375,26.9375,26.9375,3.75576,4.982643,2.262249,6.333022,4.715904,6.92556,0.01617412,-0.1018626,1.262933,0.2072432,-0.1348595,1.296,0.1263861,0.332009,1.627851,0.06474357,-0.1147839,1.263327,0.1768701,-0.1047483,1.288889,0.1144297,-0.1158787,1.642486,0.1016055,-0.4237177,1.627759,-0.04463065,0.07242336,1.619599,0.02644271,-0.4114165,1.596297,-0.140928,-0.1477231,1.493959,0.3629149,-0.1086614,1.550176,NA,NA,NotTracked,Lasso,
0.02929688,-0.7695313,1.006348,0.09179688,0.6713867,0.6220703,-1,1,-3,-3,-2,1,-4,-3,-29,3,2,-2,14,0,2,1,-4.1875,-4.1875,-4.1875,24.4375,24.4375,24.4375,3.748382,4.997432,2.255843,6.401664,5.018615,7.001474,0.01735398,-0.09920748,1.261603,0.2019122,-0.1105802,1.287117,0.1264009,0.3315655,1.628314,0.0574561,-0.1211374,1.264154,0.1910334,-0.07007889,1.265158,0.1139886,-0.1155001,1.642852,0.100744,-0.4226698,1.627904,-0.04455269,0.07240487,1.620147,0.02578625,-0.4104529,1.596828,-0.1405404,-0.1464085,1.492834,0.359547,-0.1096627,1.523161,NA,NA,NotTracked,NotTracked,
0.2045898,-0.6547852,0.59375,0.05517578,0.7089844,0.6630859,2,1,0,-2,-1,-4,2,0,-10,-11,-11,-8,-16,-5,0,0,0.125,0.125,0.125,20.5625,20.5625,20.5625,3.757905,4.975089,2.253682,6.421305,5.050244,7.019721,0.018551,-0.09744599,1.263794,0.1882896,-0.09508129,1.279067,0.1263872,0.3313116,1.628777,0.06706502,-0.1111165,1.265727,0.1201845,-0.08599661,1.300645,0.1137462,-0.1151912,1.643286,0.1002196,-0.4215012,1.627819,-0.04413375,0.07255648,1.621203,0.02545807,-0.4095956,1.596996,-0.1405387,-0.1462598,1.492404,0.3609706,-0.1091807,1.515072,NA,NA,NotTracked,NotTracked,
-0.3701172,-0.8110352,0.1762695,-0.06933594,0.7900391,0.637207,0,-3,-2,-2,-3,-2,4,-1,3,2,16,16,31,0,-2,0,-3.3125,-3.3125,-3.3125,15.375,15.375,15.375,3.672343,5.068919,2.24883,6.456937,5.086613,7.05242,0.01128583,-0.09694777,1.265437,0.04056138,-0.09042676,1.261879,0.1263596,0.3310565,1.629577,0.05713477,-0.1177352,1.264576,0.01205064,-0.1263776,1.257467,0.1134289,-0.1149964,1.643705,0.09973316,-0.4208397,1.627898,-0.04393884,0.07265753,1.622005,0.02508709,-0.4089751,1.597405,-0.1405879,-0.1464451,1.492424,0.3610284,-0.1079292,1.505799,NA,NA,NotTracked,NotTracked,
0.3271484,-0.6513672,1.285156,-0.1499023,0.8061523,0.6181641,-1,-2,-5,-5,-3,-1,2,-1,-6,-7,-6,-5,-14,-2,8,-1,-1.3125,-1.3125,-1.3125,15.6875,15.6875,15.6875,3.693793,5.041571,2.245396,6.484864,5.107635,7.069921,0.003683662,-0.09663456,1.270387,0.04171256,-0.08701771,1.262207,0.1263484,0.3310095,1.630256,0.03476617,-0.1199938,1.261643,0.02895108,-0.118495,1.257677,0.1132976,-0.1148442,1.643853,0.0994662,-0.4201338,1.627801,-0.04392828,0.07300439,1.623076,0.02494262,-0.4084423,1.597589,-0.1244525,-0.1053238,1.554149,0.3604067,-0.1065159,1.49881,NA,NA,NotTracked,NotTracked,
0.4882813,-0.6118164,1.165527,-0.1914063,0.8256836,0.6293945,-2,-2,-4,-4,-6,-3,-4,-3,-8,-2,-2,0,5,2,-13,14,-5.25,-5.25,-5.25,10.8125,10.8125,10.8125,3.683692,5.056469,2.243389,6.497485,5.12776,7.065773,0.0143697,-0.09154279,1.267857,0.1682755,-0.06939054,1.253038,0.1263345,0.3310649,1.630806,0.07721855,-0.07784302,1.272111,0.1663262,-0.1043683,1.222505,0.1132085,-0.1147608,1.643997,0.09937259,-0.419896,1.627764,-0.04535257,0.07239225,1.624178,0.02489774,-0.408299,1.597677,-0.124691,-0.1060359,1.553866,0.3594436,-0.1046179,1.488028,NA,NA,NotTracked,NotTracked,
-0.3852539,-0.7929688,0.6870117,-0.1791992,0.7983398,0.5883789,-2,0,-3,0,-6,-3,-9,2,1,2,0,0,1,-2,-3,33,-5.375,-5.375,-5.375,7.875,7.875,7.875,3.676472,5.087446,2.237873,6.509638,5.191107,6.995295,0.01427691,-0.08925495,1.267409,0.1627833,-0.06275297,1.231458,0.1264059,0.3312067,1.631508,0.07696539,-0.09241428,1.269982,0.07536905,-0.09379469,1.258053,0.1132155,-0.1146688,1.644083,0.09936861,-0.4196943,1.627729,-0.04513333,0.07256624,1.624551,0.02493208,-0.40816,1.597821,-0.1243779,-0.1056497,1.553416,0.3562386,-0.1027191,1.471522,NA,NA,NotTracked,NotTracked,
-0.04101563,-0.7338867,0.6982422,-0.1606445,0.7851563,0.6025391,3,-2,-1,-2,-2,0,-1,11,3,1,1,0,-4,-2,2,-32,-4.6875,-4.6875,-4.6875,7.875,7.875,7.875,3.67066,5.08917,2.236852,6.510245,5.197178,6.974874,0.01394305,-0.0875879,1.266258,0.1795757,-0.06553647,1.207109,0.1266508,0.3315706,1.632782,0.07597324,-0.08966631,1.270452,0.1808886,-0.09924999,1.173898,0.1130823,-0.1145975,1.644311,0.09932164,-0.4195212,1.627663,-0.04489839,0.07274109,1.624823,0.02491719,-0.408038,1.597873,-0.1240112,-0.1052779,1.552871,0.3513953,-0.09918783,1.445877,NA,NA,NotTracked,NotTracked,
-0.07226563,-0.7382813,0.699707,-0.04052734,0.7172852,0.5810547,4,-1,-2,-1,-1,2,-4,3,-1,-1,-6,-3,-7,2,3,-1,-2.8125,-2.8125,-2.8125,17.0625,17.0625,17.0625,3.666068,5.102855,2.239512,6.525799,5.123738,6.847683,0.0169093,-0.08338632,1.263398,0.1909519,-0.08420926,1.184281,0.1269535,0.3315127,1.634105,0.07931693,-0.08747959,1.274372,0.1860569,-0.1168517,1.154115,0.1130541,-0.1143866,1.644823,0.09932111,-0.4193314,1.62774,-0.044762,0.07302031,1.625337,0.02497781,-0.4078244,1.598147,-0.1235108,-0.1053305,1.55114,0.3460972,-0.08273266,1.451113,NA,NA,NotTracked,NotTracked,
-0.07958984,-0.7382813,0.6865234,0.1044922,0.6699219,0.5703125,-2,0,2,0,0,2,8,-3,-2,2,1,1,-3,-5,-15,42,-0.0625,-0.0625,-0.0625,16.3125,16.3125,16.3125,3.667032,5.111726,2.244269,6.544232,5.000257,6.812635,0.01672535,-0.08114635,1.262345,0.1993317,-0.1143372,1.171849,0.127094,0.3316319,1.635009,0.07788832,-0.08230571,1.267976,0.1976225,-0.1474255,1.138391,0.1130451,-0.1143493,1.645101,0.09928505,-0.4193548,1.627736,-0.04581848,0.07287215,1.626331,0.02498246,-0.4078217,1.598294,-0.1236268,-0.1054096,1.550757,0.3401461,-0.08162787,1.431558,NA,NA,Closed,NotTracked,
-0.06689453,-0.75,0.6875,0.1469727,0.6889648,0.5537109,4,-4,3,3,0,0,5,-4,-2,-4,-2,1,-3,-3,4,-8,0.1875,0.1875,0.1875,20.9375,20.9375,20.9375,3.668921,5.118117,2.251919,6.558855,4.903521,6.799017,0.01665917,-0.07954857,1.26016,0.2002327,-0.1550746,1.169756,0.1271851,0.3318007,1.636085,0.07737949,-0.08315991,1.270028,0.2040377,-0.1902696,1.14025,0.1130392,-0.1143221,1.64525,0.09931447,-0.4194291,1.627619,-0.04578489,0.07304162,1.626703,0.02499699,-0.4078548,1.59827,-0.1239828,-0.1054681,1.550359,0.3340458,-0.07676236,1.453542,NA,NA,Closed,Unknown,
-0.06787109,-0.7612305,0.6787109,0.3061523,0.7285156,0.5405273,-2,2,-2,-1,5,3,-2,0,12,-2,-2,-5,-9,-3,-3,-21,0.6875,0.6875,0.6875,6.3125,6.3125,6.3125,3.671984,5.122722,2.262159,6.578947,4.684992,6.785442,0.01548077,-0.07864407,1.258089,0.1948157,-0.2009849,1.177352,0.1272906,0.3320571,1.636973,0.07129731,-0.0935128,1.26275,0.2030094,-0.2376192,1.148267,0.1131899,-0.114342,1.645474,0.09917008,-0.4195524,1.627346,-0.04544181,0.07324078,1.626834,0.02492563,-0.4079225,1.59816,-0.1228565,-0.1060446,1.547732,0.3423746,-0.1034711,1.409457,NA,NA,Closed,Unknown,
-0.07617188,-0.7612305,0.6738281,0.3847656,0.8129883,0.5014648,-1,1,-1,-2,-3,-6,-5,-5,14,0,1,-1,1,-1,8,-7,-0.4375,-0.4375,-0.4375,6.8125,6.8125,6.8125,3.671329,5.123256,2.266734,6.592548,4.526683,6.788839,0.01582682,-0.07790533,1.257644,0.1947285,-0.2460855,1.197332,0.1274528,0.3320211,1.637568,0.0788803,-0.07961905,1.269902,0.2028753,-0.2823082,1.1732,0.1131447,-0.1143831,1.645521,0.09865493,-0.4199695,1.627025,-0.04519102,0.07342297,1.62706,0.02467258,-0.4080532,1.598073,-0.122741,-0.106671,1.545908,0.3392014,-0.1114652,1.414267,NA,NA,Closed,Unknown,
-0.08496094,-0.7583008,0.6933594,0.4580078,0.8295898,0.4614258,-4,-2,2,5,4,3,0,-1,13,1,4,0,6,0,6,-15,-1.9375,-1.9375,-1.9375,8.1875,8.1875,8.1875,3.667717,5.120772,2.274242,6.596854,4.387904,6.807881,0.01424485,-0.07824168,1.255032,0.1967861,-0.2804232,1.226163,0.1275021,0.3320009,1.637725,0.07150677,-0.08946948,1.257714,0.2077726,-0.3258984,1.209429,0.1128465,-0.1146251,1.645485,0.09768987,-0.4210447,1.626372,-0.04511342,0.07340162,1.627032,0.0239554,-0.4084954,1.59761,-0.122706,-0.106996,1.544659,0.3394965,-0.1260094,1.426345,NA,NA,Closed,Unknown,
-0.078125,-0.7446289,0.6870117,0.53125,0.902832,0.4750977,-2,-1,0,0,-2,-1,0,-2,-14,-11,-30,-14,-11,-1,4,-6,-1.5,-1.5,-1.5,13.1875,13.1875,13.1875,3.666684,5.117208,2.278908,6.6093,4.247453,6.871273,0.01382068,-0.0791278,1.253639,0.1903889,-0.3039184,1.256603,0.1276303,0.3320194,1.637908,0.07447717,-0.0852695,1.264333,0.1953853,-0.3536558,1.248167,0.1126062,-0.1147388,1.645508,0.0970466,-0.4215175,1.62621,-0.04506698,0.07339389,1.627021,0.02333956,-0.4086421,1.597487,-0.1226993,-0.1073134,1.544001,0.3403563,-0.1384661,1.440003,NA,NA,Closed,Unknown,
-0.078125,-0.7490234,0.6958008,0.4736328,0.902832,0.5317383,-3,-2,-1,1,-1,-3,-2,5,0,-11,-4,-2,9,2,-5,-9,-1.0625,-1.0625,-1.0625,0.75,0.75,0.75,3.666227,5.110812,2.281667,6.580947,4.206874,6.976692,0.01279226,-0.08038022,1.25115,0.182805,-0.3069839,1.285741,0.1276847,0.3320256,1.637915,0.07120391,-0.08778379,1.254444,0.1847309,-0.3543778,1.276286,0.1123417,-0.1149436,1.64528,0.09619259,-0.4222702,1.625802,-0.04460557,0.07321075,1.626474,0.02244039,-0.4088633,1.59692,-0.1228443,-0.1072502,1.542956,0.347166,-0.1439257,1.461738,NA,NA,Closed,Unknown,
-0.06835938,-0.7402344,0.7001953,0.4042969,0.9101563,0.5698242,4,0,-2,1,-4,1,5,0,4,6,20,17,8,4,-2,-1,-1.0625,-1.0625,-1.0625,-3,-3,-3,3.66686,5.106767,2.279523,6.545926,4.243842,7.056075,0.01370035,-0.08162844,1.250041,0.180341,-0.289607,1.309909,0.1279295,0.3320841,1.637548,0.07144439,-0.08834295,1.256857,0.1821229,-0.3099548,1.276346,0.1123252,-0.1149883,1.644937,0.09617481,-0.4224474,1.625539,-0.04418259,0.07327461,1.625889,0.02243954,-0.4089747,1.596234,-0.1230441,-0.1079268,1.540153,0.3634484,-0.1357473,1.497912,NA,NA,Closed,Unknown,
-0.06201172,-0.7441406,0.6938477,0.324707,0.8833008,0.609375,0,-4,-2,-4,-5,-3,-20,-3,13,-5,-11,-5,1,1,-4,-1,-0.0625,-0.0625,-0.0625,-14.8125,-14.8125,-14.8125,3.669136,5.101109,2.272255,6.501049,4.334429,7.11799,0.01452316,-0.08291852,1.248401,0.1734486,-0.2601705,1.324297,0.1281956,0.3320011,1.636906,0.07348567,-0.08568953,1.256758,0.1623963,-0.2705459,1.280928,0.1125268,-0.1150837,1.644616,0.09662375,-0.4225826,1.625286,-0.04528147,0.07280921,1.625692,0.02315041,-0.4091978,1.595479,-0.1232949,-0.1076869,1.538613,0.3762078,-0.1341038,1.509213,NA,NA,Closed,Unknown,
-0.05126953,-0.7495117,0.6875,0.1777344,0.8618164,0.6308594,1,1,-6,-7,-3,-3,1,0,-26,-9,-7,-1,-4,0,-10,-3,-0.375,-0.375,-0.375,-14.9375,-14.9375,-14.9375,3.669409,5.096497,2.263417,6.46576,4.468211,7.156032,0.01646278,-0.08385509,1.249333,0.1666083,-0.2221901,1.330722,0.1285904,0.331867,1.636211,0.07431108,-0.08887985,1.258383,0.13021,-0.1957185,1.395286,0.1131449,-0.1150303,1.64438,0.09815594,-0.4225742,1.62529,-0.04430851,0.07321505,1.624224,0.0247649,-0.4094993,1.595022,-0.1232344,-0.1071323,1.538553,0.3885363,-0.1335372,1.515468,NA,NA,Closed,Unknown,
-0.04931641,-0.7553711,0.6918945,0.06738281,0.784668,0.5981445,-2,-4,3,5,1,3,-1,-2,16,2,17,-1,12,2,-7,-2,0.8125,0.8125,0.8125,1.375,1.375,1.375,3.670348,5.093531,2.25465,6.445381,4.679311,7.175787,0.01837346,-0.08464739,1.24905,0.1631795,-0.1839885,1.327156,0.1289602,0.3320382,1.635564,0.07508679,-0.089755,1.256428,0.1137504,-0.1573268,1.33704,0.113629,-0.1147983,1.644008,0.09934048,-0.4219958,1.62514,-0.04325902,0.07361504,1.622904,0.02564033,-0.4092246,1.594641,-0.123594,-0.106875,1.539147,0.3646764,-0.1056597,1.537174,NA,NA,NotTracked,Unknown,
-0.05029297,-0.7539063,0.699707,0.02685547,0.7666016,0.6044922,1,-3,0,-2,-1,1,-6,-2,-1,-2,-4,-3,0,2,2,3,1.0625,1.0625,1.0625,5.8125,5.8125,5.8125,3.672503,5.093513,2.248434,6.45364,4.826997,7.166787,0.02108822,-0.08691283,1.25224,0.1545416,-0.1508234,1.31587,0.1291625,0.3319853,1.635274,0.07639363,-0.1320526,1.311591,0.1670268,-0.1213541,1.293617,0.1138538,-0.1145715,1.643864,0.1002159,-0.4212028,1.624949,-0.04296339,0.07350713,1.622373,0.0262822,-0.4086693,1.59439,-0.1236241,-0.1074325,1.539077,0.3647598,-0.1049823,1.536451,NA,NA,NotTracked,NotTracked,
-0.06103516,-0.7578125,0.6904297,0.0078125,0.7504883,0.6005859,3,-2,1,-1,-2,-3,-3,3,-11,-6,-11,-3,-10,0,-3,2,-0.1875,-0.1875,-0.1875,7.375,7.375,7.375,3.674071,5.09626,2.24413,6.464809,4.942019,7.138186,0.01256319,-0.08555273,1.249598,0.03481441,-0.08477067,1.245329,0.1292091,0.3319852,1.635155,0.06034427,-0.06164219,1.24,0.0487275,-0.06541951,1.219398,0.1139863,-0.114259,1.64361,0.1006172,-0.4202876,1.624655,-0.04251583,0.07371582,1.621766,0.02669225,-0.4077616,1.59402,-0.1229692,-0.1065039,1.540004,0.3608252,-0.1034233,1.520784,NA,NA,NotTracked,NotTracked,
-0.06054688,-0.7436523,0.6899414,-0.03857422,0.7485352,0.6132813,1,0,0,4,5,2,-4,3,1,6,3,-4,-6,-3,-5,-7,-1.0625,-1.0625,-1.0625,6.125,6.125,6.125,3.674056,5.096337,2.243714,6.475323,5.048985,7.088974,0.01119941,-0.08580936,1.251508,0.03521153,-0.08389556,1.246973,0.1292178,0.3319983,1.635095,0.06704972,-0.09910923,1.236727,0.04823171,-0.06494652,1.219668,0.1140753,-0.1138848,1.643478,0.1009441,-0.419381,1.624594,-0.04387698,0.07324276,1.622328,0.02704048,-0.4071317,1.59394,-0.1227706,-0.1063149,1.54019,0.3613802,-0.1047196,1.508337,NA,NA,NotTracked,NotTracked,
-0.06201172,-0.75,0.6918945,-0.06835938,0.7792969,0.590332,6,-3,-3,-1,-9,-4,0,2,5,-2,-6,-2,-5,-4,-3,-1,-1.625,-1.625,-1.625,4.375,4.375,4.375,3.671999,5.096029,2.244028,6.478876,5.097347,7.052686,0.01552934,-0.08459409,1.252548,0.03794121,-0.08145598,1.249324,0.1292956,0.3321672,1.635222,0.06849612,-0.09607875,1.239701,0.04685184,-0.0633158,1.222736,0.1142303,-0.1137857,1.643521,0.1010942,-0.4192398,1.624705,-0.04423117,0.07283007,1.62257,0.0271953,-0.40705,1.594039,-0.1220311,-0.105535,1.540604,0.361756,-0.104708,1.501243,NA,NA,NotTracked,NotTracked,
-0.07324219,-0.7475586,0.6787109,-0.07714844,0.7666016,0.5996094,-1,-1,-4,-5,-7,-4,-4,-2,-2,3,4,3,-5,1,1,8,-1.25,-1.25,-1.25,3.4375,3.4375,1.3125,3.670704,5.096383,2.243544,6.478144,5.129087,7.00828,-0.008963056,-0.1003847,1.276104,0.03972128,-0.0801309,1.249457,0.1294122,0.3322274,1.635444,0.009242805,-0.1178818,1.249133,0.04717287,-0.06234804,1.224207,0.114281,-0.1137354,1.643567,0.101128,-0.4191641,1.624829,-0.04596314,0.07202184,1.623428,0.02723271,-0.407061,1.594216,-0.1219704,-0.1055337,1.540506,0.361842,-0.1050708,1.49626,NA,NA,NotTracked,NotTracked,
-0.06982422,-0.7519531,0.6875,-0.04833984,0.7753906,0.6308594,-2,-2,2,3,4,-1,6,1,-3,9,8,4,1,-2,5,-5,-2.3125,-2.3125,-2.3125,-2.75,-2.75,-2.75,3.667845,5.096107,2.243062,6.471356,5.12924,6.978178,0.001281468,-0.09308091,1.261521,0.04979657,-0.07926819,1.250007,0.129547,0.3323485,1.63577,0.008587263,-0.1172176,1.247259,0.04692853,-0.06284583,1.22347,0.1142974,-0.113689,1.643606,0.1011885,-0.4189577,1.624938,-0.04707917,0.07166933,1.623985,0.02731748,-0.4069987,1.594428,-0.1219133,-0.1056454,1.540702,0.3609917,-0.1041455,1.491154,NA,NA,NotTracked,NotTracked,
-0.06347656,-0.7402344,0.6835938,-0.05957031,0.7797852,0.6176758,-1,-3,-1,-4,0,-1,-2,-1,-2,-2,-4,-3,-1,0,1,17,-1.625,-1.625,-1.625,-4.3125,-4.3125,-4.3125,3.667674,5.095752,2.242538,6.463917,5.125747,6.963492,0.006211147,-0.08909386,1.256992,0.04802582,-0.07926259,1.249265,0.1296471,0.3324694,1.635898,0.03464036,-0.1120923,1.247,0.04388975,-0.05965172,1.22825,0.1143072,-0.1136424,1.643641,0.1012423,-0.4187977,1.625034,-0.04656917,0.07190958,1.624025,0.02736891,-0.4069323,1.594546,-0.1217947,-0.1055819,1.540717,0.3597226,-0.104683,1.487437,NA,NA,NotTracked,NotTracked,
-0.05810547,-0.7563477,0.6855469,-0.04980469,0.7880859,0.6381836,2,-1,1,0,-3,0,0,2,-2,0,1,-4,0,0,-4,-12,-1.3125,-1.3125,-1.3125,-2.9375,-2.9375,-2.9375,3.667598,5.09251,2.245581,6.451908,5.108539,6.953258,0.007593427,-0.08850301,1.254574,0.05030293,-0.07968718,1.248513,0.1297748,0.3325983,1.636071,0.02161281,-0.1153479,1.247474,0.0469234,-0.0626374,1.224549,0.1143768,-0.1135235,1.643631,0.1013362,-0.4186255,1.625063,-0.04518983,0.07258462,1.623513,0.02745483,-0.4068278,1.594632,-0.1216919,-0.1056088,1.540485,0.3588582,-0.1055092,1.485757,NA,NA,NotTracked,NotTracked,
-0.06298828,-0.7524414,0.6884766,-0.08789063,0.8286133,0.6206055,-2,-5,0,1,4,2,-6,2,1,0,-5,2,22,1,-4,-4,0.125,0.125,0.125,-4.1875,-4.1875,-4.1875,3.668327,5.089206,2.247542,6.444939,5.102325,6.950646,0.01692086,-0.08677641,1.252526,0.1810958,-0.09523175,1.263656,0.1298913,0.3326246,1.636045,0.07849666,-0.09064099,1.260143,0.1160588,-0.07921138,1.28225,0.1144903,-0.1133893,1.643529,0.101412,-0.4185182,1.62503,-0.04436771,0.07287912,1.623071,0.02753812,-0.4067312,1.594603,-0.1216962,-0.1055298,1.540875,0.3573229,-0.1065912,1.483956,NA,NA,NotTracked,NotTracked,
-0.06542969,-0.7514648,0.6884766,-0.08300781,0.815918,0.6313477,-2,1,-1,0,2,0,-1,-2,-4,-6,-7,-4,2,-3,-5,-12,-1,-1,-1,-2.0625,-2.0625,-2.0625,3.668496,5.08707,2.247389,6.441144,5.098086,6.947107,0.01635732,-0.08785103,1.252709,0.1721096,-0.09285855,1.261111,0.1299762,0.3326326,1.636067,0.07736524,-0.09182866,1.259198,0.1473864,-0.1293775,1.242643,0.1145732,-0.1133386,1.643465,0.1014412,-0.4183679,1.624995,-0.04336747,0.07334513,1.622747,0.02755202,-0.4065984,1.594613,-0.1217089,-0.1057619,1.540962,0.3570104,-0.1069495,1.483143,NA,NA,NotTracked,NotTracked,
-0.04980469,-0.7407227,0.6884766,-0.07666016,0.809082,0.6264648,0,-4,-2,-3,-2,-6,4,1,0,-2,0,4,3,-2,0,-4,0.6875,0.6875,0.6875,0.75,0.75,0.75,3.671943,5.084942,2.248599,6.442124,5.097788,6.941831,0.01692456,-0.08802511,1.252702,0.1726205,-0.09244801,1.260241,0.1300427,0.3327618,1.636002,0.08185527,-0.08223335,1.262048,0.1461979,-0.1286474,1.247189,0.1146147,-0.1133228,1.643394,0.1014594,-0.4183294,1.624983,-0.04271112,0.07342761,1.62227,0.02756317,-0.4065423,1.594604,-0.1215978,-0.1057816,1.541217,0.356608,-0.1072278,1.482495,NA,NA,NotTracked,NotTracked,
