ALX,ALY,ALZ,ARX,ARY,ARZ,EMG0L,EMG1L,EMG2L,EMG3L,EMG4L,EMG5L,EMG6L,EMG7L,EMG0R,EMG1R,EMG2R,EMG3R,EMG4R,EMG5R,EMG6R,EMG7R,GLX,GLY,GLZ,GRX,GRY,GRZ,ORL,OPL,OYL,ORR,OPR,OYR,LHNX,LHNY,LHNZ,RHNX,RHNY,RHNZ,HX,HY,HZ,LTX,LTY,LTZ,RTX,RTY,RTZ,SpineMidX,SpineMidY,SpineMidZ,SpineBaseX,SpineBaseY,SpineBaseZ,ShoulderLeftX,ShoulderLeftY,ShoulderLeftZ,ShoulderRightX,ShoulderRightY,ShoulderRightZ,ElbowLeftX,ElbowLeftY,ElbowLeftZ,ElbowRightX,ElbowRightY,ElbowRightZ,Myo_Pose_left,Myo_Pose_Right,Kinect_pose_left,Kinect_pose_right
0.8950195,-0.3671875,0.2436523,0.8681641,0.3422852,0.3154297,-2,0,-3,0,-1,1,-1,-1,0,-1,0,-1,-1,-2,-1,0,0.1875,0.1875,0.1875,-0.75,-0.75,-0.75,3.437087,3.229277,4.435783,6.30462,3.282198,7.470045,0.04472581,-0.4970993,1.605015,0.40599,-0.4976093,1.583228,0.2481622,0.3325543,1.695172,0.003653128,-0.4982086,1.60999,0.3628899,-0.481877,1.571422,0.2362578,-0.1167076,1.70719,0.2284355,-0.4259858,1.690946,0.06882562,0.06477167,1.700937,0.1510041,-0.416638,1.660207,0.03276756,-0.1983676,1.702507,0.4470907,-0.1954373,1.68393,NA,NA,NotTracked,NotTracked,
0.9052734,-0.3657227,0.2431641,0.8867188,0.3422852,0.2949219,-2,-2,0,-2,-2,-1,0,0,26,7,3,-1,1,0,0,1,0.3125,0.3125,0.3125,-3.125,-3.125,-3.125,3.437604,3.229443,4.435623,6.306035,3.283045,7.463995,0.04477584,-0.4969578,1.604393,0.4052223,-0.4981253,1.582226,0.2482212,0.332604,1.69518,0.003448316,-0.4995758,1.609812,0.3634505,-0.4833567,1.571922,0.2362651,-0.1166866,1.70707,0.228451,-0.4260211,1.690642,0.06886804,0.06474537,1.70093,0.1510325,-0.4166391,1.659904,0.03298701,-0.1985401,1.702227,0.4471476,-0.195466,1.683774,NA,NA,NotTracked,NotTracked,
0.9042969,-0.3681641,0.2397461,0.9375,0.3525391,0.2290039,-1,-1,-2,1,-1,-1,0,0,-16,-39,-20,-6,-6,-2,2,1,2,2,2,-35.3125,-35.3125,-35.3125,3.43789,3.230623,4.437345,6.303053,3.299655,7.425061,0.04474294,-0.496492,1.603687,0.4073321,-0.489589,1.578651,0.2482453,0.3325792,1.695283,0.00380759,-0.4988455,1.609037,0.3653142,-0.4781796,1.568146,0.2363052,-0.1167427,1.706852,0.2283385,-0.4262231,1.690154,0.06904219,0.06468369,1.700797,0.1509112,-0.4167818,1.659407,0.03322832,-0.1989692,1.702036,0.4472056,-0.1956073,1.683679,NA,NA,NotTracked,NotTracked,
0.9013672,-0.3725586,0.2441406,1.011719,0.5068359,0.3344727,1,-1,-2,-2,-1,-1,-1,0,13,29,16,-1,0,0,-3,0,3,3,3,-60.5625,-60.5625,-60.5625,3.435293,3.234979,4.445736,6.289738,3.413704,7.313726,0.0443857,-0.4967179,1.60453,0.4020337,-0.4852332,1.554,0.2482438,0.3326476,1.695643,0.003180711,-0.5008794,1.608909,0.362971,-0.473098,1.545086,0.2362232,-0.1168019,1.706496,0.2278365,-0.4264348,1.689713,0.06907764,0.0646542,1.700768,0.1503626,-0.4168316,1.658922,0.03327192,-0.1990534,1.701914,0.4476575,-0.1956521,1.6844,NA,NA,NotTracked,NotTracked,
0.8969727,-0.378418,0.2539063,0.8745117,0.5698242,0.6293945,0,0,-3,0,-1,0,-1,0,-17,-36,-42,-36,-13,-7,-2,-2,-2.875,-2.875,-2.875,-63.375,-63.375,-63.375,3.428372,3.235832,4.450939,6.235628,3.607163,7.249135,0.04422443,-0.4962975,1.603139,0.4023573,-0.4343803,1.501828,0.2481792,0.3327583,1.696032,0.001553934,-0.5040041,1.607288,0.3677199,-0.422563,1.519158,0.2355829,-0.1166991,1.706255,0.2259447,-0.4264182,1.689163,0.06904851,0.06462421,1.700695,0.1483788,-0.4163746,1.658231,0.03322286,-0.1989245,1.701785,0.4498455,-0.1939784,1.687948,NA,NA,NotTracked,NotTracked,
0.9003906,-0.387207,0.2504883,0.8491211,0.6186523,0.6396484,-2,-2,-2,-2,-1,1,-1,0,9,-19,-30,-11,4,-8,-3,-1,-7.6875,-7.6875,-7.6875,-54.1875,-54.1875,-54.1875,3.411521,3.238818,4.456834,6.21683,3.698103,7.234314,0.04359214,-0.4995061,1.602532,0.4088653,-0.3424222,1.43593,0.2481579,0.3330244,1.696666,0.001730633,-0.4999819,1.608012,0.3662168,-0.3275297,1.4385,0.2343539,-0.1164031,1.705861,0.2215811,-0.4256639,1.688831,0.06904034,0.06466573,1.700643,0.1438868,-0.4151998,1.658273,0.03287353,-0.1981093,1.701585,0.4588403,-0.1767656,1.696927,NA,NA,NotTracked,Unknown,
0.8881836,-0.3823242,0.25,0.2744141,0.8271484,0.8798828,0,-1,-1,-2,-3,-3,-2,-1,-8,28,19,-3,-8,-11,-6,4,-11.9375,-11.9375,-11.9375,-27.4375,-27.4375,-27.4375,3.401394,3.24114,4.451541,6.168488,4.373611,7.177276,0.04327124,-0.4998834,1.601884,0.4123145,-0.2089009,1.360749,0.2481966,0.3332663,1.697583,0.001885813,-0.500092,1.608551,0.3625404,-0.1954571,1.318875,0.2331347,-0.1160153,1.705624,0.218954,-0.424933,1.688351,0.0690225,0.06471703,1.700601,0.1412551,-0.414456,1.658454,0.0327691,-0.1974392,1.70129,0.4627306,-0.1350204,1.702634,NA,NA,NotTracked,Unknown,
0.9023438,-0.3730469,0.246582,-0.2592773,0.8486328,0.878418,0,-1,-1,-1,-1,0,0,0,11,-18,1,18,20,5,-16,-14,-16.0625,-16.0625,-16.0625,72.3125,72.3125,72.3125,3.388174,3.239883,4.430651,6.230086,5.197708,7.206329,0.04326306,-0.4995644,1.600229,0.416238,-0.03622727,1.379026,0.2482824,0.3334574,1.698551,0.002187061,-0.4971101,1.60719,0.4208123,-0.05584563,1.321308,0.2324063,-0.1158195,1.7055,0.2174986,-0.4244998,1.688084,0.06910317,0.06490502,1.700157,0.1396818,-0.4139721,1.658611,0.03236021,-0.1965557,1.70044,0.4581363,-0.1298173,1.677332,NA,NA,NotTracked,Unknown,
0.8920898,-0.3740234,0.2358398,-0.5253906,0.6923828,0.7763672,-1,-2,0,-1,-1,-4,-3,-3,28,3,-19,-8,-18,-7,-5,3,-14.75,-14.75,-14.75,87.625,87.625,87.625,3.378396,3.240806,4.412836,6.424175,5.854449,7.394396,0.04335159,-0.4988832,1.598763,0.4049405,0.109056,1.42293,0.2486638,0.3338016,1.700791,0.001073603,-0.4990388,1.604318,0.4093738,0.1013277,1.356811,0.2317789,-0.1156251,1.705722,0.216097,-0.4242736,1.688001,0.06935409,0.06515082,1.699766,0.1382239,-0.4135417,1.658507,0.03195356,-0.1952903,1.69932,0.48661,-0.1158545,1.623448,NA,NA,NotTracked,Unknown,
0.8969727,-0.3691406,0.2426758,-0.6660156,0.4741211,0.5546875,-1,-1,-2,0,3,-2,0,-3,-51,-36,-19,-9,-2,-4,-1,-7,-11.5,-11.5,-11.5,65.1875,65.1875,65.1875,3.367013,3.244205,4.402781,6.850187,6.35174,7.858359,0.04303068,-0.4983492,1.597272,0.3664937,0.2126732,1.479935,0.2486558,0.3343799,1.704429,0.0004852737,-0.4965352,1.59973,0.3764511,0.2145882,1.405416,0.2316782,-0.1146248,1.706166,0.2155049,-0.4220809,1.687733,0.07621945,0.06737053,1.696838,0.1371662,-0.4104625,1.658062,0.03139557,-0.1866798,1.697531,0.509894,-0.04970768,1.528027,NA,NA,NotTracked,Unknown,
0.894043,-0.3789063,0.2089844,-0.5185547,0.387207,0.3041992,0,0,-1,1,-2,-2,-1,1,-37,-10,-13,-10,-3,-1,-24,-96,-0.375,-0.375,-0.375,46.0625,46.0625,46.0625,3.347317,3.249291,4.410191,7.506157,6.568613,8.566009,0.04281929,-0.4943583,1.595761,0.3350028,0.2653506,1.517601,0.2495119,0.3331836,1.705387,0.0002946984,-0.4988425,1.601757,0.3315363,0.2926304,1.44786,0.2319946,-0.1141831,1.706033,0.2156145,-0.4210312,1.686556,0.0845829,0.06799606,1.692835,0.1370111,-0.4089185,1.65646,0.0313269,-0.1799907,1.697028,0.5103575,-0.02503997,1.516597,NA,NA,NotTracked,Open,
0.8999023,-0.3769531,0.2246094,-0.4233398,0.434082,0.03417969,-1,0,-2,-1,-3,-1,-1,-2,15,-14,-3,-1,-2,3,-7,-16,17.9375,17.9375,17.9375,22.25,22.25,22.25,3.363904,3.256464,4.413472,8.00421,6.566378,9.088202,0.04299646,-0.4935337,1.594514,0.3468518,0.2561378,1.523393,0.249824,0.3326525,1.705912,0.0008052186,-0.4938161,1.597743,0.3238809,0.3054463,1.458647,0.2323494,-0.1135769,1.706104,0.2160465,-0.4202704,1.685382,0.08584726,0.06757462,1.692316,0.1372927,-0.4079357,1.655249,0.03099408,-0.1793296,1.696923,0.5113235,0.02283866,1.493703,NA,NA,NotTracked,Open,
0.894043,-0.3828125,0.2485352,-0.5673828,0.4555664,-0.08496094,-2,-1,-2,1,-1,-2,-1,-2,0,-10,-6,4,11,-1,10,74,28,28,28,6.8125,6.8125,6.8125,3.400032,3.268206,4.421649,8.079579,6.557524,9.169214,0.04303062,-0.4936109,1.593379,0.3425876,0.2639167,1.531618,0.2497649,0.332325,1.706541,0.0009354723,-0.4976239,1.599859,0.3244103,0.3025921,1.469938,0.2326581,-0.1129355,1.706176,0.2161137,-0.4197758,1.684795,0.08609261,0.06740641,1.692681,0.1373231,-0.4073462,1.654669,0.03100391,-0.1787122,1.697042,0.5090846,0.03595994,1.486676,NA,NA,NotTracked,Unknown,
0.8901367,-0.4013672,0.2617188,-0.8193359,0.5014648,-0.1962891,0,-1,-3,0,-2,-1,-1,0,6,-8,10,-1,-4,-5,-5,12,10.4375,10.4375,10.4375,-1.25,-1.25,-1.25,3.427294,3.273185,4.433325,8.120429,6.579006,9.216268,0.04292179,-0.4943233,1.595641,0.3256301,0.2893213,1.53747,0.2496226,0.332442,1.707508,0.001667623,-0.4962581,1.596975,0.2881354,0.2576122,1.5696,0.2327959,-0.1124448,1.706304,0.2162252,-0.41931,1.684422,0.08674586,0.06747642,1.693251,0.1374164,-0.4070224,1.654472,0.03097432,-0.1793152,1.697486,0.5086369,0.03880844,1.484993,NA,NA,NotTracked,Open,
0.8818359,-0.4086914,0.2631836,-0.8540039,0.4990234,-0.2133789,-1,-2,-2,-1,-1,-2,-1,0,0,1,-13,-2,-9,1,2,-12,3.8125,3.8125,3.8125,-4.9375,-4.9375,-4.9375,3.424633,3.272288,4.446464,8.142441,6.585401,9.24947,0.04290548,-0.4949555,1.596138,0.3217435,0.2922796,1.538963,0.2494102,0.3324442,1.708261,0.0009882917,-0.4974058,1.600789,0.2827196,0.2606989,1.571759,0.2328008,-0.1120472,1.706353,0.2161843,-0.4188459,1.683943,0.08679462,0.06747085,1.693636,0.1373727,-0.4066949,1.654271,0.03088397,-0.1795908,1.697879,0.508198,0.0403837,1.483631,NA,NA,NotTracked,Open,
0.8818359,-0.4121094,0.2807617,-0.8525391,0.5185547,-0.21875,-1,-3,-3,-2,-2,0,-3,0,11,-13,-6,6,-3,19,5,0,-5.1875,-5.1875,-5.1875,-4.6875,-4.6875,-4.6875,3.414603,3.273463,4.45334,8.152722,6.577359,9.268698,0.04311835,-0.4948804,1.597375,0.3211037,0.2889431,1.541082,0.2493805,0.3323189,1.708626,0.001090123,-0.4961244,1.600927,0.2831535,0.2603093,1.571822,0.2328317,-0.1117743,1.706387,0.2161967,-0.4185944,1.683641,0.08702008,0.06739207,1.693781,0.1373658,-0.406443,1.654103,0.03075284,-0.1795211,1.698596,0.5080764,0.04079501,1.483324,NA,NA,NotTracked,Open,
0.8881836,-0.3862305,0.2436523,-0.7119141,0.5878906,-0.2236328,-1,-2,-2,0,-1,-5,0,-1,30,1,-4,-9,1,-12,-2,-7,-10.5625,-10.5625,-10.5625,8.75,8.75,8.75,3.401103,3.272868,4.446708,8.171515,6.541129,9.287848,0.04336811,-0.4945648,1.596392,0.3215216,0.2880972,1.544533,0.249479,0.332242,1.708706,0.001623251,-0.4946566,1.599393,0.2857467,0.2582025,1.573297,0.2329486,-0.1114802,1.706343,0.2163428,-0.418409,1.683206,0.0870879,0.06741036,1.69385,0.1374848,-0.4062723,1.653743,0.03074284,-0.1793525,1.698832,0.5096963,0.03876578,1.484654,NA,NA,NotTracked,Unknown,
0.8823242,-0.3774414,0.2329102,-0.6088867,0.6733398,-0.2460938,-1,0,-1,-2,-2,0,-2,-1,-1,-33,0,13,-1,2,8,18,-2.125,-2.125,-2.125,51.125,51.125,51.125,3.40668,3.27059,4.429478,8.175753,6.520355,9.215442,0.04312239,-0.4940237,1.594525,0.3311038,0.2949963,1.548891,0.2496085,0.3322353,1.708861,0.001193103,-0.4973351,1.60031,0.2921451,0.2608338,1.5802,0.2330527,-0.1111125,1.706225,0.2165328,-0.4180792,1.68262,0.08734442,0.06737448,1.69364,0.1376319,-0.4058534,1.652994,0.03066035,-0.1797051,1.698638,0.5149316,0.03986312,1.487596,NA,NA,NotTracked,Unknown,
0.9194336,-0.3623047,0.2524414,-0.6420898,0.7036133,-0.2373047,0,0,-1,-1,0,-2,-1,-2,-34,-37,-19,-33,-13,-10,-4,-32,23.5625,23.5625,23.5625,74.3125,74.3125,74.3125,3.457708,3.265362,4.401414,8.180779,6.531478,9.173285,0.04355575,-0.4936732,1.594167,0.3762354,0.3116401,1.561037,0.2484714,0.3328718,1.711286,0.003075127,-0.4944423,1.597638,0.3378972,0.2819202,1.57685,0.2327215,-0.1108783,1.70618,0.2164512,-0.4180185,1.682476,0.0871941,0.06805044,1.693836,0.1376124,-0.4059554,1.652738,0.03081769,-0.1807877,1.69881,0.5305697,0.03930334,1.499518,NA,NA,NotTracked,Open,
0.8798828,-0.3979492,0.3022461,-0.9438477,0.1298828,-0.04003906,-1,0,-2,-1,-1,0,-3,-1,69,18,15,26,35,17,4,13,27.5,27.5,27.5,154.25,154.25,154.25,3.499115,3.271812,4.406862,8.13546,7.01891,8.610986,0.04385795,-0.4965481,1.592409,0.4582667,0.3011031,1.570717,0.2461144,0.334333,1.713587,0.003470815,-0.4940102,1.595772,0.4030091,0.29598,1.56941,0.2302901,-0.1112888,1.704602,0.215672,-0.4184655,1.681668,0.07582495,0.06725964,1.692502,0.1370515,-0.4065859,1.652873,0.03139876,-0.1856806,1.69843,0.5519366,0.02607727,1.524485,NA,NA,NotTracked,NotTracked,
0.8852539,-0.3725586,0.2856445,-1.041016,-0.06787109,0.1201172,0,-1,1,-1,1,1,0,-1,37,-41,-15,-7,-3,-3,-1,-32,3.4375,3.4375,3.4375,92.875,92.875,92.875,3.499938,3.274127,4.432262,7.505603,7.198776,7.762845,0.04456578,-0.4903372,1.597911,0.5006622,0.3029704,1.578425,0.2437121,0.3353481,1.714731,0.003501484,-0.4928483,1.601965,0.4387206,0.296014,1.571143,0.2284173,-0.1119982,1.703503,0.2144489,-0.419542,1.681166,0.069577,0.06615393,1.691219,0.1356936,-0.4082742,1.653892,0.03157419,-0.1881174,1.698806,0.5646559,0.02379366,1.542342,NA,NA,NotTracked,Open,
0.8896484,-0.3857422,0.2802734,-1.122559,-0.0546875,0.1274414,-1,-1,0,-2,0,-3,1,0,0,14,-3,-7,14,-4,-3,1,-10,-10,-10,39.4375,39.4375,39.4375,3.476396,3.269942,4.443244,7.158854,7.217576,7.35288,0.04402583,-0.4903683,1.598353,0.508881,0.2946389,1.578151,0.2426358,0.3357301,1.715113,0.002004161,-0.4957577,1.6005,0.4539093,0.2745044,1.57982,0.2275579,-0.1123184,1.703142,0.2132279,-0.4202641,1.680952,0.06739102,0.06581531,1.690704,0.1346699,-0.4091362,1.65433,0.03167853,-0.1904744,1.69896,0.5696205,0.01932256,1.553001,NA,NA,NotTracked,Open,
0.8823242,-0.3691406,0.2631836,-1.122559,-0.0546875,0.1274414,-2,-1,-1,-1,1,-1,0,-1,32,9,4,4,23,-5,-9,25,-12.125,-12.125,-12.125,39.4375,39.4375,39.4375,3.449962,3.275505,4.43981,7.158854,7.217576,7.35288,0.0435101,-0.4900788,1.596836,0.5083466,0.2897292,1.57396,0.2424129,0.3358077,1.715127,0.001817292,-0.4963088,1.599976,0.4480266,0.2763265,1.571262,0.2270147,-0.1126122,1.702816,0.2128991,-0.4205497,1.680871,0.0665856,0.06572635,1.69023,0.1343717,-0.4095094,1.654469,0.0319794,-0.1912147,1.698696,0.5709363,0.01361066,1.558876,NA,NA,NotTracked,Open,
0.8876953,-0.3540039,0.2563477,-1.155273,0.02832031,0.06738281,0,0,-1,-3,-2,0,0,-1,-2,13,-6,-8,3,5,-3,40,-9.25,-9.25,-9.25,1.4375,1.4375,1.4375,3.449682,3.276762,4.424142,7.097262,7.20339,7.271325,0.04389915,-0.4892409,1.593666,0.5093685,0.2868781,1.572857,0.2424393,0.3358889,1.715056,0.002275453,-0.4958473,1.599564,0.4484373,0.2762285,1.571847,0.2268674,-0.1127635,1.702685,0.2127295,-0.4208833,1.680789,0.06616943,0.06568008,1.689762,0.1342378,-0.4099545,1.654509,0.03198738,-0.1916924,1.698346,0.571611,0.0120053,1.561224,NA,NA,NotTracked,Open,
0.8974609,-0.3764648,0.2475586,-0.9921875,0.1474609,0.07275391,-1,0,-2,-1,-1,-1,-2,-2,55,0,-5,2,23,7,4,5,-7.6875,-7.6875,-7.6875,-1.6875,-1.6875,-1.6875,3.444596,3.272316,4.412674,6.981073,7.187942,7.160882,0.04393012,-0.4892962,1.592919,0.5097619,0.2862227,1.570859,0.2425905,0.3359151,1.714959,0.003773359,-0.492901,1.598067,0.4496001,0.2765768,1.572114,0.226617,-0.1129453,1.702254,0.2126684,-0.4210199,1.680566,0.06583778,0.06562844,1.689405,0.1341922,-0.4101272,1.654367,0.03207023,-0.191816,1.698144,0.5664223,-0.008279047,1.567724,NA,NA,NotTracked,Open,
0.8969727,-0.4013672,0.2553711,-0.96875,0.1767578,0.078125,-1,-1,-2,-3,-1,0,-1,-2,-19,-19,-8,-6,6,-5,-5,1,7.1875,7.1875,7.1875,-1.125,-1.125,-1.125,3.436939,3.269328,4.42149,6.965159,7.183115,7.145817,0.04482294,-0.4893587,1.595425,0.5089579,0.2853439,1.568705,0.2430245,0.3361259,1.714737,0.004265348,-0.4916012,1.603084,0.4488921,0.2749417,1.565529,0.22678,-0.1129341,1.702404,0.2126818,-0.4210588,1.680555,0.06562223,0.06568091,1.68911,0.1342374,-0.4102306,1.65439,0.03222026,-0.1919077,1.697966,0.5653793,-0.01256807,1.569659,NA,NA,NotTracked,Open,
0.8891602,-0.3833008,0.2607422,-0.9448242,0.1889648,0.08496094,1,0,-1,-1,-2,0,1,-1,2,12,5,14,15,2,-3,-3,5.3125,5.3125,5.3125,-1.875,-1.875,-1.875,3.439599,3.264042,4.431026,6.963688,7.167977,7.148444,0.04532615,-0.4888731,1.594623,0.5090178,0.2836578,1.563125,0.2437145,0.3360777,1.714116,0.004252949,-0.4924057,1.598292,0.4473062,0.2732532,1.559219,0.2270243,-0.112891,1.70251,0.2126825,-0.4210877,1.680506,0.06551809,0.06567441,1.688828,0.1342472,-0.410266,1.654348,0.03223957,-0.1919098,1.697903,0.5656388,-0.01319369,1.570648,NA,NA,NotTracked,Open,
0.8696289,-0.3662109,0.2626953,-0.6733398,0.2241211,0.190918,-1,-2,-1,-1,0,-2,-1,-2,5,9,3,-6,-2,1,-1,1,2.6875,2.6875,2.6875,-10.9375,-10.9375,-10.9375,3.446215,3.258438,4.431668,6.873825,7.059218,7.074241,0.04421705,-0.4897342,1.596581,0.5090076,0.2674752,1.551445,0.2443886,0.3361546,1.713485,0.002965603,-0.4933858,1.599962,0.4492793,0.2550845,1.5514,0.227057,-0.112918,1.702434,0.2126214,-0.4211395,1.680555,0.06550246,0.0656798,1.688385,0.1341991,-0.4103089,1.654419,0.03225425,-0.1921921,1.697801,0.5633928,-0.02284816,1.577003,NA,NA,NotTracked,Open,
0.8837891,-0.378418,0.2773438,-0.5756836,0.2773438,0.3588867,-1,-1,-3,-1,-2,-4,1,-1,6,-5,-5,-4,-3,-3,-3,0,2.3125,2.3125,2.3125,-46.1875,-46.1875,-46.1875,3.468966,3.248304,4.412412,6.758346,6.876156,7.008586,0.04421376,-0.4937829,1.598131,0.5040973,0.2276552,1.525259,0.2449198,0.3361525,1.712825,0.003107021,-0.493449,1.599864,0.4464417,0.2196468,1.539594,0.227079,-0.1129175,1.702454,0.2125272,-0.4212881,1.680903,0.06554708,0.06572009,1.688074,0.1341483,-0.4104261,1.654576,0.03214942,-0.1917098,1.697883,0.5533541,-0.04987742,1.598114,NA,NA,NotTracked,Open,
0.8720703,-0.3696289,0.2592773,-0.6308594,0.4038086,0.5029297,-3,-2,-1,-2,-1,-1,0,0,-21,-3,-3,-5,1,0,-1,-1,4.5,4.5,4.5,-91.4375,-91.4375,-91.4375,3.47976,3.245941,4.408113,6.593856,6.507784,6.96925,0.04592068,-0.4936915,1.597996,0.4883641,0.1380013,1.470369,0.2452672,0.3359121,1.711455,0.004701411,-0.4925292,1.601726,0.4292836,0.1447346,1.48148,0.2271052,-0.1130327,1.702266,0.2127729,-0.4213485,1.680989,0.06552651,0.06568025,1.687913,0.1343996,-0.4105191,1.654558,0.03234839,-0.1920196,1.697878,0.5426913,-0.1139734,1.604042,NA,NA,NotTracked,Open,
0.894043,-0.3662109,0.2758789,-0.534668,0.4936523,0.6269531,-2,1,-1,-2,-1,-3,0,0,0,-5,-1,2,-11,-1,0,-12,1.9375,1.9375,1.9375,-128,-128,-128,3.483461,3.246724,4.412669,6.462132,6.135363,6.971196,0.04697742,-0.4952276,1.59984,0.4655747,-0.01523611,1.429569,0.2455161,0.3357652,1.710761,0.004902809,-0.4990914,1.602866,0.4131993,0.01737413,1.394,0.2274041,-0.1131165,1.702408,0.2129594,-0.4214457,1.681182,0.06776685,0.06587448,1.692421,0.1346426,-0.4106656,1.654689,0.03269072,-0.1922422,1.698173,0.503933,-0.1698875,1.654203,NA,NA,NotTracked,Unknown,
0.9052734,-0.387207,0.2426758,-0.4907227,0.8496094,0.6787109,1,0,0,-2,-2,1,-3,0,30,9,4,-6,-3,0,1,14,-7.25,-7.25,-7.25,-70.25,-70.25,-70.25,3.48263,3.242016,4.400476,6.175842,4.990733,7.087077,0.04829076,-0.4983617,1.597538,0.4256098,-0.1735031,1.384019,0.2458212,0.3355277,1.709149,0.007140309,-0.4947067,1.601319,0.3844542,-0.1604588,1.399294,0.2279017,-0.1132094,1.702403,0.2134924,-0.4216493,1.681397,0.06850355,0.06553109,1.693671,0.1352365,-0.4109168,1.654809,0.03352309,-0.192507,1.698202,0.4659132,-0.1578318,1.692534,NA,NA,NotTracked,Open,
0.8959961,-0.3789063,0.2392578,0.34375,0.8461914,0.7436523,-2,1,-1,-2,-2,0,0,-1,-12,5,13,1,-2,3,1,7,-12.0625,-12.0625,-12.0625,19.375,19.375,19.375,3.46316,3.243556,4.39526,6.138617,4.261582,7.172152,0.04907498,-0.4980824,1.597937,0.4000421,-0.3282997,1.432199,0.2462281,0.3355076,1.707709,0.008305747,-0.4978718,1.601001,0.3609083,-0.316637,1.402191,0.2281857,-0.1133389,1.70232,0.2142646,-0.4218602,1.681619,0.0690786,0.06535885,1.694229,0.1360256,-0.4111032,1.654684,0.03468388,-0.192966,1.698226,0.460656,-0.1668355,1.697052,NA,NA,NotTracked,Unknown,
0.9013672,-0.3725586,0.2480469,0.8100586,0.8579102,0.7387695,0,-3,-2,0,0,1,-1,-2,-4,-8,-2,-1,0,0,1,6,-13.1875,-13.1875,-13.1875,5.6875,5.6875,5.6875,3.442321,3.240563,4.392428,6.15232,3.978403,7.200478,0.04938134,-0.4979917,1.598021,0.402762,-0.4299689,1.486288,0.2467924,0.3352733,1.706103,0.007481903,-0.4973325,1.602218,0.4328091,-0.4547408,1.467286,0.2297601,-0.113776,1.702403,0.2166317,-0.4227245,1.682174,0.06958684,0.06514801,1.694862,0.1384856,-0.4118409,1.654123,0.03524001,-0.1936247,1.697957,0.4539953,-0.1841821,1.694179,NA,NA,NotTracked,Unknown,
0.9023438,-0.3632813,0.2368164,0.8945313,0.609375,0.5292969,0,1,0,0,-2,-1,0,0,-7,-6,3,-1,-3,-2,0,2,-13.0625,-13.0625,-13.0625,11.875,11.875,11.875,3.42049,3.234543,4.393687,6.169333,3.561627,7.150541,0.04909014,-0.497518,1.598035,0.4089504,-0.4957093,1.539588,0.2477808,0.3348133,1.704781,0.007088825,-0.495939,1.601824,0.3895268,-0.4960801,1.478875,0.2336664,-0.1150277,1.702433,0.2259384,-0.4255977,1.682884,0.07020958,0.06502887,1.694781,0.1478412,-0.4150735,1.652767,0.03578793,-0.1947861,1.697261,0.4509495,-0.1923103,1.687491,NA,NA,NotTracked,Unknown,
0.909668,-0.3652344,0.2246094,1.200684,0.362793,0.08886719,-2,-3,-1,-2,0,-1,-1,-2,-13,-1,-3,-1,-2,0,-1,-5,-5.0625,-5.0625,-5.0625,121.4375,121.4375,121.4375,3.389859,3.231052,4.401376,6.363941,3.281449,7.19206,0.04860705,-0.4979265,1.598356,0.4260373,-0.5022917,1.589844,0.248791,0.3343533,1.703401,0.006078784,-0.4965454,1.600925,0.4595914,-0.4914377,1.579379,0.2365256,-0.1158632,1.702799,0.2303433,-0.4269534,1.683938,0.07053898,0.06491582,1.694867,0.1525628,-0.4170921,1.653051,0.03590262,-0.1950393,1.696972,0.4475738,-0.1996482,1.680943,NA,NA,NotTracked,NotTracked,
0.8857422,-0.3657227,0.2348633,1.011719,0.3930664,0.1650391,-1,-1,-2,0,0,-1,-1,-1,-12,-4,-1,-1,-4,-1,0,-13,2.5625,2.5625,2.5625,43.75,43.75,43.75,3.384939,3.228731,4.407945,6.452009,3.210745,7.232612,0.04907159,-0.4979082,1.598824,0.430237,-0.4955969,1.606586,0.2498797,0.3342778,1.702075,0.006885497,-0.4968885,1.601128,0.4643524,-0.4887322,1.594568,0.2377629,-0.1160862,1.702952,0.2317429,-0.427084,1.684884,0.0708077,0.06499322,1.695133,0.1540428,-0.4172076,1.653699,0.03589417,-0.1950685,1.696882,0.4475074,-0.1997319,1.680624,NA,NA,NotTracked,NotTracked,
0.8964844,-0.3793945,0.2456055,0.8305664,0.3452148,0.3828125,-3,-1,-1,-1,-1,0,1,-1,8,0,0,0,0,0,-2,13,0.6875,0.6875,0.6875,8,8,8,3.378165,3.219361,4.419477,6.406631,3.20942,7.326648,0.04853227,-0.4983547,1.600481,0.4270918,-0.4983736,1.60506,0.2503989,0.3340125,1.701003,0.007141807,-0.5001164,1.605296,0.4636853,-0.4922246,1.598035,0.2383657,-0.1161956,1.703051,0.2324433,-0.4271088,1.685543,0.07107829,0.06504898,1.695221,0.1547628,-0.4172539,1.654164,0.03596164,-0.1953204,1.696878,0.4479167,-0.1994781,1.681215,NA,NA,NotTracked,NotTracked,
0.8935547,-0.3920898,0.2333984,0.8310547,0.3798828,0.4072266,-2,0,-1,-1,0,0,-1,-1,0,0,-2,1,-1,-1,-2,-13,2,2,2,-9.6875,-9.6875,-9.6875,3.364657,3.212817,4.437266,6.366117,3.234698,7.362664,0.04727631,-0.498612,1.60441,0.4220922,-0.4970162,1.593032,0.250802,0.3338968,1.700102,0.00507343,-0.4962759,1.606121,0.4552182,-0.5031035,1.586375,0.2386315,-0.1162689,1.703209,0.2326276,-0.4270898,1.686244,0.07139699,0.06525795,1.695187,0.1549451,-0.417264,1.654817,0.03597106,-0.1961027,1.696913,0.4484698,-0.1995019,1.682339,NA,NA,NotTracked,NotTracked,
0.90625,-0.3774414,0.2236328,0.8222656,0.3540039,0.355957,-1,0,0,-1,0,-2,-2,-1,3,-1,0,-1,-1,-2,-3,9,-1.5625,-1.5625,-1.5625,-31.6875,-31.6875,-31.6875,3.357618,3.215879,4.447617,6.294107,3.295334,7.376358,0.04683446,-0.4995719,1.605058,0.4143772,-0.4918214,1.581924,0.250963,0.3340301,1.699433,0.00511037,-0.4973484,1.60657,0.44319,-0.4986975,1.56316,0.2387316,-0.1162544,1.703304,0.2324701,-0.4270148,1.686598,0.07140706,0.06530944,1.695269,0.1547894,-0.4171601,1.655152,0.03585264,-0.1963915,1.697025,0.4487099,-0.1991377,1.683497,NA,NA,NotTracked,NotTracked,
0.9052734,-0.3710938,0.2255859,0.8496094,0.3061523,0.3388672,-2,-2,-2,-2,0,-2,-1,-2,0,0,0,0,-1,-1,-1,-2,-8.875,-8.875,-8.875,-15.8125,-15.8125,-15.8125,3.353951,3.220404,4.439032,6.261362,3.318671,7.385723,0.04754099,-0.4953924,1.60333,0.4055002,-0.4909562,1.573788,0.251188,0.3340237,1.698749,0.005844359,-0.4947692,1.606107,0.4406201,-0.4845049,1.568875,0.2386616,-0.1162418,1.703329,0.2317854,-0.4268911,1.68682,0.07144892,0.06543111,1.695283,0.1540792,-0.4169017,1.65536,0.03579956,-0.1965653,1.697008,0.4486817,-0.1983875,1.683734,NA,NA,NotTracked,NotTracked,
0.9042969,-0.3740234,0.2163086,0.8466797,0.3520508,0.3457031,-2,-1,-2,2,-3,-4,-2,-1,0,1,-1,-1,-2,-1,-1,-2,-3.625,-3.625,-3.625,18,18,18,3.350428,3.220773,4.426282,6.234657,3.341668,7.440576,0.04663368,-0.495819,1.60247,0.4028678,-0.4833022,1.571792,0.2513305,0.3339905,1.698327,0.005658362,-0.4968066,1.60404,0.4343138,-0.4909198,1.563083,0.2385177,-0.1162676,1.703382,0.2307328,-0.4269502,1.687327,0.07150395,0.06546216,1.695296,0.1530535,-0.4168494,1.655746,0.03573773,-0.1965701,1.696965,0.4484397,-0.1971476,1.683873,NA,NA,NotTracked,NotTracked,
0.9038086,-0.3666992,0.2158203,0.8500977,0.3642578,0.3300781,1,-1,-1,-1,-1,-1,0,-3,-3,-1,0,0,-2,-2,-2,2,4.4375,4.4375,4.4375,10.625,10.625,10.625,3.353387,3.221276,4.42825,6.238867,3.345645,7.465505,0.04640948,-0.4959869,1.601723,0.3981007,-0.4935232,1.568833,0.2513315,0.333968,1.698189,0.0051063,-0.4953386,1.604474,0.431553,-0.4931903,1.558522,0.2384513,-0.1162029,1.703428,0.2302568,-0.4266587,1.687462,0.07147834,0.06568966,1.695382,0.1526204,-0.4166995,1.655822,0.03564897,-0.1966434,1.69685,0.448278,-0.1962554,1.683735,NA,NA,NotTracked,NotTracked,
0.9023438,-0.371582,0.2299805,0.8623047,0.3325195,0.3486328,0,-1,-2,-1,-1,-2,2,-2,1,-2,-1,0,-1,-2,-1,2,4.9375,4.9375,4.9375,2.3125,2.3125,2.3125,3.363295,3.221403,4.426936,6.25565,3.336671,7.452926,0.04624005,-0.4959314,1.602575,0.3982194,-0.4950069,1.569959,0.2513356,0.3339442,1.697999,0.004935052,-0.4954279,1.603052,0.4347045,-0.4904875,1.563811,0.2380946,-0.1161354,1.70364,0.229519,-0.4265709,1.687585,0.07145879,0.06574504,1.69545,0.1518103,-0.4165798,1.655925,0.03529821,-0.196804,1.696723,0.4481806,-0.1960321,1.683474,NA,NA,NotTracked,NotTracked,
0.8999023,-0.3803711,0.2412109,0.8608398,0.3422852,0.3481445,-1,-2,0,-1,-2,0,-2,0,-2,-2,0,0,-2,1,0,-1,2.625,2.625,2.625,5.9375,5.9375,5.9375,3.372932,3.220696,4.422564,6.270094,3.327397,7.446079,0.04588019,-0.4955701,1.602497,0.3994488,-0.4949072,1.571376,0.2513349,0.3338,1.697712,0.004951699,-0.4963124,1.605258,0.4382707,-0.5003322,1.5666,0.2379051,-0.1161424,1.703711,0.2290327,-0.4265168,1.687663,0.07142333,0.06580395,1.695455,0.1513162,-0.4165068,1.656026,0.03500613,-0.1968066,1.69663,0.4478687,-0.1958638,1.682821,NA,NA,NotTracked,NotTracked,
