ALX,ALY,ALZ,ARX,ARY,ARZ,EMG0L,EMG1L,EMG2L,EMG3L,EMG4L,EMG5L,EMG6L,EMG7L,EMG0R,EMG1R,EMG2R,EMG3R,EMG4R,EMG5R,EMG6R,EMG7R,GLX,GLY,GLZ,GRX,GRY,GRZ,ORL,OPL,OYL,ORR,OPR,OYR,LHNX,LHNY,LHNZ,RHNX,RHNY,RHNZ,HX,HY,HZ,LTX,LTY,LTZ,RTX,RTY,RTZ,SpineMidX,SpineMidY,SpineMidZ,SpineBaseX,SpineBaseY,SpineBaseZ,ShoulderLeftX,ShoulderLeftY,ShoulderLeftZ,ShoulderRightX,ShoulderRightY,ShoulderRightZ,ElbowLeftX,ElbowLeftY,ElbowLeftZ,ElbowRightX,ElbowRightY,ElbowRightZ,Myo_Pose_left,Myo_Pose_Right,Kinect_pose_left,Kinect_pose_right
0.8896484,-0.3774414,0.2138672,-0.3779297,0.6181641,0.5854492,-2,-1,-2,-2,-1,-1,-1,-2,33,-4,-1,-7,-2,-3,-26,-17,5.875,5.875,5.875,16.5625,16.5625,16.5625,3.344505,3.250875,0.926857,6.413379,5.846463,5.461526,-0.07972156,-0.4922028,1.487197,0.09932493,0.01299501,1.436984,0.1479759,0.3350851,1.6093,-0.03909411,-0.4917346,1.471408,0.07078154,-0.03500021,1.459649,0.1199894,-0.1189746,1.611661,0.1034542,-0.4331294,1.599641,-0.02886019,0.06529204,1.579357,0.02885894,-0.4213125,1.570592,-0.08339866,-0.1957012,1.591304,0.3015379,-0.129047,1.460366,NA,NA,NotTracked,Unknown,
0.8935547,-0.3925781,0.2270508,-0.4990234,0.6445313,0.5175781,0,-2,-2,-1,-2,1,1,0,-111,-46,-6,6,3,-1,-4,-2,3.25,3.25,3.25,8.75,8.75,8.75,3.346296,3.249977,0.9407905,6.505374,5.897973,5.604217,-0.08016919,-0.4926448,1.487458,0.04800529,0.05296126,1.443668,0.1485481,0.3350885,1.609763,-0.04081381,-0.490707,1.469703,0.0204442,0.03093513,1.416841,0.1201561,-0.1190202,1.611756,0.1035741,-0.4334398,1.59943,-0.02701363,0.06508569,1.577314,0.02892081,-0.421745,1.570262,-0.08336534,-0.1957106,1.590797,0.2984065,-0.1246902,1.455224,NA,NA,NotTracked,Unknown,
0.8945313,-0.3876953,0.2329102,-0.480957,0.6630859,0.5419922,-1,-2,-1,-2,-2,-2,-1,-2,4,9,0,-14,-13,7,7,3,2.4375,2.4375,2.4375,6.8125,6.8125,6.8125,3.34502,3.245137,0.9477074,6.520723,5.897237,5.623388,-0.08097158,-0.4923079,1.48973,0.1098368,0.0134559,1.436318,0.1487255,0.3352022,1.610179,-0.03897279,-0.4914384,1.47434,0.08197045,-0.03419931,1.4571,0.1202578,-0.1190008,1.611762,0.1036682,-0.4335628,1.59914,-0.02600168,0.06511912,1.576105,0.0289507,-0.4217792,1.569969,-0.08331034,-0.1957129,1.590394,0.2962749,-0.1183801,1.448809,NA,NA,NotTracked,Unknown,
0.8935547,-0.3891602,0.2246094,-0.5371094,0.6835938,0.5625,-2,1,-1,-1,-2,-2,-4,-3,8,-3,3,3,-2,7,-2,0,4.8125,4.8125,4.8125,-3.0625,-3.0625,-3.0625,3.347357,3.241822,0.9525701,6.539269,5.920942,5.669062,-0.08163467,-0.4930601,1.490545,0.1112756,0.01335592,1.438311,0.1487768,0.3352198,1.610256,-0.03955841,-0.4922284,1.473853,0.08107091,-0.03460854,1.456484,0.1202978,-0.119014,1.611747,0.103775,-0.4337735,1.598869,-0.02522152,0.06501682,1.575022,0.02898997,-0.4219733,1.569646,-0.0832592,-0.1955803,1.590331,0.2952678,-0.1171922,1.447592,NA,NA,NotTracked,Unknown,
0.8994141,-0.3891602,0.2314453,-0.4458008,0.6635742,0.5688477,-1,-2,-2,-3,-3,-1,1,-1,-6,0,11,4,19,-11,25,23,2.25,2.25,2.25,-18.0625,-18.0625,-18.0625,3.354947,3.236722,0.9528512,6.556704,5.942412,5.748738,-0.08039528,-0.4934516,1.491841,0.1100651,0.01669849,1.450758,0.1486561,0.3353342,1.61043,-0.03896115,-0.491697,1.474461,0.07046004,-0.03577485,1.45706,0.1203268,-0.1189999,1.611711,0.1039231,-0.4339151,1.598663,-0.02334031,0.06444409,1.573731,0.02906165,-0.4220817,1.569446,-0.08319601,-0.195461,1.590395,0.2943164,-0.1148674,1.446048,NA,NA,NotTracked,Unknown,
0.8950195,-0.3881836,0.2265625,-0.5786133,0.6796875,0.4326172,-2,-2,-2,-2,-3,1,-3,-3,23,12,5,5,-16,-2,18,-19,1.875,1.875,1.875,-34.4375,-34.4375,-34.4375,3.358667,3.233964,0.950969,6.597874,5.983516,5.910826,-0.0803144,-0.494352,1.494177,0.1189491,0.009681242,1.460213,0.1484091,0.335354,1.6103,-0.038412,-0.4934861,1.476066,0.07079226,-0.03991665,1.456219,0.1202582,-0.1189613,1.611598,0.1037978,-0.4339221,1.598482,-0.02354588,0.06438063,1.574447,0.02893203,-0.4220288,1.569481,-0.08317031,-0.1954478,1.5904,0.294254,-0.1145212,1.445885,NA,NA,NotTracked,Unknown,
0.9101563,-0.4389648,0.2485352,-0.5717773,0.7631836,0.2841797,-2,0,1,-1,-3,-3,0,-1,9,-37,8,-3,-8,-1,-8,-1,-6.5,-6.5,-6.5,36.8125,36.8125,36.8125,3.355998,3.234031,0.952093,6.612984,5.990273,5.921013,-0.08030263,-0.4932026,1.492975,0.1079956,0.01921426,1.453638,0.1478983,0.3355275,1.609808,-0.03870383,-0.4938177,1.475201,0.06113805,-0.03412133,1.4585,0.1201779,-0.1187918,1.611328,0.1036577,-0.4337854,1.598206,-0.02127904,0.06400596,1.571126,0.02879592,-0.4219513,1.569333,-0.08319004,-0.1954867,1.590351,0.2939313,-0.1135746,1.445306,NA,NA,NotTracked,Unknown,
0.8901367,-0.3852539,0.2338867,-0.5805664,0.6831055,0.5200195,-1,-1,0,-2,-1,0,0,-2,6,-5,16,-4,7,-2,4,2,-5.9375,-5.9375,-5.9375,19.5,19.5,19.5,3.365131,3.236193,0.9443867,6.56362,5.939342,5.765964,-0.07977694,-0.4936866,1.492545,0.1031979,0.02477717,1.443535,0.147685,0.33553,1.609552,-0.03804179,-0.4945475,1.474619,0.0639331,-0.02928935,1.45725,0.1201127,-0.1187815,1.611029,0.1035393,-0.4338514,1.59786,-0.01926185,0.06372298,1.567607,0.02859143,-0.4219515,1.568924,-0.08301361,-0.1958665,1.590042,0.2937703,-0.1134603,1.445202,NA,NA,NotTracked,Unknown,
0.890625,-0.3886719,0.2480469,-0.559082,0.722168,0.5668945,-1,-1,-2,-3,-2,0,0,-1,30,11,-18,-25,-21,-11,-6,-1,0.6875,0.6875,0.6875,5.125,5.125,5.125,3.364595,3.237545,0.9412146,6.534836,5.914019,5.689844,-0.07954665,-0.4937373,1.493765,0.0419398,0.06681749,1.453866,0.1474449,0.3354076,1.60931,-0.0376009,-0.4945005,1.475479,0.0001066755,0.05268829,1.428489,0.1200845,-0.1188652,1.61093,0.1035721,-0.4341241,1.597662,-0.0192651,0.06367762,1.567653,0.02858323,-0.4223543,1.56861,-0.08299962,-0.1959993,1.590032,0.2931187,-0.1132925,1.444641,NA,NA,NotTracked,Closed,
0.9018555,-0.3740234,0.2197266,-0.5024414,0.7016602,0.5888672,-1,0,0,-2,-1,-1,-4,-2,-18,-11,-22,-19,-10,10,37,11,-0.75,-0.75,-0.75,-2.625,-2.625,-2.625,3.364816,3.238119,0.9417854,6.534397,5.915561,5.69875,-0.07929109,-0.4936475,1.492013,0.08921833,0.04109311,1.45644,0.1470548,0.3353532,1.608919,-0.0378113,-0.4947169,1.475132,0.02848341,0.003063179,1.453933,0.1200498,-0.1188702,1.610615,0.1035189,-0.4341633,1.597353,-0.01938801,0.0636423,1.568004,0.02849067,-0.4224534,1.568261,-0.08306924,-0.1958701,1.589832,0.292665,-0.1128328,1.443918,NA,NA,NotTracked,Unknown,
0.9033203,-0.3320313,0.2260742,-0.4980469,0.668457,0.5224609,-1,-2,-2,1,-2,-1,-1,-3,4,2,11,7,6,3,-6,-10,6.25,6.25,6.25,-26.5,-26.5,-26.5,3.370439,3.243155,0.9443653,6.566934,5.944905,5.83143,-0.08047827,-0.4933692,1.491333,0.09582658,0.03451846,1.466166,0.1465611,0.3354025,1.608479,-0.03873398,-0.4943283,1.473652,0.03971414,-0.02274629,1.458667,0.1199527,-0.1188124,1.610395,0.1033255,-0.4341277,1.597085,-0.02144815,0.06384967,1.571136,0.028315,-0.4223114,1.568247,-0.08310402,-0.1956822,1.589497,0.292702,-0.1123635,1.443735,NA,NA,NotTracked,Unknown,
0.9033203,-0.3320313,0.2260742,-0.7636719,0.7246094,0.1889648,-2,-1,-3,-3,-1,0,1,0,-18,-11,15,18,18,-5,-24,-6,6.25,6.25,6.25,-44.1875,-44.1875,-44.1875,3.370439,3.243155,0.9443653,6.605225,5.966669,6.003473,-0.08081904,-0.4923413,1.490206,0.09337745,0.03970587,1.459091,0.1459384,0.3354768,1.60818,-0.0383524,-0.4941784,1.475123,0.03366034,0.01672271,1.445783,0.1198621,-0.1187652,1.610203,0.1031445,-0.4341396,1.596842,-0.02215572,0.06384408,1.57211,0.02815857,-0.4224407,1.568198,-0.08321263,-0.1955378,1.589294,0.2926673,-0.1123436,1.443865,NA,NA,NotTracked,Unknown,
0.8911133,-0.3540039,0.2250977,-0.534668,0.7026367,0.5151367,-2,-2,-5,-2,-1,-3,-1,-3,6,5,-10,4,3,-8,-6,2,-4.3125,-4.3125,-4.3125,9.3125,9.3125,9.3125,3.385593,3.249973,0.9430221,6.529112,5.913616,5.767733,-0.08037494,-0.4932015,1.489902,0.09736505,0.04152012,1.452137,0.1452805,0.3354787,1.607931,-0.03877124,-0.4950467,1.473585,0.05537001,-0.01441526,1.45984,0.1197458,-0.1186953,1.609966,0.1030503,-0.4340785,1.596533,-0.0222028,0.06375735,1.572088,0.02800815,-0.4223613,1.567877,-0.08325025,-0.1955828,1.589182,0.2924814,-0.1126042,1.444007,NA,NA,NotTracked,Unknown,
0.8911133,-0.394043,0.2436523,-0.4707031,0.7133789,0.5200195,-2,-1,-2,-1,-1,0,-1,-2,2,1,-5,-8,-1,2,-2,-1,6.0625,6.0625,6.0625,10.5,10.5,10.5,3.398204,3.24954,0.9282186,6.486746,5.877273,5.657253,-0.07831314,-0.4932471,1.490571,0.09791317,0.03713737,1.442641,0.14465,0.3354967,1.607762,-0.0381823,-0.4948341,1.473192,0.04220868,0.03008868,1.397082,0.1195433,-0.1187924,1.609722,0.1029472,-0.4341994,1.596369,-0.02235159,0.06360237,1.571871,0.02789275,-0.4223786,1.567745,-0.08340032,-0.1956338,1.589031,0.2921594,-0.114291,1.444871,NA,NA,NotTracked,Unknown,
0.90625,-0.3759766,0.2202148,-0.371582,0.6074219,0.5732422,0,1,-2,-1,-1,1,-1,0,-5,-2,2,0,-8,0,-2,1,5.5,5.5,5.5,9,9,9,3.407836,3.249335,0.9283036,6.433739,5.817475,5.532959,-0.07823306,-0.4936377,1.490563,0.08075255,0.02256078,1.42579,0.1435802,0.3355948,1.607865,-0.03755562,-0.4944658,1.474647,0.06153578,-0.02356456,1.458241,0.119328,-0.1187529,1.609505,0.102871,-0.4340995,1.596063,-0.02385213,0.06343226,1.572616,0.02780783,-0.4222888,1.567603,-0.08337875,-0.1957188,1.589108,0.2921028,-0.1173543,1.44648,NA,NA,NotTracked,Unknown,
0.8891602,-0.371582,0.2460938,-0.4150391,0.6743164,0.6069336,0,1,-2,-2,-1,-1,0,-1,-2,-1,1,2,-4,-1,-1,-2,4.1875,4.1875,4.1875,4.125,4.125,4.125,3.418617,3.250238,0.9257196,6.370642,5.732888,5.385765,-0.07758377,-0.4940169,1.491963,0.06899789,0.0163453,1.404738,0.1420183,0.3356291,1.607922,-0.03778408,-0.4949869,1.473961,0.1097635,0.05056295,1.458792,0.1188147,-0.118588,1.609302,0.1026146,-0.433757,1.59591,-0.02845056,0.06412801,1.577403,0.02756607,-0.4220517,1.56812,-0.08342898,-0.1957405,1.58942,0.2909971,-0.1215859,1.449703,NA,NA,NotTracked,Unknown,
0.8969727,-0.3857422,0.2446289,-0.3071289,0.6420898,0.5961914,0,-1,-1,1,-2,-3,-5,-1,7,-4,-5,-8,-5,-2,1,-2,3.8125,3.8125,3.8125,-6.8125,-6.8125,-6.8125,3.422168,3.250705,0.9251463,6.34393,5.696667,5.333107,-0.07771458,-0.4932854,1.493707,0.05831322,-0.008522538,1.371867,0.139978,0.3354414,1.607578,-0.03806761,-0.4940983,1.474577,0.08513945,0.03296031,1.392056,0.1180736,-0.118344,1.609067,0.1020358,-0.4328559,1.595558,-0.03762557,0.06537376,1.584327,0.02717596,-0.4213641,1.56867,-0.08347603,-0.1958644,1.589842,0.2920083,-0.1262335,1.454623,NA,NA,Unknown,Unknown,
0.9018555,-0.3701172,0.2456055,-0.2128906,0.6186523,0.6894531,0,-2,-1,-1,0,0,-1,0,11,14,1,0,-2,2,-1,0,3.125,3.125,3.125,-22.75,-22.75,-22.75,3.425732,3.248711,0.93494,6.209074,5.469443,5.063786,-0.07860239,-0.4942226,1.495101,0.0759965,-0.04699383,1.347663,0.1369191,0.3352214,1.606902,-0.03805719,-0.4957603,1.474722,0.05809078,-0.02422588,1.407,0.1169299,-0.1180503,1.608956,0.100965,-0.43192,1.595616,-0.04031591,0.06511968,1.586749,0.02633904,-0.4204509,1.569455,-0.08371374,-0.1965459,1.590526,0.2962364,-0.1312034,1.46444,NA,NA,Unknown,Unknown,
0.8955078,-0.3686523,0.2548828,-0.1552734,0.6601563,0.7578125,-2,-1,-1,0,-1,-3,-2,-1,3,-7,-5,-1,5,-3,-1,-26,-1.5,-1.5,-1.5,-16.3125,-16.3125,-16.3125,3.419975,3.243672,0.9410053,6.129907,5.219753,4.844458,-0.07943816,-0.4947091,1.498421,0.09615374,-0.09860639,1.326809,0.1345985,0.335082,1.607088,-0.03922857,-0.4970601,1.477116,0.05073848,-0.07991332,1.378,0.1156428,-0.1175495,1.609409,0.09945288,-0.4307429,1.596129,-0.04338576,0.06492043,1.590154,0.02545171,-0.419718,1.569863,-0.08412217,-0.1972044,1.591901,0.3211949,-0.1344238,1.501334,NA,NA,Unknown,Unknown,
0.8989258,-0.3828125,0.2490234,-0.1376953,0.6054688,0.8183594,-1,0,-1,-2,-2,1,-1,-1,15,3,-1,0,1,-2,-2,0,2.125,2.125,2.125,-23.625,-23.625,-23.625,3.414669,3.237419,0.9456457,6.094984,5.078985,4.743066,-0.0795605,-0.494565,1.502244,0.1284839,-0.1602595,1.31444,0.1323387,0.3348833,1.606287,-0.03652814,-0.498094,1.488464,0.09413846,-0.1416263,1.384375,0.1145937,-0.1174223,1.609337,0.09868431,-0.4305482,1.596243,-0.04411379,0.06455401,1.590886,0.024688,-0.4196861,1.569777,-0.08481495,-0.1973282,1.592888,0.3270642,-0.1348832,1.517759,NA,NA,Unknown,Unknown,
0.8969727,-0.3686523,0.2392578,0.0703125,0.5727539,0.8383789,-2,-1,-1,-1,-2,-2,1,1,-15,-7,-2,0,3,0,0,10,-1.625,-1.625,-1.625,-13.3125,-13.3125,-13.3125,3.419811,3.230711,0.9412527,6.071138,4.679709,4.507765,-0.07954291,-0.4967487,1.503953,0.1552243,-0.2249324,1.309329,0.1303876,0.3345323,1.605229,-0.03907236,-0.498664,1.489984,0.1195124,-0.2196612,1.385063,0.1142884,-0.1175046,1.609288,0.09865227,-0.4306459,1.596233,-0.0455717,0.06446095,1.591815,0.02459522,-0.4199999,1.569517,-0.08524416,-0.1971858,1.594446,0.3624355,-0.1661085,1.51051,NA,NA,NotTracked,Unknown,
0.8925781,-0.3730469,0.2548828,0.25,0.6025391,0.7832031,-1,-2,-2,-1,2,-1,1,0,16,5,-5,-4,-3,-2,-5,9,-4.6875,-4.6875,-4.6875,0.625,0.625,0.625,3.422815,3.222703,0.9298303,6.098322,4.434044,4.376943,-0.07900615,-0.4976601,1.507071,0.189717,-0.2856865,1.320619,0.1286207,0.3344094,1.60365,-0.03906416,-0.4980668,1.492226,0.2074555,-0.3417639,1.3334,0.1127771,-0.1178024,1.609109,0.09683869,-0.4312475,1.596223,-0.0465067,0.06440382,1.592388,0.02284367,-0.4205023,1.569207,-0.08585188,-0.1973434,1.59584,0.3626982,-0.1646447,1.532769,NA,NA,NotTracked,Unknown,
0.8925781,-0.3730469,0.2548828,0.25,0.6025391,0.7832031,-1,-2,-2,-1,2,-1,1,0,16,9,9,7,4,3,-1,40,-4.6875,-4.6875,-4.6875,0.625,0.625,0.625,3.422815,3.222703,0.9298303,6.098322,4.434044,4.376943,-0.07976445,-0.4983657,1.509751,0.2232098,-0.3402437,1.346994,0.1268267,0.3339245,1.602177,-0.0357426,-0.4972872,1.494127,0.190961,-0.3719249,1.401167,0.110403,-0.1185425,1.608868,0.0934228,-0.4330332,1.596052,-0.04778306,0.06406649,1.592902,0.01934361,-0.4211043,1.568467,-0.08627561,-0.1978474,1.596608,0.3330317,-0.1494631,1.575988,NA,NA,NotTracked,Unknown,
0.9072266,-0.3662109,0.246582,0.5488281,0.6064453,0.6689453,0,0,-2,-1,0,-2,-3,-2,-1,-3,0,-3,-4,-1,2,-3,-0.25,-0.25,-0.25,-7.8125,-7.8125,-7.8125,3.431159,3.209822,0.9066088,6.173061,3.938427,4.14893,-0.07896567,-0.4990376,1.511596,0.2403225,-0.3817623,1.390694,0.1253474,0.333496,1.600242,-0.03597173,-0.4972226,1.49462,0.2112618,-0.4190581,1.435375,0.1094587,-0.1191315,1.608692,0.09249806,-0.433955,1.59604,-0.04898667,0.06365401,1.593189,0.01829459,-0.4215731,1.568108,-0.0867274,-0.198253,1.597328,0.3308887,-0.1599685,1.580777,NA,NA,NotTracked,Unknown,
0.9052734,-0.3564453,0.2421875,0.6342773,0.5263672,0.6376953,0,-1,-2,-2,-1,-2,-2,-1,2,10,-2,-4,-2,-2,-1,6,-1.625,-1.625,-1.625,-17,-17,-17,3.435352,3.209768,0.8998812,6.193191,3.819222,4.091751,-0.07877075,-0.4988095,1.51093,0.2667316,-0.418332,1.395995,0.1242416,0.3331705,1.599299,-0.03684112,-0.5039409,1.494099,0.2311024,-0.4075269,1.418143,0.1094036,-0.1194343,1.608762,0.09316152,-0.4348854,1.596305,-0.0496829,0.06331041,1.593203,0.01879722,-0.422428,1.567996,-0.08731578,-0.1986353,1.598095,0.3299663,-0.171883,1.584723,NA,NA,NotTracked,Unknown,
0.9047852,-0.3579102,0.2460938,0.6567383,0.5161133,0.5175781,-1,-1,0,0,-1,-2,0,0,17,-3,-1,-2,-1,-2,-2,-2,-2.125,-2.125,-2.125,-20.3125,-20.3125,-20.3125,3.436936,3.210884,0.8940678,6.263538,3.576955,3.945308,-0.07955511,-0.4972944,1.511608,0.2818502,-0.4534453,1.419377,0.1234319,0.3329381,1.598536,-0.03520353,-0.4958276,1.496178,0.2650233,-0.485828,1.430333,0.1099879,-0.1200435,1.608759,0.09676313,-0.4364889,1.596621,-0.05047254,0.06310068,1.593293,0.02217428,-0.4243364,1.56756,-0.08780929,-0.1992292,1.598485,0.3291775,-0.1812043,1.586387,NA,NA,NotTracked,Unknown,
0.9243164,-0.3579102,0.2324219,0.7919922,0.4155273,0.4296875,-1,0,2,-1,0,-1,-2,1,25,9,-1,-1,-2,1,-2,4,-1.5625,-1.5625,-1.5625,0.75,0.75,0.75,3.436277,3.210527,0.8894661,6.336431,3.431844,3.83022,-0.07843998,-0.4974756,1.511385,0.2951914,-0.4864402,1.446359,0.1229146,0.3327204,1.598172,-0.03503543,-0.5031198,1.494696,0.3326267,-0.4733891,1.454611,0.1108048,-0.1205592,1.608837,0.1001856,-0.4372098,1.596746,-0.05090671,0.06301302,1.593226,0.02560001,-0.4259085,1.567425,-0.08832681,-0.2004734,1.598881,0.3282515,-0.189075,1.586353,NA,NA,NotTracked,Lasso,
0.9228516,-0.355957,0.2280273,0.859375,0.4365234,0.3710938,-1,-1,0,-1,-2,-1,-2,-1,-6,-7,-4,-2,-2,-1,2,11,-0.1875,-0.1875,-0.1875,6.0625,6.0625,6.0625,3.435915,3.210849,0.8895553,6.381266,3.385232,3.78095,-0.0789234,-0.4962382,1.510509,0.3104326,-0.4986145,1.47681,0.1226697,0.3326614,1.597895,-0.03425436,-0.4934821,1.497386,0.3288185,-0.5206506,1.447482,0.1112658,-0.1207586,1.608872,0.1021003,-0.4373538,1.596789,-0.05131444,0.06293251,1.593177,0.02754458,-0.4266867,1.567303,-0.08860099,-0.2008142,1.599069,0.3274752,-0.1957864,1.585737,NA,NA,NotTracked,NotTracked,
0.8886719,-0.3525391,0.2446289,0.9838867,0.3974609,0.1762695,-1,0,0,-1,-1,-2,1,0,-4,0,-2,1,1,1,5,48,1.0625,1.0625,1.0625,0.75,0.75,0.75,3.439442,3.212461,0.8931775,6.618918,3.199454,3.523873,-0.07928187,-0.4963239,1.51011,0.3175046,-0.5014092,1.49792,0.1225684,0.3324285,1.597747,-0.03648103,-0.4990233,1.493145,0.3535903,-0.5071931,1.49181,0.1120671,-0.1211126,1.608838,0.1037732,-0.4376696,1.596824,-0.05143397,0.06296696,1.593216,0.02930522,-0.4274507,1.567265,-0.08913257,-0.2015609,1.599372,0.3275796,-0.1992616,1.586432,NA,NA,NotTracked,NotTracked,
0.8891602,-0.3583984,0.2485352,0.9116211,0.3666992,0.2749023,-1,-1,0,-1,-1,0,-1,-3,-11,-5,-2,-1,1,0,1,23,-4.125,-4.125,-4.125,-1.6875,-1.6875,-1.6875,3.43404,3.206206,0.8949291,6.616361,3.19034,3.525336,-0.07919997,-0.4958183,1.511321,0.3212093,-0.5030827,1.50524,0.1225957,0.332257,1.597245,-0.03131338,-0.487384,1.499634,0.3730174,-0.4551284,1.493948,0.1123946,-0.1211855,1.608775,0.1043027,-0.4375635,1.596805,-0.05163058,0.06298717,1.593182,0.02976889,-0.4274768,1.567161,-0.08947396,-0.2018199,1.599558,0.3283496,-0.201395,1.588214,NA,NA,NotTracked,NotTracked,
0.9101563,-0.3525391,0.2299805,0.8515625,0.3852539,0.2949219,-1,-1,1,0,-1,-4,-2,2,-20,-8,-6,-1,-2,1,-2,-32,-3.6875,-3.6875,-3.6875,-12.4375,-12.4375,-12.4375,3.422278,3.197209,0.9004738,6.588081,3.204616,3.53939,-0.07904915,-0.4982997,1.513469,0.3222115,-0.5030104,1.503445,0.1227335,0.3320938,1.596908,-0.03171074,-0.4811221,1.503091,0.3666255,-0.4815247,1.493,0.1126133,-0.1212314,1.608807,0.1044637,-0.4375325,1.596855,-0.05161408,0.06303864,1.593125,0.0299087,-0.4275025,1.56722,-0.08979379,-0.2022308,1.599803,0.3290279,-0.2019748,1.590113,NA,NA,NotTracked,NotTracked,
0.9111328,-0.3505859,0.2387695,0.8662109,0.3579102,0.284668,-2,-2,-1,-2,-2,-1,-1,0,-7,0,2,-1,-1,0,0,58,-2.8125,-2.8125,-2.8125,-12.875,-12.875,-12.875,3.41556,3.18982,0.901176,6.557672,3.224741,3.542602,-0.07972572,-0.4969966,1.515435,0.3214274,-0.5033127,1.498674,0.1229612,0.3319891,1.596512,-0.03292545,-0.4922409,1.500798,0.3501537,-0.516034,1.48131,0.1129,-0.1212105,1.608768,0.1047013,-0.4374477,1.596886,-0.05159727,0.06321363,1.592858,0.03011214,-0.4274765,1.56724,-0.0899139,-0.2022618,1.599877,0.32945,-0.2024767,1.590918,NA,NA,NotTracked,NotTracked,
0.9033203,-0.3491211,0.2387695,0.8657227,0.3598633,0.2817383,-1,-2,-1,-1,-2,-1,-1,-1,11,2,0,2,0,1,3,-11,-0.0625,-0.0625,-0.0625,-8,-8,-8,3.416674,3.189675,0.8991412,6.547523,3.231047,3.548288,-0.07975844,-0.4994795,1.516968,0.3195476,-0.5022017,1.494554,0.1233234,0.3318695,1.596321,-0.03551362,-0.4758565,1.509831,0.3452456,-0.5263432,1.471333,0.1132541,-0.1211935,1.608993,0.1053023,-0.437304,1.597177,-0.05158712,0.06331312,1.59281,0.03068214,-0.4274771,1.5674,-0.09035211,-0.2032185,1.600313,0.3296838,-0.202719,1.591684,NA,NA,NotTracked,NotTracked,
0.9169922,-0.3500977,0.2275391,0.8579102,0.3676758,0.253418,-2,0,-1,-1,-2,-2,-1,-1,4,1,2,-2,-1,0,-1,-23,2.125,2.125,2.125,-0.4375,-0.4375,-0.4375,3.419887,3.191543,0.8988385,6.521853,3.254908,3.576812,-0.0795382,-0.4994268,1.515221,0.31777,-0.5000162,1.48824,0.123691,0.3318111,1.596086,-0.03344497,-0.491445,1.502347,0.3579137,-0.4928991,1.490143,0.1135782,-0.1212051,1.609043,0.1055849,-0.4372767,1.597273,-0.05149573,0.06332041,1.592689,0.03090558,-0.4274725,1.567402,-0.09044968,-0.2032902,1.600437,0.3296687,-0.2026798,1.591779,NA,NA,NotTracked,NotTracked,
0.9140625,-0.3457031,0.2207031,0.8725586,0.3564453,0.2763672,-1,-2,-1,-1,-2,0,-2,0,3,1,-3,-1,0,0,-2,20,2.75,2.75,2.75,4.75,4.75,4.75,3.427682,3.193948,0.8968305,6.506563,3.26107,3.598941,-0.07894174,-0.4974331,1.516309,0.3158168,-0.4988675,1.487808,0.1240804,0.3317346,1.595886,-0.03420931,-0.4941908,1.501089,0.3389556,-0.5172989,1.461679,0.1142216,-0.1213502,1.609159,0.1061188,-0.4373243,1.597467,-0.05133624,0.0633611,1.592695,0.03137882,-0.427561,1.567447,-0.09029116,-0.2031428,1.600778,0.3297174,-0.2027383,1.591847,NA,NA,NotTracked,NotTracked,
0.9086914,-0.3540039,0.2329102,0.8769531,0.3706055,0.2827148,-2,-1,-1,0,-1,2,-1,1,2,-1,-1,0,-2,-1,4,-40,0.9375,0.9375,0.9375,6.625,6.625,6.625,3.433746,3.193603,0.8934013,6.498174,3.261135,3.621045,-0.0784919,-0.4973702,1.517345,0.3157724,-0.4988784,1.488647,0.1243934,0.3317132,1.595823,-0.03366385,-0.4929675,1.501808,0.3416482,-0.5145439,1.466128,0.1146666,-0.1212518,1.609387,0.1064935,-0.4372109,1.597756,-0.05120831,0.06349692,1.592816,0.03171652,-0.4274845,1.567653,-0.09011808,-0.2031354,1.601479,0.3297324,-0.202663,1.591845,NA,NA,NotTracked,NotTracked,
0.8955078,-0.3481445,0.2333984,0.8691406,0.3530273,0.2788086,-2,-1,-2,-2,-1,-2,-1,-1,-1,-2,1,-3,-1,0,-3,2,0.9375,0.9375,0.9375,3.625,3.625,3.625,3.436426,3.19042,0.8918772,6.486137,3.259206,3.646658,-0.07852234,-0.4974606,1.517873,0.3143884,-0.4972401,1.487669,0.1248623,0.3317861,1.595641,-0.03378373,-0.4936187,1.501394,0.3588275,-0.4771495,1.475846,0.1153644,-0.1214362,1.609502,0.1071776,-0.4376396,1.598044,-0.05101687,0.06354683,1.592851,0.03236493,-0.4276003,1.567787,-0.08991794,-0.2035586,1.602017,0.3297158,-0.2026635,1.591792,NA,NA,NotTracked,NotTracked,
0.9125977,-0.3564453,0.2314453,0.871582,0.359375,0.2724609,0,0,-2,-1,0,-1,0,-2,-8,-2,1,-1,0,-2,3,-16,-2.1875,-2.1875,-2.1875,6,6,6,3.42222,3.183953,0.9022823,6.481261,3.258659,3.663265,-0.07802922,-0.4977998,1.520027,0.3141367,-0.4970693,1.488715,0.1254088,0.3318292,1.595433,-0.03491887,-0.5004366,1.501722,0.3419885,-0.4982768,1.4672,0.1156747,-0.1214634,1.609667,0.107611,-0.4376282,1.598404,-0.05092546,0.06358907,1.59296,0.03274195,-0.4276093,1.568021,-0.08973982,-0.2033177,1.60258,0.3297282,-0.2026305,1.591746,NA,NA,NotTracked,NotTracked,
0.9145508,-0.3496094,0.2299805,0.871582,0.359375,0.2724609,-1,-1,-3,-1,0,-1,2,-2,6,2,0,-1,-1,2,-1,63,-1.9375,-1.9375,-1.9375,6,6,6,3.419789,3.182847,0.9042875,6.481261,3.258659,3.663265,-0.07866465,-0.4976175,1.520769,0.3120788,-0.4963779,1.487558,0.1260382,0.3316925,1.595031,-0.03488107,-0.5055694,1.501658,0.3524088,-0.465197,1.473534,0.1159326,-0.1215033,1.609705,0.1078472,-0.4376503,1.598539,-0.05081955,0.06360143,1.592993,0.03299403,-0.4276842,1.568157,-0.08935623,-0.2037134,1.602731,0.3297079,-0.2025738,1.591599,NA,NA,NotTracked,NotTracked,
0.9091797,-0.3393555,0.2246094,0.8779297,0.3413086,0.2832031,0,0,-1,-3,-2,-3,1,1,0,0,-2,-3,-1,0,0,-2,-1.1875,-1.1875,-1.1875,3.125,3.125,3.125,3.40707,3.179404,0.9107666,6.469096,3.257636,3.688028,-0.07909789,-0.4980598,1.521024,0.3120399,-0.4962949,1.488814,0.1264729,0.3317359,1.594829,-0.03055983,-0.4676187,1.507087,0.3574228,-0.4523846,1.47841,0.1162759,-0.1215876,1.609769,0.1081541,-0.4377627,1.598816,-0.05062402,0.063753,1.592971,0.03328856,-0.4277125,1.568293,-0.08911462,-0.2034667,1.60315,0.3296921,-0.2025286,1.591518,NA,NA,NotTracked,NotTracked,
0.9125977,-0.3388672,0.2319336,0.8740234,0.3647461,0.284668,-1,0,0,-2,-1,-3,-2,-2,1,2,-1,-3,0,1,-1,9,-1.625,-1.625,-1.625,-0.5,-0.5,-0.5,3.407863,3.17929,0.9075581,6.457815,3.25554,3.703097,-0.07867812,-0.5001119,1.520232,0.3109619,-0.495723,1.489702,0.1270214,0.3317907,1.59462,-0.03112426,-0.4744489,1.506718,0.3562016,-0.4735812,1.495706,0.116713,-0.1215812,1.609864,0.1087135,-0.4377612,1.599091,-0.05032683,0.06389611,1.593005,0.03380314,-0.4277395,1.568426,-0.08894392,-0.2034141,1.603563,0.3297233,-0.2025797,1.591464,NA,NA,NotTracked,NotTracked,
0.9140625,-0.3408203,0.2250977,0.8623047,0.3554688,0.2954102,0,-1,-1,0,-1,-1,-1,0,-16,-13,-2,-2,-3,-1,0,-8,-0.625,-0.625,-0.625,0.125,0.125,0.125,3.412819,3.179808,0.9009964,6.445866,3.256258,3.714204,-0.07844187,-0.4976822,1.520865,0.3099737,-0.4965913,1.490678,0.1277675,0.3317759,1.594333,-0.03452239,-0.500142,1.503576,0.3537831,-0.4627831,1.480474,0.1171451,-0.1216402,1.609971,0.1089625,-0.4377566,1.599302,-0.04990452,0.06405008,1.593054,0.03404218,-0.4277239,1.568576,-0.08862787,-0.2031758,1.603847,0.3296928,-0.202562,1.59142,NA,NA,NotTracked,NotTracked,
0.9130859,-0.3364258,0.2265625,0.8676758,0.3618164,0.3032227,-2,-1,-2,-1,0,-3,0,-1,11,3,0,-2,0,-1,1,2,0.5625,0.5625,0.5625,1.4375,1.4375,1.4375,3.42296,3.179794,0.8900788,6.435686,3.256689,3.729073,-0.07733575,-0.4999668,1.519454,0.3087426,-0.4965405,1.491051,0.1283517,0.3316959,1.594053,-0.03325653,-0.4848686,1.505004,0.3567851,-0.4523621,1.482667,0.1176036,-0.1216655,1.610061,0.1093073,-0.4377082,1.59945,-0.04956905,0.06414664,1.593021,0.03438186,-0.4276749,1.568667,-0.0883223,-0.2030389,1.604001,0.3296583,-0.2025291,1.591407,NA,NA,NotTracked,NotTracked,
0.9125977,-0.34375,0.2202148,0.8745117,0.3613281,0.2905273,0,-1,-2,0,-2,-1,-2,0,-5,-6,-1,-2,-1,0,-3,5,0.25,0.25,0.25,2.4375,2.4375,2.4375,3.426797,3.180032,0.886099,6.432721,3.256903,3.734853,-0.07739382,-0.4998656,1.518579,0.3080706,-0.4970648,1.49064,0.1289303,0.3315409,1.5939,-0.03215206,-0.4847744,1.504058,0.351838,-0.4780588,1.493353,0.1179501,-0.1217417,1.60999,0.1096511,-0.4377369,1.599458,-0.0491429,0.06415928,1.592862,0.03471719,-0.427738,1.568634,-0.08802467,-0.2029424,1.604072,0.3295792,-0.2024099,1.591317,NA,NA,NotTracked,NotTracked,
0.9145508,-0.3378906,0.2260742,0.8779297,0.3530273,0.293457,-2,-1,0,-1,-1,-2,-1,0,3,3,1,0,1,-2,-4,-4,1,1,1,4.3125,4.3125,4.3125,3.435124,3.180254,0.8797179,6.431216,3.256187,3.74258,-0.0765272,-0.5003311,1.518615,0.3066255,-0.4960724,1.489734,0.1293142,0.3313632,1.593755,-0.03268791,-0.4888337,1.504075,0.3498305,-0.4584019,1.477484,0.1182125,-0.1218402,1.609993,0.1097709,-0.4377677,1.599513,-0.04896792,0.06418525,1.592855,0.03481858,-0.4277273,1.568668,-0.08783394,-0.2028615,1.604084,0.3295042,-0.2024038,1.591286,NA,NA,NotTracked,NotTracked,
0.9150391,-0.3422852,0.2177734,0.8754883,0.3515625,0.2851563,0,0,-1,0,-2,0,0,-1,-29,-8,-1,-1,-2,-2,-2,-6,4.625,4.625,4.625,-3,-3,-3,3.435382,3.179478,0.8831487,6.436441,3.254027,3.73748,-0.0743806,-0.4993225,1.518822,0.3069695,-0.4932214,1.490146,0.1296498,0.3313951,1.593522,-0.02882635,-0.4775546,1.504289,0.3535854,-0.4577841,1.479,0.1184933,-0.1217521,1.609954,0.1100488,-0.4376261,1.599569,-0.04860357,0.06446844,1.592816,0.03505951,-0.4276277,1.568695,-0.08740058,-0.2027429,1.604232,0.3294794,-0.2022383,1.591122,NA,NA,NotTracked,NotTracked,
