ALX,ALY,ALZ,ARX,ARY,ARZ,EMG0L,EMG1L,EMG2L,EMG3L,EMG4L,EMG5L,EMG6L,EMG7L,EMG0R,EMG1R,EMG2R,EMG3R,EMG4R,EMG5R,EMG6R,EMG7R,GLX,GLY,GLZ,GRX,GRY,GRZ,ORL,OPL,OYL,ORR,OPR,OYR,LHNX,LHNY,LHNZ,RHNX,RHNY,RHNZ,HX,HY,HZ,LTX,LTY,LTZ,RTX,RTY,RTZ,SpineMidX,SpineMidY,SpineMidZ,SpineBaseX,SpineBaseY,SpineBaseZ,ShoulderLeftX,ShoulderLeftY,ShoulderLeftZ,ShoulderRightX,ShoulderRightY,ShoulderRightZ,ElbowLeftX,ElbowLeftY,ElbowLeftZ,ElbowRightX,ElbowRightY,ElbowRightZ,Myo_Pose_left,Myo_Pose_Right,Kinect_pose_left,Kinect_pose_right
0.7446289,-0.6479492,0.4765625,0.8754883,0.3447266,0.3173828,0,-9,5,4,-8,-11,-11,-1,-2,-2,-3,-3,-2,-1,-1,0,27.125,27.125,27.125,5.4375,5.4375,5.4375,3.598832,3.703917,1.589575,6.317055,3.263747,7.631592,0.0978276,-0.4296945,1.518497,0.412542,-0.4980105,1.582727,0.2623189,0.3314292,1.711712,0.08146525,-0.4596663,1.5142,0.3719062,-0.4809253,1.573234,0.2530453,-0.1188135,1.711123,0.2536284,-0.4293046,1.692027,0.08121327,0.06337067,1.705114,0.1741145,-0.4224114,1.660098,0.04127273,-0.1825354,1.699285,0.4508075,-0.201271,1.677618,NA,NA,Unknown,NotTracked,
0.6757813,-0.5991211,0.5507813,0.8759766,0.340332,0.3007813,0,5,16,-2,-13,-16,-23,-2,-1,-3,-2,0,-2,-1,0,0,-4,-4,-4,4.875,4.875,4.875,3.675964,3.959844,1.511431,6.319726,3.26724,7.638822,0.1264316,-0.3933035,1.483348,0.4134595,-0.4909825,1.583745,0.2625349,0.3316734,1.713693,0.08782171,-0.3649635,1.469139,0.3722114,-0.4803727,1.573274,0.2553501,-0.1189299,1.712088,0.2570165,-0.4300223,1.693362,0.08192863,0.06369027,1.705754,0.1780416,-0.4245663,1.661387,0.03810012,-0.1686206,1.695451,0.4508964,-0.2013482,1.677737,NA,NA,Unknown,NotTracked,
0.5664063,-0.6401367,0.5922852,0.8779297,0.3447266,0.3007813,7,-3,13,-6,-13,-15,-9,-1,-1,-1,0,-3,-2,-1,-3,-2,4,4,4,-0.0625,-0.0625,-0.0625,3.706726,4.166341,1.462338,6.323655,3.273241,7.639396,0.1400634,-0.3458595,1.449896,0.4115209,-0.4977814,1.580348,0.2624574,0.3315383,1.715457,0.1172892,-0.3423817,1.427186,0.3719381,-0.4852619,1.570936,0.2554387,-0.11956,1.714129,0.2569488,-0.4310152,1.695911,0.0823892,0.06381034,1.70596,0.1784031,-0.425269,1.663577,0.03585231,-0.1570882,1.691643,0.4509532,-0.2012655,1.677838,NA,NA,Unknown,NotTracked,
0.4267578,-0.6538086,0.6689453,0.8740234,0.3466797,0.3144531,12,29,33,14,11,7,-24,2,1,7,1,4,1,-2,0,0,5.75,5.75,5.75,-0.375,-0.375,-0.375,3.73906,4.432319,1.405507,6.322429,3.283254,7.639163,0.1667595,-0.3016219,1.418472,0.4101659,-0.4967139,1.577473,0.2623242,0.3315838,1.716881,0.1465694,-0.3064089,1.395506,0.3714314,-0.4795403,1.571684,0.2545623,-0.1195012,1.715592,0.2532085,-0.4310867,1.699267,0.08276,0.06401316,1.706099,0.1759657,-0.423947,1.666218,0.03544037,-0.1514709,1.683463,0.4509853,-0.2011608,1.67795,NA,NA,Unknown,NotTracked,
0.2958984,-0.6123047,0.6918945,0.890625,0.3603516,0.28125,-14,-19,-6,-6,-10,-13,-32,-14,0,-17,-6,-6,-2,0,-2,0,-0.5,-0.5,-0.5,-5.375,-5.375,-5.375,3.760703,4.611314,1.365174,6.32004,3.306392,7.63288,0.1948016,-0.2544803,1.397298,0.409277,-0.4989603,1.57389,0.2621255,0.3314967,1.717864,0.1899029,-0.220633,1.37164,0.3715083,-0.4755812,1.567302,0.2536928,-0.1193198,1.716378,0.2510549,-0.430489,1.699599,0.08298414,0.06407157,1.705907,0.1739395,-0.4226574,1.666421,0.03367252,-0.1423964,1.675385,0.4510183,-0.2011661,1.677983,NA,NA,Unknown,NotTracked,
0.1728516,-0.6259766,0.6767578,0.8891602,0.3725586,0.2675781,13,-21,4,-13,-12,-6,-7,1,17,12,8,-3,0,4,1,0,0.6875,0.6875,0.6875,-11.875,-11.875,-11.875,3.769835,4.76489,1.333956,6.318035,3.314102,7.629041,0.2097132,-0.2077459,1.390174,0.4102895,-0.4785981,1.572545,0.2618307,0.3317427,1.718882,0.2087866,-0.1736093,1.3666,0.3729726,-0.4679235,1.560659,0.2527379,-0.1189689,1.716636,0.2489336,-0.4296443,1.699375,0.0858591,0.06462302,1.70403,0.1715385,-0.4208628,1.666143,0.02797148,-0.1352415,1.667633,0.4511866,-0.201059,1.678509,NA,NA,Unknown,NotTracked,
0.07861328,-0.6220703,0.7026367,0.9077148,0.371582,0.3237305,9,11,-19,-6,-1,-3,-9,3,-3,3,6,-6,-1,-4,0,1,2.25,2.25,2.25,-27.8125,-27.8125,-27.8125,3.782894,4.911045,1.314288,6.293996,3.355432,7.611623,0.2102395,-0.1673553,1.390134,0.4076211,-0.4647003,1.56397,0.261636,0.3319054,1.719769,0.1999529,-0.1211589,1.376133,0.3744324,-0.4587761,1.542617,0.2517444,-0.118364,1.717111,0.2472521,-0.4280558,1.698988,0.08571726,0.06481654,1.703894,0.1697106,-0.4186257,1.665811,0.02256269,-0.1323993,1.658718,0.4528921,-0.199279,1.681396,NA,NA,Unknown,NotTracked,
0.06396484,-0.6508789,0.6948242,0.8061523,0.4160156,0.46875,-2,-11,8,-1,-7,1,17,22,12,10,7,6,1,7,19,6,0.75,0.75,0.75,-17,-17,-17,3.787875,4.972744,1.313375,6.220261,3.486028,7.629879,0.2051332,-0.1465706,1.390187,0.4009373,-0.4490594,1.550115,0.2613888,0.3316749,1.720303,0.1900426,-0.1078028,1.373128,0.3712248,-0.4364471,1.5615,0.2513144,-0.1178084,1.716754,0.2445211,-0.4261337,1.698662,0.08558154,0.06492186,1.703784,0.1670562,-0.4158356,1.665275,0.02050325,-0.1307262,1.652743,0.4556707,-0.1965775,1.685528,NA,NA,Unknown,NotTracked,
0.04199219,-0.6743164,0.7114258,0.7548828,0.4428711,0.5170898,-1,4,6,-4,1,-2,5,-4,-8,-11,-4,-4,-1,0,-3,-16,2.375,2.375,2.375,-3.125,-3.125,-3.125,3.790667,5.002485,1.317021,6.181287,3.587895,7.662383,0.2032638,-0.1351305,1.389141,0.388069,-0.4352239,1.529798,0.2611252,0.3317367,1.721017,0.1690611,-0.08608053,1.38245,0.3666357,-0.4220825,1.558095,0.2498727,-0.1169877,1.717121,0.2420892,-0.4241861,1.697891,0.08566693,0.0650541,1.70338,0.1645354,-0.4130481,1.664319,0.01909962,-0.1291261,1.647277,0.457271,-0.1942556,1.68785,NA,NA,Unknown,NotTracked,
0.01220703,-0.6958008,0.6826172,0.7617188,0.5024414,0.5410156,1,-3,14,8,4,5,-11,3,-1,-1,12,-3,-2,-3,-10,-6,-1.875,-1.875,-1.875,7.4375,7.4375,7.4375,3.790348,5.00508,1.325462,6.143726,3.743576,7.719846,0.2071385,-0.1326824,1.385614,0.3776424,-0.4075105,1.510864,0.2608441,0.3317997,1.721221,0.1646686,-0.08121557,1.382789,0.3531194,-0.4311588,1.526364,0.2490072,-0.1164804,1.716237,0.2388915,-0.4232785,1.696981,0.08570851,0.06491826,1.702585,0.1612581,-0.4107845,1.663469,-0.01064584,-0.1489929,1.631027,0.4641253,-0.1804547,1.693952,NA,NA,Unknown,Unknown,
0.01660156,-0.7133789,0.7519531,0.7280273,0.6416016,0.6098633,1,1,-41,-4,1,1,-9,9,-2,0,-4,-25,-11,-1,3,0,-0.3125,-0.3125,-0.3125,29.1875,29.1875,29.1875,3.783544,4.982709,1.350819,6.151642,3.888277,7.769546,0.2056175,-0.1351756,1.383245,0.3594095,-0.363398,1.502487,0.2605082,0.3318586,1.721737,0.1647116,-0.07949808,1.382092,0.3194939,-0.3603692,1.543938,0.2469537,-0.1155615,1.715832,0.2353363,-0.4217154,1.695725,0.08574291,0.0651179,1.702151,0.1579597,-0.4090704,1.662382,-0.006434242,-0.1558281,1.609147,0.4691321,-0.172989,1.695341,NA,NA,Unknown,Unknown,
-0.01855469,-0.7280273,0.7460938,0.5644531,0.7094727,0.6943359,-2,-5,8,-4,1,-1,6,4,-2,-19,-17,0,22,-4,-7,-8,-1.875,-1.875,-1.875,41,41,41,3.779375,4.977375,1.369601,6.174616,4.085943,7.832312,0.2045538,-0.1375216,1.378769,0.3520894,-0.2980363,1.478207,0.260257,0.3319376,1.7219,0.1627465,-0.08098155,1.38116,0.3629714,-0.3682875,1.520333,0.2450338,-0.1151303,1.715725,0.2323635,-0.4208063,1.694678,0.08567485,0.06517909,1.701742,0.1554203,-0.4082696,1.661953,-0.00650458,-0.1575044,1.60239,0.477766,-0.1484544,1.696626,NA,NA,Unknown,Unknown,
-0.02197266,-0.7055664,0.7661133,0.2475586,0.8076172,0.7612305,2,-10,12,3,1,7,39,-4,1,-6,2,7,3,-19,2,7,-5,-5,-5,46.5625,46.5625,46.5625,3.773556,4.986973,1.384477,6.221705,4.360072,7.891946,0.1979546,-0.137084,1.377101,0.3550158,-0.2068026,1.457402,0.2600658,0.3318225,1.721989,0.1574785,-0.08167306,1.379183,0.3234723,-0.1799888,1.477917,0.2446879,-0.1148568,1.715298,0.2320149,-0.4203564,1.694331,0.08574843,0.06529968,1.700835,0.1551918,-0.4081244,1.661869,-0.007941907,-0.1575221,1.598772,0.4909937,-0.1213934,1.69854,NA,NA,NotTracked,Unknown,
-0.01318359,-0.6928711,0.7597656,-0.05322266,0.7851563,0.7783203,4,3,-2,-5,0,-2,-6,1,11,-13,-1,1,-4,2,1,18,-1.5,-1.5,-1.5,64.1875,64.1875,64.1875,3.773545,5.00205,1.385185,6.304011,4.73396,7.940509,0.2188306,-0.1340426,1.368615,0.1917176,-0.131703,1.374979,0.2599072,0.3318204,1.722134,0.2610197,-0.1110202,1.339563,0.1503824,-0.09064169,1.376688,0.2446845,-0.1145108,1.715134,0.2319152,-0.4196383,1.694309,0.08593176,0.06546301,1.700173,0.155115,-0.4077755,1.662151,-3.280176E-05,-0.1612124,1.569555,0.5043545,-0.1186699,1.656298,NA,NA,NotTracked,NotTracked,
0.005371094,-0.7099609,0.7426758,-0.2729492,0.7973633,0.7275391,-20,-18,-30,-8,-3,-1,-14,-1,-27,-7,-10,-18,-9,18,14,8,1,1,1,66.8125,66.8125,66.8125,3.77361,5.018246,1.379084,6.416517,5.189653,8.016145,0.1861646,-0.129437,1.374871,0.1869217,-0.03438063,1.403654,0.2598504,0.331805,1.722188,0.1578345,-0.07929552,1.376884,0.1583396,-0.02392967,1.392283,0.2444777,-0.114155,1.715045,0.2316326,-0.4187259,1.69426,0.08848669,0.06576971,1.698188,0.1548796,-0.4071479,1.662341,-0.01127699,-0.146073,1.623324,0.4831256,-0.109924,1.580433,NA,NA,NotTracked,NotTracked,
0.004394531,-0.7011719,0.7246094,-0.3447266,0.6748047,0.6806641,0,-20,-47,-10,-5,0,16,6,1,2,8,-4,-3,-8,-51,-27,-1.5,-1.5,-1.5,83.875,83.875,83.875,3.772715,5.034512,1.363798,6.574189,5.639278,8.119045,0.1928197,-0.1254603,1.374322,0.2976957,0.1113339,1.455171,0.2595299,0.3317854,1.722335,0.1595279,-0.07592475,1.374149,0.3151191,0.1030217,1.418734,0.244355,-0.1141951,1.714602,0.2312915,-0.4190174,1.694097,0.08834463,0.06587192,1.697862,0.1536816,-0.408366,1.665033,-0.01025786,-0.1500921,1.6111,0.4827682,-0.1051401,1.564382,NA,NA,Unknown,Unknown,
-0.02050781,-0.7109375,0.7246094,-0.4038086,0.4819336,0.4111328,16,8,-3,-1,9,19,30,5,1,-1,5,-2,-14,15,20,4,1.4375,1.4375,1.4375,30.75,30.75,30.75,3.775265,5.050276,1.345748,6.883185,6.242618,8.407499,0.2024572,-0.1218872,1.374731,0.3084204,0.1609766,1.482767,0.2583954,0.3328015,1.722604,0.1665202,-0.07002392,1.377133,0.3235788,0.1704625,1.455465,0.244587,-0.1134848,1.713261,0.2310599,-0.4190816,1.694045,0.0888577,0.066007,1.697384,0.1528396,-0.4085866,1.666795,-0.008604108,-0.150061,1.604616,0.4821414,-0.09220068,1.537216,NA,NA,Unknown,Unknown,
-0.03076172,-0.7060547,0.7270508,-0.4038086,0.4819336,0.4111328,-3,-11,-21,-5,-3,-5,4,-1,20,8,6,9,7,17,-7,-67,3.0625,3.0625,3.0625,30.75,30.75,30.75,3.779344,5.055469,1.344438,6.883185,6.242618,8.407499,0.203455,-0.1202624,1.375095,0.3093195,0.1701812,1.485478,0.2576854,0.3333122,1.722744,0.1636133,-0.07233837,1.375688,0.3208032,0.195503,1.455692,0.2447473,-0.112678,1.712088,0.2306026,-0.4187985,1.693884,0.08979408,0.06635999,1.696571,0.15219,-0.4081568,1.667465,-0.0067958,-0.1501924,1.604014,0.478016,-0.08927526,1.529783,NA,NA,Unknown,Unknown,
-0.04150391,-0.7143555,0.7255859,-0.2094727,0.534668,0.2832031,0,-5,-22,-9,-5,0,20,1,-4,0,5,5,1,-8,4,-14,5.875,5.875,5.875,-59.4375,-59.4375,-59.4375,3.785715,5.062321,1.363894,6.701268,6.245826,8.32287,0.2024579,-0.1182273,1.370569,0.2829069,0.1320336,1.449859,0.2567534,0.3342669,1.723113,0.1645872,-0.06684117,1.374243,0.2946997,0.1453988,1.383333,0.2444496,-0.1124121,1.71119,0.2302588,-0.4190384,1.693698,0.09027836,0.06657311,1.696443,0.151628,-0.4085189,1.668653,-0.005687783,-0.1525438,1.599663,0.4676507,-0.09746017,1.53213,NA,NA,Unknown,Unknown,
-0.04199219,-0.7573242,0.7397461,-0.3120117,0.6411133,0.5581055,-10,-7,-6,-7,-7,2,3,-3,-57,-13,-4,-9,0,18,11,-7,6.5625,6.5625,6.5625,-87.125,-87.125,-87.125,3.798504,5.074693,1.420452,6.457369,5.55833,8.209154,0.1957279,-0.1175905,1.364653,0.2579798,0.000348329,1.435808,0.2571743,0.3337978,1.723192,0.165237,-0.07498717,1.361611,0.2608777,0.0180214,1.38612,0.2440981,-0.1124464,1.711605,0.2299829,-0.4179808,1.693434,0.09119502,0.06657086,1.695932,0.1521396,-0.4066749,1.666504,-0.006392477,-0.151314,1.615277,0.464049,-0.1114222,1.55975,NA,NA,NotTracked,Unknown,
-0.04589844,-0.7158203,0.7368164,-0.4228516,0.8173828,0.652832,3,7,13,9,5,2,8,7,20,26,33,17,8,-29,-15,-17,-4.875,-4.875,-4.875,-87,-87,-87,3.794787,5.081107,1.454997,6.304795,4.907947,8.243779,0.2075662,-0.1171825,1.354039,0.1880046,-0.1199489,1.360153,0.2573231,0.3334538,1.723158,0.2013538,-0.08617161,1.332938,0.2230984,-0.1168178,1.323819,0.2440761,-0.1120865,1.711793,0.2304335,-0.4162843,1.693075,0.09044212,0.06642948,1.696002,0.1531145,-0.4048963,1.665067,0.00726862,-0.1485915,1.567786,0.5038092,-0.1142373,1.654123,NA,NA,NotTracked,NotTracked,
-0.02441406,-0.6708984,0.7666016,-0.05029297,0.784668,0.7773438,9,2,-6,-2,11,12,4,5,27,7,-11,2,5,-6,1,20,-9.5,-9.5,-9.5,-56.375,-56.375,-56.375,3.785272,5.079937,1.462054,6.218952,4.556411,8.294724,0.2095459,-0.1143878,1.351498,0.2747838,-0.2350173,1.508933,0.2574987,0.3330287,1.722825,0.159328,-0.05160118,1.3656,0.3047419,-0.2816858,1.5021,0.2439192,-0.1120597,1.712013,0.2306786,-0.4159186,1.692789,0.08967113,0.06663246,1.696088,0.1536907,-0.4045179,1.664089,0.003809819,-0.1489248,1.571114,0.4956786,-0.1184884,1.664347,NA,NA,NotTracked,NotTracked,
-0.0546875,-0.652832,0.7412109,1.207031,0.815918,1.197754,7,10,4,-6,-2,-2,-6,0,12,-11,-11,-8,-3,7,5,32,-2.3125,-2.3125,-2.3125,-65.3125,-65.3125,-65.3125,3.778758,5.06654,1.448696,6.048239,4.251378,8.333582,0.2009726,-0.1141506,1.354402,0.284362,-0.2560426,1.523893,0.2581277,0.3325002,1.721453,0.222759,-0.08656743,1.325692,0.3418488,-0.2921588,1.512357,0.243802,-0.1120564,1.712005,0.2308105,-0.4157177,1.692281,0.08953618,0.06681092,1.695403,0.1539617,-0.4041889,1.662656,0.0009985092,-0.1491145,1.574697,0.4738742,-0.1288631,1.66501,NA,NA,Unknown,Unknown,
-0.05371094,-0.6650391,0.753418,0.4145508,0.7749023,0.7866211,-4,4,-24,-3,1,14,5,-7,-3,-19,-12,-8,-3,-19,-3,-9,0.375,0.375,0.375,-50.875,-50.875,-50.875,3.783322,5.06262,1.436201,6.01849,4.257145,8.271767,0.2014622,-0.1154674,1.356751,0.2937194,-0.2553681,1.519478,0.2591758,0.3320763,1.719694,0.1564798,-0.05456701,1.365733,0.3514844,-0.2854038,1.517588,0.2437404,-0.1120804,1.711951,0.2309554,-0.4156509,1.692064,0.08943356,0.06723405,1.694448,0.1542255,-0.4039801,1.661913,-5.079314E-05,-0.1484933,1.57523,0.4691975,-0.1307329,1.666855,NA,NA,Unknown,Unknown,
-0.01025391,-0.7236328,0.7416992,0.4277344,0.659668,0.6933594,15,-19,16,-2,-7,-10,-8,-1,34,-4,-6,-2,-1,19,13,36,4.1875,4.1875,4.1875,1.125,1.125,1.125,3.791078,5.059209,1.42521,6.04949,4.3174,8.199486,0.2022906,-0.1163095,1.358801,0.2957254,-0.2725441,1.488156,0.260317,0.3316607,1.718067,0.1574246,-0.05455013,1.36531,0.3025514,-0.3220374,1.532625,0.2438706,-0.1120617,1.711751,0.2310505,-0.4155892,1.691981,0.08948158,0.0675784,1.693945,0.1544183,-0.4038367,1.661367,-0.0006003465,-0.1492476,1.57125,0.4666904,-0.1317282,1.667092,NA,NA,Unknown,Unknown,
-0.007324219,-0.7280273,0.7124023,0.4091797,0.527832,0.7133789,1,-3,-17,-7,0,3,5,4,-24,-27,-13,-6,-5,-12,-2,-2,1.9375,1.9375,1.9375,17.8125,17.8125,17.8125,3.792841,5.056274,1.42289,6.074606,4.330232,8.176617,0.2012573,-0.1169488,1.360308,0.2966214,-0.2730708,1.479286,0.2610687,0.3314714,1.716709,0.1588442,-0.05503836,1.366625,0.2989776,-0.3255622,1.523207,0.2439535,-0.1120623,1.711596,0.231181,-0.4155645,1.691773,0.08952408,0.06760117,1.693248,0.1546613,-0.4037913,1.660758,-0.0002764433,-0.1494741,1.570973,0.4662881,-0.1319525,1.666835,NA,NA,Unknown,Closed,
-0.02050781,-0.7050781,0.734375,0.402832,0.5205078,0.7211914,-1,6,-2,-3,0,3,-7,-1,2,-10,3,2,1,1,-1,1,0.75,0.75,0.75,8,8,8,3.79325,5.052679,1.425329,6.09733,4.317188,8.16042,0.2011758,-0.1181316,1.361082,0.3001719,-0.2750477,1.475183,0.2614126,0.3313408,1.716131,0.1580716,-0.05826536,1.368141,0.314582,-0.3234875,1.528333,0.2440113,-0.1121067,1.711486,0.23115,-0.4155658,1.691749,0.08949303,0.06762384,1.693064,0.1546558,-0.4037651,1.660673,-0.0002726794,-0.1499598,1.575593,0.4660403,-0.1322288,1.665261,NA,NA,Unknown,Unknown,
-0.01171875,-0.675293,0.7333984,0.3735352,0.4648438,0.6987305,2,-2,10,-2,-4,-7,-2,-1,-10,-2,1,-2,-1,2,3,-2,0.25,0.25,0.25,6.8125,6.8125,6.8125,3.793969,5.042277,1.435434,6.103155,4.290729,8.152617,0.2003339,-0.1201487,1.361953,0.3274605,-0.2668944,1.490757,0.2615339,0.3313422,1.716007,0.1572433,-0.05748608,1.367586,0.304686,-0.2602149,1.540087,0.2439399,-0.1121268,1.711498,0.2310145,-0.4155812,1.691638,0.08948041,0.06762051,1.693063,0.1545227,-0.4037337,1.660533,-0.0009438237,-0.1501997,1.576977,0.4662774,-0.13221,1.66485,NA,NA,Unknown,Closed,
0.06982422,-0.6245117,0.6948242,0.3452148,0.4545898,0.6831055,-2,0,3,0,0,3,4,-2,-1,2,-2,0,1,1,-1,1,3.3125,3.3125,3.3125,11.4375,11.4375,11.4375,3.803781,4.997385,1.455494,6.113246,4.261034,8.140792,0.196503,-0.1264856,1.363806,0.3119408,-0.2974883,1.480391,0.2616366,0.3313662,1.715844,0.1575057,-0.06053862,1.369048,0.2709083,-0.3134328,1.464722,0.2438772,-0.1121811,1.711344,0.2307696,-0.4156947,1.691545,0.0903891,0.06765466,1.693139,0.1543093,-0.4037524,1.660475,-0.002942206,-0.1486609,1.589833,0.4664649,-0.1322445,1.664644,NA,NA,Unknown,Closed,
0.1054688,-0.6054688,0.6943359,0.3251953,0.512207,0.5981445,0,0,-1,-1,2,5,1,-1,-16,-2,2,-1,-2,2,0,0,4.3125,4.3125,4.3125,19.875,19.875,19.875,3.81268,4.912484,1.462126,6.174243,4.129462,8.095016,0.1986523,-0.1460227,1.366742,0.3326423,-0.3370952,1.483622,0.2616568,0.3313743,1.715597,0.2265797,-0.1197696,1.336524,0.3556956,-0.3741625,1.504929,0.2439698,-0.1123138,1.711041,0.2302444,-0.4162092,1.691445,0.09024498,0.06765369,1.693287,0.153677,-0.4040768,1.660468,-0.004276212,-0.1523911,1.598498,0.4614412,-0.1410036,1.660471,NA,NA,Unknown,Closed,
0.1499023,-0.5996094,0.7182617,0.5004883,0.5776367,0.5673828,-2,-4,-3,-5,-5,-6,-1,-3,5,3,-1,0,-1,-1,-2,1,-9.8125,-9.8125,-9.8125,4.375,4.375,4.375,3.807683,4.771153,1.46107,6.239231,3.925253,8.011353,0.1997055,-0.1902297,1.371215,0.3569219,-0.396149,1.486469,0.2617298,0.3313478,1.715433,0.2631645,-0.1896602,1.395445,0.3218806,-0.389611,1.49825,0.2438326,-0.1127442,1.7111,0.2292631,-0.4178887,1.691303,0.09009322,0.06758989,1.69335,0.1524694,-0.4051017,1.660412,-0.001968627,-0.1570712,1.599763,0.4573207,-0.1533513,1.658597,NA,NA,Unknown,Closed,
0.2866211,-0.644043,0.6987305,0.7519531,0.597168,0.4736328,-1,-1,-1,-2,1,2,-1,0,8,1,-1,0,0,-2,-1,0,-24.1875,-24.1875,-24.1875,-34.5625,-34.5625,-34.5625,3.769349,4.493163,1.473042,6.326444,3.674902,7.838665,0.1829737,-0.2528055,1.387182,0.391933,-0.4770354,1.506901,0.2619404,0.3312902,1.714928,0.1855965,-0.3027875,1.417967,0.3645827,-0.4617546,1.487841,0.2448764,-0.1140305,1.710675,0.2331726,-0.4220438,1.689936,0.08975834,0.06720045,1.693515,0.1564426,-0.4100043,1.658119,-0.001068376,-0.164089,1.612972,0.4467194,-0.185328,1.647406,NA,NA,Unknown,Closed,
0.3935547,-0.6376953,0.6259766,1.100098,0.3583984,0.175293,-1,-2,-3,-5,-9,-8,-4,-2,-6,-2,-1,-1,-2,-1,1,0,-18.3125,-18.3125,-18.3125,-38,-38,-38,3.735989,4.240108,1.477469,6.449444,3.431746,7.585773,0.1565455,-0.3171141,1.419275,0.4377299,-0.5059905,1.544524,0.262403,0.3310185,1.713926,0.1427031,-0.3451068,1.392073,0.400914,-0.5069175,1.546445,0.248333,-0.1166145,1.710793,0.2415072,-0.4276495,1.691704,0.08967271,0.06714021,1.693627,0.1655783,-0.4169796,1.659451,0.003041944,-0.1708973,1.619303,0.4441887,-0.1968071,1.644069,NA,NA,Unknown,Closed,
0.5844727,-0.6621094,0.5761719,1.04541,0.3496094,0.1020508,-2,-2,-3,-3,-5,-6,-4,-1,-3,-2,-1,-1,-1,0,1,0,-25.4375,-25.4375,-25.4375,-8.5625,-8.5625,-8.5625,3.676587,3.976615,1.503324,6.684844,3.202765,7.283958,0.1218091,-0.3715678,1.459206,0.464088,-0.5032664,1.576006,0.2632959,0.3310792,1.712321,0.1060495,-0.3595085,1.427698,0.4252478,-0.5022388,1.579974,0.252528,-0.1181609,1.708769,0.2497379,-0.4297132,1.688904,0.08922207,0.06672873,1.693904,0.172034,-0.42143,1.657006,0.0303001,-0.1484109,1.680715,0.4487849,-0.2002351,1.650659,NA,NA,Unknown,Unknown,
0.8632813,-0.6040039,0.5708008,0.8681641,0.347168,0.3598633,0,0,-2,-1,2,3,-4,1,-2,-1,-1,-1,-1,-1,-1,1,-11.5625,-11.5625,-11.5625,-12.9375,-12.9375,-12.9375,3.579831,3.635113,1.614719,6.72641,3.143625,7.233515,0.09382672,-0.4167016,1.49398,0.4741034,-0.5009887,1.592773,0.2643088,0.3311184,1.709649,0.08146854,-0.433921,1.464,0.4354724,-0.501895,1.5964,0.2552444,-0.1188289,1.706491,0.2529024,-0.4305031,1.68634,0.0890068,0.06638582,1.69391,0.1741889,-0.4235392,1.655112,0.03121091,-0.1523467,1.68325,0.4607633,-0.2050485,1.662544,NA,NA,Unknown,NotTracked,
0.8510742,-0.4682617,0.4306641,0.8671875,0.3325195,0.4936523,1,-1,0,-1,1,3,-2,1,1,0,0,-1,0,-1,-2,1,-5.0625,-5.0625,-5.0625,-40.0625,-40.0625,-40.0625,3.497998,3.43666,1.714505,6.659989,3.12591,7.233156,0.07065706,-0.4421972,1.534088,0.4744648,-0.4992502,1.599587,0.2649393,0.3310424,1.706526,0.05410136,-0.4510067,1.51282,0.4306658,-0.501884,1.591974,0.2558206,-0.1189002,1.704673,0.25285,-0.4301834,1.685008,0.08870775,0.06589685,1.693917,0.1739287,-0.4229749,1.654156,0.03476033,-0.1668919,1.688144,0.4682502,-0.2069968,1.673161,NA,NA,Unknown,NotTracked,
0.7998047,-0.5166016,0.3413086,0.8007813,0.4033203,0.3769531,-3,-1,-1,-2,-3,-1,-2,0,0,0,-1,1,-1,-1,0,-2,-0.9375,-0.9375,-0.9375,-63.1875,-63.1875,-63.1875,3.39615,3.307834,1.823149,6.542556,3.140543,7.254177,0.05885284,-0.4733605,1.567017,0.4722916,-0.5000387,1.603457,0.2653514,0.3307731,1.703193,0.03804333,-0.4796173,1.545039,0.4299661,-0.5005898,1.593292,0.2552769,-0.1190043,1.704014,0.2501844,-0.4299704,1.685253,0.08841531,0.0654263,1.693651,0.1714058,-0.4221478,1.654502,0.03658464,-0.1808521,1.691488,0.4704327,-0.2095363,1.679557,NA,NA,Unknown,NotTracked,
0.9570313,-0.4492188,0.1992188,0.8813477,0.3378906,0.2714844,-2,-1,-1,-1,0,-3,-5,-1,4,-2,0,-1,0,-2,-1,-18,41,41,41,-45,-45,-45,3.249719,3.197178,2.056875,6.437217,3.161682,7.267521,0.04870873,-0.4940031,1.597851,0.4659016,-0.5014253,1.604096,0.2653692,0.3305655,1.700861,0.01103675,-0.4946997,1.600421,0.4292295,-0.4947269,1.591179,0.2546711,-0.119262,1.703666,0.2473896,-0.4305169,1.686503,0.08825943,0.06476261,1.693107,0.1692337,-0.4221042,1.655562,0.04025974,-0.1905513,1.693879,0.4688584,-0.2108148,1.683625,NA,NA,NotTracked,NotTracked,
0.9814453,-0.3955078,0.109375,0.925293,0.3427734,0.2104492,0,0,0,-3,-2,-2,2,1,1,-1,-1,0,-2,-1,0,6,31.3125,31.3125,31.3125,2.3125,2.3125,2.3125,3.178373,3.149938,2.202484,6.346903,3.184826,7.337567,0.0445784,-0.5037107,1.617291,0.4525909,-0.5030944,1.601925,0.2657176,0.3303321,1.698886,0.002902066,-0.5006515,1.61712,0.4145147,-0.4941916,1.589273,0.2544756,-0.1194517,1.703452,0.2462057,-0.4309355,1.687501,0.08811489,0.06441326,1.692759,0.1683958,-0.4221583,1.656201,0.0433513,-0.1983788,1.695874,0.4671315,-0.2103495,1.685243,NA,NA,NotTracked,NotTracked,
0.9204102,-0.4042969,0.1640625,0.8676758,0.3725586,0.2651367,0,0,-3,0,-1,-1,3,2,-2,-1,-1,0,0,0,0,3,-3.9375,-3.9375,-3.9375,17.875,17.875,17.875,3.18348,3.141491,2.209267,6.286881,3.215848,7.436313,0.04510786,-0.5072097,1.621267,0.4383789,-0.5007708,1.595233,0.2659521,0.3302701,1.697761,0.00481237,-0.4977998,1.623913,0.4037354,-0.4863291,1.58303,0.2544655,-0.1194784,1.703446,0.2455262,-0.4310275,1.688284,0.08809255,0.06426714,1.692612,0.1678961,-0.4220003,1.656828,0.04499519,-0.20237,1.698339,0.4662846,-0.2095995,1.686041,NA,NA,NotTracked,NotTracked,
0.8896484,-0.3813477,0.2768555,0.8413086,0.3310547,0.3344727,-2,-2,-1,-1,0,-2,-2,0,-1,-1,-2,-2,0,-1,0,1,-8.375,-8.375,-8.375,18.4375,18.4375,18.4375,3.271991,3.17302,2.088931,6.232476,3.253107,7.531117,0.04608655,-0.5064407,1.620495,0.4277432,-0.5010575,1.587479,0.2662653,0.3300301,1.69672,0.00537446,-0.5007795,1.627271,0.3915442,-0.4830645,1.577486,0.2544351,-0.1195974,1.703342,0.245251,-0.4310531,1.688452,0.08810951,0.06405132,1.692541,0.1676103,-0.4219142,1.656958,0.04576618,-0.2042389,1.700296,0.4655966,-0.2088777,1.685677,NA,NA,NotTracked,NotTracked,
0.8852539,-0.3413086,0.2270508,0.8320313,0.347168,0.3071289,0,-1,1,0,1,-2,-1,1,0,0,-1,0,-1,-2,0,-1,-12.625,-12.625,-12.625,16.75,16.75,16.75,3.334308,3.208309,2.013959,6.219023,3.278964,7.582191,0.04962155,-0.4998088,1.615987,0.4248994,-0.4967885,1.582217,0.2666382,0.3299331,1.696258,0.008621974,-0.5018808,1.622122,0.3855363,-0.4853663,1.573067,0.2543986,-0.1196517,1.703255,0.2449241,-0.4310213,1.688414,0.08822437,0.06395312,1.692738,0.1671987,-0.4216771,1.656906,0.04604216,-0.2036498,1.701466,0.4645319,-0.2082779,1.684496,NA,NA,NotTracked,NotTracked,
0.9038086,-0.3720703,0.1738281,0.878418,0.3154297,0.3168945,-1,-3,-2,-2,-2,-1,0,-1,-2,1,-1,0,-1,-2,1,-3,-42.9375,-42.9375,-42.9375,2.3125,2.3125,2.3125,3.309124,3.222877,1.98515,6.258407,3.288086,7.560544,0.05350323,-0.4980154,1.607829,0.4241913,-0.4993158,1.575555,0.2669922,0.3297852,1.696076,0.01619444,-0.5039414,1.614235,0.3864295,-0.484659,1.566512,0.2545199,-0.1196965,1.703102,0.2448877,-0.4309711,1.688222,0.08844484,0.06393867,1.693175,0.1671629,-0.421603,1.656847,0.04638088,-0.2032162,1.701798,0.4633047,-0.2073186,1.681574,NA,NA,NotTracked,NotTracked,
0.8974609,-0.4277344,0.1782227,0.8769531,0.3061523,0.3369141,-1,0,-1,-1,-1,-2,-1,-1,0,0,-1,0,-1,0,0,0,-7,-7,-7,17.1875,17.1875,17.1875,3.270939,3.235282,1.981512,6.28825,3.283329,7.550535,0.05537641,-0.492243,1.606044,0.4261519,-0.4992806,1.57395,0.267722,0.3296479,1.696307,0.01491173,-0.5041094,1.618218,0.3821879,-0.4657318,1.572,0.2547327,-0.1198255,1.703149,0.2449103,-0.4309723,1.688241,0.08886628,0.0637926,1.694614,0.167189,-0.4215892,1.656873,0.0468259,-0.2025059,1.702234,0.462166,-0.2072679,1.678602,NA,NA,NotTracked,NotTracked,
0.8569336,-0.3837891,0.2480469,0.8745117,0.3193359,0.3110352,-1,-1,-1,-1,-3,-3,-1,-1,0,-1,0,-1,0,0,-3,-2,21.9375,21.9375,21.9375,19.0625,19.0625,19.0625,3.315058,3.252422,1.966315,6.308235,3.27809,7.551569,0.05481859,-0.4926141,1.604585,0.4275294,-0.4998223,1.57197,0.2685032,0.3294474,1.696654,0.01428339,-0.4976578,1.611797,0.3864861,-0.4929238,1.565604,0.2550826,-0.1200901,1.703173,0.2449607,-0.4310277,1.68825,0.08923789,0.06387067,1.695521,0.167253,-0.4216234,1.656925,0.04713231,-0.2023416,1.70241,0.4608545,-0.2083141,1.674522,NA,NA,NotTracked,NotTracked,
