ALX,ALY,ALZ,ARX,ARY,ARZ,EMG0L,EMG1L,EMG2L,EMG3L,EMG4L,EMG5L,EMG6L,EMG7L,EMG0R,EMG1R,EMG2R,EMG3R,EMG4R,EMG5R,EMG6R,EMG7R,GLX,GLY,GLZ,GRX,GRY,GRZ,ORL,OPL,OYL,ORR,OPR,OYR,LHNX,LHNY,LHNZ,RHNX,RHNY,RHNZ,HX,HY,HZ,LTX,LTY,LTZ,RTX,RTY,RTZ,SpineMidX,SpineMidY,SpineMidZ,SpineBaseX,SpineBaseY,SpineBaseZ,ShoulderLeftX,ShoulderLeftY,ShoulderLeftZ,ShoulderRightX,ShoulderRightY,ShoulderRightZ,ElbowLeftX,ElbowLeftY,ElbowLeftZ,ElbowRightX,ElbowRightY,ElbowRightZ,Myo_Pose_left,Myo_Pose_Right,Kinect_pose_left,Kinect_pose_right
0.9086914,-0.3525391,0.2348633,0.8544922,0.4726563,0.4038086,-1,0,-1,0,-1,0,-2,-2,17,11,13,5,3,3,4,12,-4.6875,-4.6875,-4.6875,-44.375,-44.375,-44.375,3.395738,3.201525,0.1725694,6.308727,3.513544,5.3843,-0.01877298,-0.5038082,1.533402,0.350645,-0.4641132,1.411697,0.1802135,0.3314959,1.621096,0.02359569,-0.5005915,1.515133,0.3034778,-0.4584513,1.403019,0.1736166,-0.1217349,1.628485,0.166129,-0.436048,1.615256,0.005023882,0.06164648,1.619128,0.08980637,-0.4263292,1.585017,-0.02811137,-0.2019645,1.622556,0.381115,-0.1957532,1.601197,NA,NA,NotTracked,Unknown,
0.9101563,-0.3515625,0.2290039,0.7749023,0.5263672,0.4941406,-1,-1,-1,-2,0,-1,-2,-2,-57,-8,-8,-6,-4,3,1,-2,-5.375,-5.375,-5.375,-25.5625,-25.5625,-25.5625,3.393566,3.20222,0.1689076,6.293135,3.678583,5.335652,-0.01922442,-0.5033293,1.532115,0.3570623,-0.4174887,1.362296,0.1800673,0.331567,1.62186,0.02345469,-0.5009219,1.514274,0.3085058,-0.4041673,1.356639,0.1734349,-0.1216767,1.628495,0.1657229,-0.4360218,1.615123,0.004918496,0.0615712,1.619038,0.08941472,-0.4262065,1.584874,-0.02824713,-0.201787,1.622491,0.38666,-0.1895164,1.601636,NA,NA,NotTracked,Unknown,
0.9111328,-0.3525391,0.2255859,0.6132813,0.6259766,0.6162109,-1,-1,-2,-2,-1,-1,1,-3,-8,-7,9,14,3,2,1,2,-2.125,-2.125,-2.125,-15.5625,-15.5625,-15.5625,3.390186,3.204516,0.1671195,6.292875,4.024103,5.266757,-0.01992547,-0.503472,1.531937,0.3686651,-0.3481375,1.313537,0.1799229,0.3317808,1.622495,0.02338309,-0.5022151,1.514086,0.3097548,-0.3401845,1.30825,0.1724233,-0.1214216,1.628551,0.1636488,-0.4353512,1.614878,0.004912078,0.06159984,1.618998,0.08721576,-0.4252463,1.584793,-0.02848917,-0.2010051,1.622378,0.394909,-0.1698601,1.604943,NA,NA,NotTracked,Unknown,
0.9047852,-0.3608398,0.2265625,0.4067383,0.6689453,0.6391602,-1,-2,0,-1,0,-1,-1,1,-17,-27,-27,-3,2,-5,-4,-14,0.625,0.625,0.625,-4.625,-4.625,-4.625,3.390293,3.206735,0.165805,6.308886,4.352309,5.200095,-0.01950596,-0.5039959,1.532491,0.3808965,-0.2673728,1.283486,0.1797318,0.3319466,1.623307,0.02316524,-0.50306,1.51399,0.3229594,-0.2706303,1.2781,0.171025,-0.1209547,1.628711,0.1611279,-0.4346437,1.614767,0.004881999,0.06174087,1.618996,0.08467858,-0.4242708,1.584874,-0.02875932,-0.2002343,1.62219,0.3990661,-0.152619,1.607536,NA,NA,NotTracked,Unknown,
0.9091797,-0.355957,0.2363281,0.137207,0.6923828,0.6674805,-2,-2,0,0,0,-2,-3,1,-16,-4,-38,5,6,-2,1,10,3.125,3.125,3.125,17.625,17.625,17.625,3.393178,3.207178,0.1684616,6.33313,4.689032,5.159012,-0.01942611,-0.5032874,1.532104,0.3886369,-0.1895739,1.264497,0.179537,0.3320135,1.623607,0.0232361,-0.5018825,1.514342,0.3309077,-0.1978241,1.250265,0.1700493,-0.1206744,1.628948,0.1597009,-0.4342691,1.61481,0.004853171,0.061708,1.618974,0.08319145,-0.4237731,1.585199,-0.02891836,-0.2000235,1.62216,0.4154919,-0.1658987,1.573799,NA,NA,NotTracked,Unknown,
0.9057617,-0.3642578,0.2392578,-0.02685547,0.7397461,0.6806641,-1,0,-2,-1,-2,-4,-2,0,-88,-12,-1,-6,-2,0,-6,-25,2.125,2.125,2.125,22.875,22.875,22.875,3.396968,3.208402,0.1705844,6.359822,4.854525,5.150959,-0.02042335,-0.4986875,1.534019,0.4104318,-0.115218,1.287182,0.1793482,0.3321528,1.624169,0.02429385,-0.4917367,1.514346,0.3485163,-0.1230001,1.272116,0.1693148,-0.120467,1.629198,0.1586849,-0.4339059,1.614825,0.004805211,0.06175821,1.61903,0.08217789,-0.4233859,1.585344,-0.02917195,-0.1996426,1.622324,0.4125988,-0.1804472,1.563702,NA,NA,NotTracked,Unknown,
0.9042969,-0.3676758,0.2392578,-0.2895508,0.6645508,0.4130859,0,0,-2,-1,-1,-1,1,-2,-8,13,13,6,-4,7,4,-13,1.25,1.25,1.25,20.125,20.125,20.125,3.40157,3.209191,0.1690498,6.398606,5.184001,5.150201,-0.02035796,-0.5006513,1.533562,0.4189823,-0.05134412,1.304903,0.1791445,0.3322603,1.624718,0.02411508,-0.4958933,1.514589,0.3569804,-0.05907169,1.279217,0.1688321,-0.1203433,1.62934,0.1581923,-0.4337035,1.614869,0.004731015,0.06189463,1.619191,0.08169802,-0.423171,1.585501,-0.02947853,-0.1990307,1.622554,0.4201016,-0.1797257,1.561098,NA,NA,NotTracked,Unknown,
0.9003906,-0.3608398,0.237793,-0.1914063,0.6762695,0.6376953,-1,-1,-3,0,-2,-3,1,0,31,28,0,6,8,-28,-8,20,0.5,0.5,0.5,9.0625,9.0625,9.0625,3.401889,3.209531,0.1688788,6.4159,5.463483,5.163805,-0.02039269,-0.5013316,1.534712,0.4218656,0.004432652,1.323702,0.1789586,0.332401,1.625255,0.02356997,-0.5001457,1.514706,0.3558194,-0.005452371,1.292072,0.1684335,-0.1202061,1.629585,0.1576855,-0.4335864,1.614949,0.004650457,0.06196483,1.619368,0.08117318,-0.4230496,1.585723,-0.02964218,-0.1988491,1.622758,0.4226986,-0.1403751,1.577706,NA,NA,NotTracked,Open,
0.8994141,-0.3544922,0.2319336,-0.3369141,0.6274414,0.5708008,-2,-2,-2,-1,-1,1,-2,0,49,59,25,6,-9,17,9,17,0.5,0.5,0.5,4.0625,4.0625,4.0625,3.405358,3.210761,0.1657755,6.417587,5.640771,5.169775,-0.02046754,-0.5010934,1.534099,0.4217933,0.04413477,1.343057,0.1787988,0.3325479,1.625662,0.02392157,-0.4971454,1.515058,0.3581553,0.03468973,1.303244,0.1681939,-0.1201897,1.629724,0.1575005,-0.4336151,1.614909,0.004631979,0.06197617,1.619451,0.08096904,-0.423074,1.58576,-0.02962617,-0.1988429,1.622763,0.4256658,-0.1362914,1.573092,NA,NA,NotTracked,Open,
0.9140625,-0.3642578,0.237793,-0.4023438,0.6552734,0.5302734,0,-1,0,-1,-1,0,-1,-2,39,-91,6,16,2,-9,-19,-17,-0.25,-0.25,-0.25,5.1875,5.1875,5.1875,3.408444,3.214329,0.1616063,6.421582,5.73986,5.163911,-0.01953159,-0.5010128,1.532468,0.4239973,0.0651061,1.353642,0.1785026,0.3325192,1.62628,0.02289125,-0.5021586,1.513177,0.3635859,0.05837971,1.305396,0.168044,-0.1211722,1.629097,0.1573944,-0.433733,1.614824,0.004661449,0.06197938,1.619482,0.08083723,-0.4232343,1.58577,-0.02965635,-0.198833,1.622798,0.4285025,-0.1333469,1.568572,NA,NA,NotTracked,Open,
0.9101563,-0.3598633,0.2363281,-0.4272461,0.6577148,0.5791016,-1,-2,-3,0,1,-2,-2,-1,-63,-98,-56,-5,-9,-12,-11,12,-0.3125,-0.3125,-0.3125,-0.9375,-0.9375,-0.9375,3.408457,3.216575,0.1613248,6.408566,5.769886,5.133582,-0.01874076,-0.5005543,1.531722,0.4256616,0.0692829,1.358429,0.1781304,0.3325467,1.627084,0.02347871,-0.5002387,1.513976,0.3659354,0.06016169,1.305978,0.1679835,-0.121665,1.628761,0.1573358,-0.4337685,1.614717,0.004635451,0.0619603,1.619638,0.08079259,-0.423233,1.585768,-0.02962703,-0.1987644,1.622803,0.4293788,-0.1324434,1.567032,NA,NA,NotTracked,Open,
0.9033203,-0.3623047,0.2280273,-0.5097656,0.703125,0.5712891,-1,-2,-1,0,-2,-1,-1,-2,-30,66,1,-3,-27,-14,-19,-15,-2.5,-2.5,-2.5,-1.8125,-1.8125,-1.8125,3.400274,3.217716,0.1675732,6.399659,5.779333,5.12184,-0.01914458,-0.5009663,1.532049,0.4276685,0.07236411,1.361264,0.1781583,0.3326805,1.627674,0.02349871,-0.4989817,1.514078,0.3675062,0.06106588,1.308223,0.1679814,-0.1219437,1.62862,0.1573215,-0.4337742,1.61471,0.005081654,0.06206251,1.61983,0.08077179,-0.4232157,1.585792,-0.029571,-0.1986878,1.622763,0.4295085,-0.1317119,1.566784,NA,NA,NotTracked,Open,
0.9003906,-0.3637695,0.234375,-0.5136719,0.6914063,0.5483398,0,-1,0,-3,0,-2,-1,-2,10,-7,12,9,49,9,8,15,-2.9375,-2.9375,-2.9375,-2.625,-2.625,-2.625,3.396198,3.216632,0.1683894,6.396087,5.783864,5.11759,-0.01916326,-0.500815,1.531548,0.4279064,0.07542028,1.360383,0.1782826,0.3328018,1.628221,0.02379708,-0.4963014,1.514148,0.3680708,0.06094654,1.307956,0.1679845,-0.1222416,1.62844,0.1572704,-0.4337877,1.614691,0.005488205,0.06212146,1.619994,0.08070941,-0.4231975,1.585778,-0.02952957,-0.1986122,1.622694,0.429749,-0.1319211,1.566664,NA,NA,NotTracked,Open,
0.9018555,-0.3583984,0.2270508,-0.503418,0.6953125,0.5722656,-2,-1,-1,1,-1,-1,1,0,36,64,19,13,0,18,4,16,-0.4375,-0.4375,-0.4375,0.4375,0.4375,0.4375,3.391961,3.215318,0.1688891,6.395284,5.787853,5.108871,-0.01938645,-0.5005719,1.531872,0.4288577,0.07514372,1.360335,0.1784544,0.3327147,1.628492,0.02376492,-0.4963919,1.51438,0.3677753,0.05942301,1.306882,0.1680532,-0.1225322,1.628233,0.1573005,-0.4338169,1.614643,0.006187424,0.0622422,1.620105,0.08071512,-0.4231906,1.58575,-0.0294267,-0.1984629,1.622748,0.4299224,-0.1315634,1.566124,NA,NA,NotTracked,Open,
0.8955078,-0.359375,0.2260742,-0.4985352,0.6870117,0.5825195,1,-1,-1,-1,-2,0,0,-1,-52,-80,-31,-16,-51,-5,-23,-75,0.9375,0.9375,0.9375,0.875,0.875,0.875,3.392321,3.215124,0.1687132,6.395315,5.785516,5.107143,-0.01974486,-0.4978191,1.532427,0.4292495,0.07627359,1.358791,0.1786174,0.3327222,1.628666,0.02344069,-0.4956446,1.51383,0.3668494,0.05867838,1.306502,0.1680673,-0.1227132,1.628131,0.1572545,-0.4338244,1.61463,0.00616999,0.06227508,1.620139,0.08067115,-0.4231779,1.585752,-0.02936389,-0.1982711,1.622759,0.4302831,-0.1315011,1.565863,NA,NA,NotTracked,Open,
0.9101563,-0.359375,0.2333984,-0.4941406,0.6875,0.5952148,-2,1,-2,-2,0,-2,-3,0,20,7,8,6,-14,-18,-6,-19,2.5,2.5,2.5,-0.9375,-0.9375,-0.9375,3.395936,3.214769,0.1705146,6.398115,5.78691,5.113362,-0.01953177,-0.4978996,1.532114,0.4287145,0.07706611,1.35879,0.1788547,0.3327139,1.628777,0.02270074,-0.4995865,1.5122,0.3662029,0.05806518,1.306717,0.1681179,-0.1228691,1.628063,0.1572672,-0.4338416,1.61464,0.006182093,0.06229347,1.620168,0.08067549,-0.4231748,1.585759,-0.02934946,-0.1982112,1.622789,0.4304685,-0.1315653,1.56575,NA,NA,NotTracked,Open,
0.8959961,-0.3613281,0.2392578,-0.5195313,0.6948242,0.5927734,0,-1,0,0,1,1,-1,1,38,18,3,-10,-37,15,20,18,2.875,2.875,2.875,-1.4375,-1.4375,-1.4375,3.399723,3.214584,0.171648,6.401028,5.806061,5.12686,-0.01959512,-0.5001814,1.531854,0.4274638,0.07767276,1.358781,0.179056,0.332745,1.628821,0.02367266,-0.4957707,1.514188,0.3657484,0.05983934,1.30722,0.1681473,-0.1229769,1.627973,0.1572965,-0.433847,1.614603,0.0061896,0.06235273,1.62017,0.08069051,-0.4231686,1.585752,-0.02932299,-0.1981908,1.622825,0.4310004,-0.1309209,1.564827,NA,NA,NotTracked,Open,
0.8945313,-0.3706055,0.2397461,-0.5375977,0.6967773,0.5888672,5,-1,-1,-1,-1,-1,0,-2,13,55,18,1,1,106,6,12,1.4375,1.4375,1.4375,-0.375,-0.375,-0.375,3.402004,3.214953,0.1715493,6.403355,5.822845,5.133991,-0.01930913,-0.5002379,1.534177,0.4259543,0.080433,1.34958,0.1792735,0.3328258,1.629147,0.02352415,-0.4966869,1.514343,0.3623532,0.06008847,1.306433,0.1681517,-0.123078,1.627966,0.157268,-0.4338512,1.614643,0.006533576,0.06256042,1.6203,0.08065081,-0.4231359,1.58583,-0.02926596,-0.1982063,1.623,0.4317566,-0.1305734,1.563864,NA,NA,NotTracked,Open,
0.887207,-0.3632813,0.2387695,-0.5644531,0.6982422,0.5302734,0,-5,-1,-2,-2,-2,-1,-1,-48,-31,-6,-7,-17,-95,28,49,-4.4375,-4.4375,-4.4375,17.9375,17.9375,17.9375,3.40395,3.214928,0.1668855,6.422337,5.843509,5.158381,-0.01911779,-0.5005182,1.533003,0.4178067,0.06805454,1.306799,0.1794404,0.3328718,1.629328,0.02360122,-0.5000645,1.513469,0.3496853,0.02945709,1.294923,0.1680926,-0.1227619,1.628469,0.1572766,-0.4338457,1.614677,0.006580438,0.06258771,1.620367,0.08065379,-0.4231159,1.585862,-0.02927561,-0.1981834,1.623086,0.4439351,-0.1425339,1.527486,NA,NA,NotTracked,Open,
0.9082031,-0.3579102,0.2421875,-0.5019531,0.7475586,0.4980469,-2,0,-1,0,-1,-1,-2,-2,2,8,-1,4,8,48,-55,-46,-7.3125,-7.3125,-7.3125,43.6875,43.6875,43.6875,3.402247,3.216789,0.1531023,6.521666,5.764538,5.148345,-0.01909612,-0.5008873,1.534827,0.4040906,-0.005947449,1.295249,0.1795194,0.3329698,1.629787,0.02374673,-0.4967791,1.514897,0.3570321,-0.03404842,1.286133,0.1678789,-0.1219225,1.62979,0.1571829,-0.433751,1.614793,0.006442056,0.06275707,1.620705,0.08054484,-0.4229728,1.586028,-0.02916398,-0.1980825,1.623392,0.4351435,-0.1278639,1.556981,NA,NA,NotTracked,Unknown,
0.9301758,-0.362793,0.2275391,-0.1772461,0.737793,0.5356445,-1,0,-1,-1,-1,-4,-2,-2,-98,-101,-20,-8,44,-31,-43,-32,3.3125,3.3125,3.3125,48.1875,48.1875,48.1875,3.400985,3.226075,0.1491099,6.585581,5.614514,5.151111,-0.01905625,-0.501203,1.532221,0.4058293,-0.04630918,1.296742,0.1793859,0.3331414,1.630529,0.02408211,-0.4925879,1.514936,0.353901,-0.08934746,1.31512,0.1677191,-0.1211511,1.630981,0.1571096,-0.433577,1.614909,0.006177205,0.06287441,1.621322,0.08046867,-0.4227215,1.586295,-0.02916579,-0.1980754,1.623437,0.4304133,-0.120942,1.561925,NA,NA,NotTracked,Unknown,
0.8964844,-0.3676758,0.2509766,-0.3759766,0.7827148,0.7456055,-3,-2,-2,-2,-1,0,-1,-1,33,-10,1,2,-8,4,17,-18,11.0625,11.0625,11.0625,-16.5,-16.5,-16.5,3.420841,3.237712,0.1568672,6.564282,5.516067,5.147604,-0.01878868,-0.499958,1.528847,0.4059049,-0.06254105,1.299526,0.1791678,0.3332317,1.630781,0.02350059,-0.4956309,1.512833,0.351141,-0.09897192,1.3208,0.1676081,-0.1208711,1.63135,0.1570896,-0.433498,1.614928,0.00599592,0.06280647,1.621583,0.08044623,-0.4226466,1.586354,-0.02914574,-0.1982034,1.623344,0.4250374,-0.1140588,1.565132,NA,NA,NotTracked,Unknown,
0.875,-0.3730469,0.2456055,-0.2900391,0.8779297,0.512207,-1,-2,-1,-1,0,2,-1,0,-58,-20,-3,4,16,1,-2,-10,-3.6875,-3.6875,-3.6875,-7.625,-7.625,-7.625,3.431389,3.236348,0.1487658,6.539646,5.519279,5.110767,-0.01838465,-0.5001867,1.529906,0.4064378,-0.06666896,1.297362,0.1788672,0.3332592,1.631282,0.02366102,-0.4956923,1.512951,0.3504054,-0.09452745,1.320651,0.1674812,-0.1205083,1.631936,0.1570788,-0.4333408,1.615108,0.005902674,0.06282033,1.621842,0.08048082,-0.4225653,1.586573,-0.0290309,-0.1980796,1.623474,0.4228548,-0.1147318,1.565478,NA,NA,NotTracked,Unknown,
0.8930664,-0.3657227,0.2460938,-0.4101563,0.7944336,0.515625,-2,-2,1,0,-1,-1,1,-1,-31,-35,-21,-9,6,-50,-32,-11,-3.3125,-3.3125,-3.3125,-9.5625,-9.5625,-9.5625,3.431093,3.232067,0.1447146,6.507814,5.542352,5.093695,-0.01798534,-0.5001328,1.530783,0.4068806,-0.06692232,1.294002,0.1787747,0.3332717,1.631523,0.02375881,-0.4961788,1.513335,0.3483014,-0.09665637,1.32015,0.1674814,-0.1203685,1.632076,0.1570405,-0.4332516,1.615154,0.00578704,0.06285921,1.622085,0.08043548,-0.4224772,1.586715,-0.02904562,-0.1981546,1.623535,0.4197825,-0.1203892,1.563835,NA,NA,NotTracked,Unknown,
0.8994141,-0.3818359,0.2451172,-0.3110352,0.7832031,0.597168,-1,-1,-2,-2,-2,-1,-2,-1,44,-7,-10,-8,-34,-56,-9,-8,0.0625,0.0625,0.0625,-3,-3,-3,3.414794,3.227515,0.1666613,6.514108,5.535182,5.086718,-0.01949969,-0.5010784,1.533262,0.4075017,-0.06783805,1.294543,0.1788,0.3333218,1.631618,0.02373357,-0.4963651,1.513791,0.3484528,-0.09667416,1.320243,0.1674588,-0.1201833,1.632408,0.1569665,-0.433122,1.615321,0.00567887,0.06289828,1.622467,0.08035217,-0.4223665,1.587031,-0.02903999,-0.1981796,1.623754,0.4189659,-0.1171326,1.565282,NA,NA,NotTracked,Unknown,
0.8994141,-0.3647461,0.2543945,-0.3046875,0.7631836,0.5361328,1,-3,-2,-1,-1,-1,-2,1,-27,-31,-8,-7,-3,-11,-15,-13,-3.625,-3.625,-3.625,2.1875,2.1875,2.1875,3.408931,3.224575,0.1708837,6.515352,5.530343,5.090647,-0.01927603,-0.5005283,1.533148,0.4068941,-0.0692049,1.294229,0.1787913,0.3333293,1.631647,0.02295952,-0.4993693,1.51233,0.3486263,-0.09721661,1.320615,0.1674342,-0.1200871,1.632503,0.1568597,-0.4330375,1.615376,0.005646111,0.0629242,1.622538,0.08026811,-0.422321,1.587132,-0.0290927,-0.1981118,1.623886,0.4183452,-0.1161194,1.566108,NA,NA,NotTracked,Unknown,
0.9042969,-0.3676758,0.2397461,-0.2822266,0.7607422,0.5483398,-2,0,-1,0,-2,-2,-1,-1,11,2,0,-1,-1,-4,-2,2,1.8125,1.8125,1.8125,-4.1875,-4.1875,-4.1875,3.406592,3.222921,0.1729075,6.506994,5.499199,5.077702,-0.02044528,-0.5029859,1.534098,0.4067457,-0.07413019,1.294834,0.1787811,0.3333524,1.631676,0.02370439,-0.4968644,1.514229,0.3491123,-0.104753,1.319957,0.1673441,-0.1199333,1.632661,0.1567026,-0.4328544,1.615548,0.005556017,0.06299489,1.622627,0.08013386,-0.4221549,1.587484,-0.02920578,-0.1981075,1.624006,0.4168336,-0.1171067,1.570714,NA,NA,NotTracked,Unknown,
0.8964844,-0.3520508,0.2480469,-0.1928711,0.7099609,0.5498047,-2,-1,0,-1,0,-1,-1,-2,2,-3,-1,-3,-3,-2,-1,-1,3.5,3.5,3.5,-1.625,-1.625,-1.625,3.412805,3.224001,0.1746219,6.498534,5.439967,5.063794,-0.02031441,-0.5027667,1.531856,0.4026762,-0.08243524,1.290939,0.1787903,0.3333502,1.631645,0.02233963,-0.5031503,1.511956,0.3459257,-0.1119107,1.307969,0.1672081,-0.1198283,1.632731,0.156312,-0.4327009,1.615601,0.005540777,0.06307023,1.622597,0.07980783,-0.422052,1.587605,-0.02931773,-0.1982436,1.624019,0.4204801,-0.1149375,1.571434,NA,NA,NotTracked,Unknown,
0.8959961,-0.3544922,0.2480469,-0.1645508,0.7036133,0.5913086,-1,-2,-2,0,-1,-2,0,-2,-1,2,9,7,2,-1,-3,0,4.5625,4.5625,4.5625,-15.0625,-15.0625,-15.0625,3.415287,3.224846,0.1748614,6.480871,5.369088,5.059818,-0.02058783,-0.5034707,1.532305,0.398541,-0.1095984,1.28323,0.1787721,0.3333376,1.631618,0.02349106,-0.4974504,1.513413,0.3408947,-0.1427349,1.303273,0.1671037,-0.1197919,1.632715,0.1562133,-0.4326549,1.615593,0.005453676,0.0630625,1.622607,0.07972346,-0.4220451,1.587648,-0.02943666,-0.1980147,1.624177,0.4200706,-0.1156049,1.5796,NA,NA,NotTracked,Unknown,
0.9067383,-0.3686523,0.2338867,-0.09765625,0.6679688,0.6411133,-2,-3,-1,-2,-2,-1,0,0,1,8,8,9,3,2,-3,-2,4.125,4.125,4.125,-24.3125,-24.3125,-24.3125,3.427256,3.223044,0.1725558,6.432966,5.219058,5.068389,-0.01967885,-0.4986194,1.532349,0.3903241,-0.1590113,1.282493,0.1785858,0.3332134,1.631358,0.0246307,-0.4899255,1.513578,0.3332012,-0.1798514,1.301962,0.1669988,-0.1196886,1.63259,0.1561367,-0.4325373,1.615425,0.005376065,0.06299931,1.622641,0.0796712,-0.4219937,1.58755,-0.02940171,-0.1980479,1.624208,0.4165111,-0.130836,1.591908,NA,NA,NotTracked,Unknown,
0.9023438,-0.3657227,0.2387695,0.02587891,0.6923828,0.6235352,-1,-2,-1,0,0,-2,-2,-1,-13,-7,0,-1,0,-1,0,-3,3.375,3.375,3.375,-26.4375,-26.4375,-26.4375,3.429255,3.221703,0.1779571,6.362133,4.858751,5.098865,-0.01909381,-0.4980659,1.532932,0.3812239,-0.22486,1.299631,0.1782821,0.3330448,1.630916,0.02371053,-0.4961314,1.513439,0.3238561,-0.2368279,1.320133,0.1669876,-0.1196265,1.632536,0.156172,-0.4324535,1.615299,0.00514295,0.06292233,1.622712,0.07970232,-0.4219776,1.587491,-0.0293427,-0.198091,1.624287,0.4230849,-0.1344388,1.587097,NA,NA,NotTracked,Unknown,
0.9082031,-0.3676758,0.2509766,0.2114258,0.7099609,0.6650391,1,1,-1,-3,-2,0,-1,-2,-2,-2,0,0,0,-1,0,-4,-2.4375,-2.4375,-2.4375,-9.75,-9.75,-9.75,3.427645,3.220784,0.1797881,6.311966,4.478239,5.149012,-0.01912965,-0.500785,1.532609,0.3705421,-0.2992707,1.332186,0.1778455,0.3326498,1.630294,0.02279888,-0.500403,1.511748,0.3365248,-0.3219238,1.378684,0.1670037,-0.119648,1.632296,0.1562366,-0.4324517,1.615028,0.004930951,0.0627609,1.622711,0.07976457,-0.4220262,1.587095,-0.02919876,-0.1982457,1.624334,0.4282412,-0.1464841,1.587787,NA,NA,NotTracked,Unknown,
0.9067383,-0.3618164,0.2319336,0.4423828,0.7177734,0.6459961,-1,0,0,-1,-1,0,-2,1,-2,2,-2,-3,-1,0,-2,0,-7.625,-7.625,-7.625,0.8125,0.8125,0.8125,3.4186,3.220101,0.179686,6.287757,4.18757,5.196677,-0.01965602,-0.5006508,1.531249,0.3622811,-0.3830303,1.369494,0.1775802,0.332399,1.629654,0.02338161,-0.4999456,1.511153,0.4022373,-0.4303102,1.371,0.167083,-0.1197941,1.631882,0.1565088,-0.4326432,1.614742,0.004704955,0.0623862,1.622545,0.08013283,-0.4223055,1.586616,-0.02906999,-0.1983747,1.624144,0.4088475,-0.157864,1.60205,NA,NA,NotTracked,Lasso,
0.8945313,-0.3647461,0.2338867,0.480957,0.6928711,0.6513672,1,-1,-1,-2,-1,-1,-1,-2,-1,10,-3,-1,0,0,0,0,-12.3125,-12.3125,-12.3125,-3.0625,-3.0625,-3.0625,3.406346,3.216943,0.1728482,6.277216,3.918226,5.227031,-0.01879449,-0.5014244,1.530787,0.3589215,-0.4425688,1.414613,0.1774607,0.3321029,1.628867,0.02419118,-0.4871659,1.512212,0.3950059,-0.4477351,1.391,0.1676836,-0.1201098,1.631213,0.1578016,-0.4333877,1.613968,0.004587498,0.06189817,1.622002,0.0816588,-0.4231279,1.585453,-0.02912414,-0.2006578,1.622813,0.3994106,-0.1747109,1.602146,NA,NA,NotTracked,Unknown,
0.9223633,-0.3603516,0.2280273,0.8603516,0.4057617,0.5517578,-1,-2,1,0,-3,-2,-1,1,1,0,-3,-3,-2,-1,2,16,-9.5,-9.5,-9.5,24.9375,24.9375,24.9375,3.388248,3.212356,0.1657739,6.328957,3.542533,5.176517,-0.01892688,-0.5016816,1.530826,0.3639314,-0.4838027,1.461175,0.1774662,0.3319355,1.628194,0.023228,-0.4969096,1.511975,0.3998061,-0.4805811,1.445083,0.1686121,-0.1205557,1.630657,0.1599276,-0.4341365,1.613376,0.00457898,0.0615395,1.621512,0.08398862,-0.4239291,1.584462,-0.02897202,-0.2032982,1.621333,0.3900545,-0.190122,1.597452,NA,NA,NotTracked,Unknown,
0.9291992,-0.3579102,0.2075195,1.25,0.4086914,-0.0625,-2,-1,1,0,1,1,-1,-1,-14,-10,4,-1,-3,-2,0,-14,0.125,0.125,0.125,50.4375,50.4375,50.4375,3.373035,3.216881,0.1750745,6.478598,3.294467,5.103299,-0.01900417,-0.5004229,1.528533,0.3729449,-0.4962286,1.50583,0.1776032,0.3318263,1.627419,0.02357317,-0.4945492,1.5117,0.4187877,-0.4545762,1.474444,0.1696355,-0.120906,1.630083,0.1622127,-0.4346643,1.612923,0.004728135,0.06148279,1.620965,0.08632424,-0.4245213,1.583817,-0.02876942,-0.2029763,1.620909,0.3820493,-0.1972462,1.591869,NA,NA,NotTracked,Unknown,
0.8886719,-0.3442383,0.1938477,1.067871,0.3066406,0.06640625,-1,1,-4,-1,-1,1,-1,-1,3,-12,-2,-1,0,1,1,19,7.4375,7.4375,7.4375,-59.25,-59.25,-59.25,3.364345,3.223572,0.1967913,6.541281,3.217034,5.036126,-0.01946073,-0.499644,1.527434,0.3720344,-0.4907672,1.527196,0.1778772,0.3317625,1.626685,0.02276119,-0.4956717,1.509333,0.4108224,-0.5030091,1.519316,0.1706157,-0.1210717,1.629758,0.1633288,-0.4349749,1.612993,0.004756799,0.06146733,1.620844,0.08740152,-0.4248118,1.583797,-0.02875356,-0.202831,1.620772,0.3799621,-0.1987464,1.592391,NA,NA,NotTracked,NotTracked,
0.8950195,-0.3833008,0.2436523,0.796875,0.4458008,0.3022461,-2,-1,-1,-1,-2,-3,-2,0,13,3,-7,-1,2,-2,0,-28,-7.375,-7.375,-7.375,55.6875,55.6875,55.6875,3.367905,3.213491,0.1874784,6.484221,3.199886,5.150914,-0.01933889,-0.5002017,1.528788,0.3696625,-0.4950784,1.530562,0.1783401,0.3318051,1.625151,0.02326104,-0.4889269,1.510505,0.4153602,-0.4572591,1.515833,0.1713174,-0.1210723,1.629195,0.1639609,-0.4350474,1.612938,0.004771359,0.06143778,1.620545,0.08803244,-0.4250031,1.583701,-0.0286484,-0.2024112,1.620665,0.3797087,-0.2000751,1.597039,NA,NA,NotTracked,NotTracked,
0.8989258,-0.3891602,0.2294922,0.8286133,0.3710938,0.4047852,0,-1,-1,-2,-1,0,0,-1,-24,0,1,-1,-2,-1,2,1,3.875,3.875,3.875,11.75,11.75,11.75,3.360151,3.20487,0.1934883,6.47777,3.214236,5.209545,-0.01974523,-0.5004741,1.532293,0.3666286,-0.4975549,1.522,0.1788819,0.3318061,1.623742,0.02381308,-0.4906247,1.512355,0.4069908,-0.4858058,1.516869,0.1719919,-0.1211099,1.628661,0.1642485,-0.435112,1.612952,0.004848849,0.06143691,1.620115,0.08826911,-0.4250644,1.583655,-0.0286771,-0.202309,1.620619,0.3810452,-0.2008994,1.601687,NA,NA,NotTracked,NotTracked,
0.9072266,-0.371582,0.2202148,0.8310547,0.3720703,0.4150391,0,-2,-1,0,0,-2,1,0,-40,-1,-1,0,-2,-3,0,-17,8.75,8.75,8.75,7.625,7.625,7.625,3.360247,3.203855,0.1986141,6.464833,3.223203,5.226837,-0.02043078,-0.500386,1.534297,0.3650233,-0.497459,1.515273,0.179593,0.3318005,1.622523,0.02381193,-0.496266,1.513388,0.415965,-0.4628442,1.500857,0.1722361,-0.1212049,1.628431,0.1644758,-0.4352262,1.613036,0.004941879,0.06153089,1.619549,0.08843927,-0.425126,1.583644,-0.02883157,-0.2021669,1.620687,0.3817347,-0.2015038,1.604543,NA,NA,NotTracked,NotTracked,
0.90625,-0.3574219,0.2421875,0.8764648,0.3051758,0.2836914,-2,0,-1,-1,0,1,-2,2,4,-3,-2,-1,0,-1,1,4,-7.0625,-7.0625,-7.0625,-5.1875,-5.1875,-5.1875,3.379111,3.197239,0.1778092,6.388878,3.278583,5.271107,-0.02089143,-0.5025612,1.53408,0.3625343,-0.4964935,1.509856,0.1801862,0.3319713,1.621703,0.02382319,-0.4974731,1.514505,0.4042307,-0.4890556,1.498081,0.1724526,-0.1212078,1.628293,0.1647714,-0.4353543,1.613199,0.005131478,0.06183042,1.619035,0.08867607,-0.4251753,1.583655,-0.02899858,-0.2021715,1.620659,0.3814693,-0.2014769,1.605255,NA,NA,NotTracked,NotTracked,
0.9091797,-0.3564453,0.2050781,0.8847656,0.3276367,0.2905273,0,-1,1,-1,-2,-1,-1,-3,2,2,0,1,3,0,1,-3,-6.125,-6.125,-6.125,8.0625,8.0625,8.0625,3.375103,3.197511,0.1692434,6.371649,3.284225,5.29979,-0.02013913,-0.5025873,1.531343,0.3569391,-0.4960482,1.504507,0.1806688,0.3320353,1.620744,0.0233992,-0.4984291,1.512097,0.3907497,-0.5008101,1.4868,0.17271,-0.1212341,1.627876,0.1649975,-0.4353989,1.613104,0.005161008,0.06195868,1.618357,0.0888823,-0.4252354,1.583469,-0.02921913,-0.2018669,1.620583,0.3811638,-0.20141,1.605252,NA,NA,NotTracked,NotTracked,
0.9155273,-0.3569336,0.2192383,0.8608398,0.34375,0.3076172,0,-1,-2,-1,0,-2,-1,0,23,0,-1,1,-2,-1,0,-5,6.25,6.25,6.25,10.875,10.875,10.875,3.371404,3.200189,0.1773545,6.348657,3.286436,5.345019,-0.01978998,-0.5024797,1.532759,0.3540504,-0.4934577,1.5072,0.1810995,0.3320325,1.62006,0.02289297,-0.5032778,1.512524,0.3957382,-0.4754696,1.504815,0.1728567,-0.1213106,1.627711,0.1651677,-0.4355657,1.613157,0.005223868,0.06201822,1.618085,0.08905207,-0.4254749,1.583414,-0.02927789,-0.2018234,1.620678,0.380866,-0.20117,1.605407,NA,NA,NotTracked,NotTracked,
0.9125977,-0.3515625,0.2265625,0.8710938,0.3491211,0.3125,-2,0,-1,0,-1,-1,-4,-2,-13,-3,-2,1,-1,-1,1,-7,4.75,4.75,4.75,11.8125,11.8125,11.8125,3.376981,3.198554,0.1830371,6.327986,3.28433,5.399935,-0.02017132,-0.5029565,1.532546,0.3520386,-0.4922538,1.507158,0.1814336,0.3319783,1.619729,0.02370312,-0.4979419,1.512756,0.399963,-0.4552845,1.517083,0.1730167,-0.1213555,1.627539,0.16531,-0.4355982,1.613156,0.005332832,0.06203505,1.617857,0.08918843,-0.4255066,1.583367,-0.029346,-0.2016152,1.620653,0.3805696,-0.2010496,1.6054,NA,NA,NotTracked,NotTracked,
0.9038086,-0.3632813,0.2250977,0.8740234,0.3476563,0.3120117,-1,-1,-2,-2,-2,-1,-3,-2,-5,2,0,0,0,0,1,-3,2.8125,2.8125,2.8125,4.75,4.75,4.75,3.378837,3.196908,0.1845916,6.324219,3.283537,5.412957,-0.02006819,-0.5022765,1.532482,0.3515751,-0.489394,1.507017,0.18181,0.3319429,1.6192,0.02383235,-0.5001286,1.512532,0.3991885,-0.4600605,1.514221,0.1731694,-0.1213238,1.627272,0.1653282,-0.4355639,1.613146,0.005438366,0.06220546,1.617637,0.08920988,-0.4254626,1.583372,-0.02934012,-0.2014825,1.620548,0.3802454,-0.2008891,1.605216,NA,NA,NotTracked,NotTracked,
