ALX,ALY,ALZ,ARX,ARY,ARZ,EMG0L,EMG1L,EMG2L,EMG3L,EMG4L,EMG5L,EMG6L,EMG7L,EMG0R,EMG1R,EMG2R,EMG3R,EMG4R,EMG5R,EMG6R,EMG7R,GLX,GLY,GLZ,GRX,GRY,GRZ,ORL,OPL,OYL,ORR,OPR,OYR,LHNX,LHNY,LHNZ,RHNX,RHNY,RHNZ,HX,HY,HZ,LTX,LTY,LTZ,RTX,RTY,RTZ,SpineMidX,SpineMidY,SpineMidZ,SpineBaseX,SpineBaseY,SpineBaseZ,ShoulderLeftX,ShoulderLeftY,ShoulderLeftZ,ShoulderRightX,ShoulderRightY,ShoulderRightZ,ElbowLeftX,ElbowLeftY,ElbowLeftZ,ElbowRightX,ElbowRightY,ElbowRightZ,Myo_Pose_left,Myo_Pose_Right,Kinect_pose_left,Kinect_pose_right
0.9091797,-0.3647461,0.2216797,0.8608398,0.3603516,0.3256836,-3,0,0,0,0,0,-1,-1,-1,-1,-1,-1,-2,0,-1,-1,-0.1875,-0.1875,-0.1875,-1.0625,-1.0625,-1.0625,3.351341,3.191343,7.458255,6.318539,3.325542,9.902871,0.06110287,-0.5072966,1.589076,0.4218419,-0.4962745,1.545844,0.268517,0.3302963,1.681659,0.09723005,-0.4938726,1.569965,0.4599653,-0.4957532,1.543757,0.2567697,-0.116999,1.689066,0.2469873,-0.4254393,1.672893,0.09252723,0.06249953,1.680898,0.1683855,-0.4155678,1.645348,0.05613875,-0.2004495,1.682027,0.4602012,-0.1964601,1.65284,NA,NA,NotTracked,NotTracked,
0.9111328,-0.3588867,0.2172852,0.8579102,0.355957,0.3183594,-1,-2,-2,-3,-1,-2,-1,0,0,-1,0,0,-1,0,-2,0,0.0625,0.0625,0.0625,-1,-1,-1,3.352066,3.191234,7.457674,6.316993,3.325393,9.902275,0.06107584,-0.5071629,1.589593,0.4214792,-0.4953909,1.545061,0.2686124,0.3302389,1.681392,0.09668616,-0.497153,1.568783,0.4617722,-0.4954113,1.545403,0.2567792,-0.1169914,1.688765,0.2470355,-0.4254673,1.6726,0.09259354,0.06257927,1.680533,0.1684066,-0.4155939,1.645047,0.05613717,-0.200391,1.681811,0.4602085,-0.196305,1.652625,NA,NA,NotTracked,NotTracked,
0.9042969,-0.3637695,0.2177734,0.862793,0.3564453,0.3261719,0,-1,-1,-1,0,-1,-1,-2,-1,-1,0,0,0,0,0,-2,-0.375,-0.375,-0.375,-1.6875,-1.6875,-1.6875,3.352066,3.191234,7.457674,6.316461,3.32592,9.900811,0.0607381,-0.5012096,1.590258,0.4218621,-0.4963112,1.545264,0.2687013,0.330192,1.681242,0.09802978,-0.4936183,1.569315,0.4601165,-0.4965701,1.542966,0.2568375,-0.1170519,1.688422,0.2470376,-0.425552,1.672296,0.0927294,0.06251428,1.680098,0.1684258,-0.4156661,1.644776,0.05625017,-0.2004621,1.681538,0.4603136,-0.1962897,1.652371,NA,NA,NotTracked,NotTracked,
0.9057617,-0.355957,0.2270508,0.8808594,0.3706055,0.2851563,-1,0,-1,0,-1,0,-1,-2,1,8,7,3,2,0,-2,-1,0.875,0.875,0.875,-4.375,-4.375,-4.375,3.355376,3.191874,7.454828,6.317677,3.327712,9.895864,0.06148196,-0.5006733,1.589358,0.4215403,-0.4960231,1.54448,0.2687607,0.3301343,1.680971,0.09875411,-0.4990857,1.567749,0.4604242,-0.4965963,1.543753,0.2568681,-0.117008,1.688181,0.247152,-0.425502,1.67175,0.0927834,0.06255326,1.679893,0.1685302,-0.4156412,1.64417,0.05639919,-0.2003207,1.681342,0.460428,-0.1962722,1.652226,NA,NA,NotTracked,NotTracked,
0.9052734,-0.3564453,0.2236328,0.8876953,0.3793945,0.2856445,0,-1,-3,-1,-2,0,0,-2,24,23,-2,5,2,0,-7,1,1.125,1.125,1.125,-18.1875,-18.1875,-18.1875,3.361818,3.193109,7.450048,6.315838,3.337972,9.875416,0.06164559,-0.5007981,1.589509,0.4212438,-0.4947962,1.542633,0.268813,0.330273,1.680838,0.09843758,-0.4983389,1.567148,0.4594409,-0.492186,1.538117,0.2569044,-0.1169693,1.688006,0.2472376,-0.4254762,1.671544,0.09276209,0.06259056,1.679791,0.1686303,-0.4156155,1.643918,0.05649557,-0.2001907,1.681039,0.4606237,-0.1961413,1.652112,NA,NA,NotTracked,NotTracked,
0.9067383,-0.3613281,0.2128906,0.9580078,0.3891602,0.2050781,0,-3,-1,0,-2,0,0,-1,-13,-38,-28,4,-4,1,17,-4,2.8125,2.8125,2.8125,-25.25,-25.25,-25.25,3.367105,3.196078,7.449015,6.319263,3.374593,9.826966,0.06193645,-0.5038419,1.587121,0.4199073,-0.4867092,1.532164,0.2688404,0.3302543,1.680783,0.09803207,-0.4975311,1.566598,0.4205976,-0.4785302,1.494477,0.2570566,-0.1170347,1.687459,0.2473266,-0.425559,1.670779,0.09285577,0.06249496,1.679288,0.1687148,-0.4156578,1.643184,0.05656979,-0.2000355,1.680792,0.4614507,-0.1958076,1.652435,NA,NA,NotTracked,NotTracked,
0.9101563,-0.3637695,0.2207031,1.024414,0.5712891,0.3828125,-2,0,-2,-2,-2,0,-2,0,7,7,12,30,18,32,4,-2,0.4375,0.4375,0.4375,-52.625,-52.625,-52.625,3.367344,3.199535,7.451458,6.320865,3.520689,9.732783,0.0631225,-0.5075959,1.587162,0.4151793,-0.4606034,1.505024,0.2688465,0.3303,1.680836,0.09928587,-0.4980362,1.568703,0.4431004,-0.4762535,1.479533,0.2566468,-0.1176263,1.68715,0.2470471,-0.4255431,1.67037,0.0929383,0.06247401,1.679099,0.1684264,-0.4155531,1.642787,0.0566007,-0.1999214,1.680599,0.4667077,-0.1939479,1.657117,NA,NA,NotTracked,Unknown,
0.9038086,-0.3657227,0.2255859,0.8676758,0.7539063,0.6430664,-3,-1,-2,-1,-1,-1,-1,0,2,18,27,-4,-27,8,1,4,-7.25,-7.25,-7.25,-47.9375,-47.9375,-47.9375,3.35929,3.199563,7.452395,6.300485,3.758211,9.670091,0.06277023,-0.5058916,1.583883,0.4105567,-0.3922003,1.471848,0.2688069,0.3303538,1.680849,0.0985366,-0.4967422,1.564702,0.4207024,-0.3810257,1.415417,0.2554985,-0.1180654,1.686664,0.2453023,-0.4255077,1.669698,0.09290326,0.06250659,1.678702,0.1666207,-0.4152438,1.641961,0.05678298,-0.1997368,1.680016,0.480509,-0.1733035,1.668616,NA,NA,NotTracked,Unknown,
0.9067383,-0.362793,0.2270508,0.5400391,0.6967773,0.8051758,0,-1,-1,0,-1,0,-1,-1,-13,-5,-4,-20,-33,3,-4,-7,-8.9375,-8.9375,-8.9375,-35,-35,-35,3.345515,3.200357,7.446304,6.262002,4.11064,9.619044,0.06165364,-0.5033911,1.585561,0.4335285,-0.2728482,1.421103,0.2686689,0.3306173,1.681346,0.0992934,-0.4970433,1.56736,0.4378294,-0.2625018,1.388738,0.2546459,-0.1175346,1.686261,0.2422938,-0.424997,1.669134,0.09293745,0.06264053,1.678312,0.1637738,-0.4144213,1.641575,0.05693354,-0.1994209,1.67937,0.4930853,-0.1501766,1.677384,NA,NA,NotTracked,Unknown,
0.90625,-0.3657227,0.2250977,0.128418,0.7338867,0.8657227,-1,-1,-2,-2,-2,0,-1,0,4,-1,-11,-3,-16,6,5,7,-11.75,-11.75,-11.75,-9.125,-9.125,-9.125,3.337853,3.203653,7.434692,6.24761,4.576473,9.57911,0.06172714,-0.502644,1.583247,0.4249638,-0.1500001,1.394566,0.2685588,0.3308125,1.68152,0.09626777,-0.4972998,1.558136,0.4164242,-0.1802311,1.332333,0.2542468,-0.1171139,1.68605,0.2412979,-0.4246713,1.668802,0.09223069,0.06303684,1.672379,0.1628076,-0.4140137,1.641227,0.05689967,-0.1990013,1.678058,0.5164881,-0.1184658,1.673413,NA,NA,NotTracked,Unknown,
0.90625,-0.355957,0.2158203,-0.2885742,0.7426758,0.7827148,-1,2,1,-1,0,-1,-2,0,3,34,37,18,45,12,0,0,-13.375,-13.375,-13.375,70.3125,70.3125,70.3125,3.332977,3.206342,7.417123,6.34589,5.325179,9.590486,0.0625649,-0.5028207,1.580739,0.4443985,-0.01915541,1.415214,0.2684669,0.3310738,1.682095,0.0995041,-0.4941041,1.563439,0.3840743,-0.007047391,1.433769,0.2540362,-0.1169352,1.685859,0.2406722,-0.4245333,1.668128,0.09240982,0.06299525,1.672416,0.1621562,-0.4139288,1.640914,0.0566935,-0.1986515,1.676817,0.5146057,-0.1158735,1.599666,NA,NA,NotTracked,Unknown,
0.9082031,-0.359375,0.2241211,-0.5776367,0.565918,0.6044922,1,0,-1,1,-1,0,-1,1,8,8,0,7,-6,11,5,-10,-7.125,-7.125,-7.125,75.625,75.625,75.625,3.331697,3.212919,7.394977,6.584438,6.04844,9.751213,0.06251206,-0.5013673,1.57759,0.4374212,0.0961316,1.445923,0.2681617,0.3315364,1.683398,0.1013219,-0.4877108,1.561837,0.3637495,0.1348691,1.366667,0.2537416,-0.1167635,1.6858,0.2404045,-0.4244768,1.667742,0.09259801,0.06303703,1.672569,0.1617979,-0.4138194,1.640446,0.05656337,-0.1975156,1.675497,0.5424888,-0.08370487,1.568913,NA,NA,NotTracked,Unknown,
0.9047852,-0.3549805,0.2177734,-0.5771484,0.4780273,0.4882813,-1,-1,-1,-1,-2,-2,-2,-2,-3,-19,-6,-9,-2,4,3,-2,-2.9375,-2.9375,-2.9375,49.3125,49.3125,49.3125,3.335474,3.217186,7.384219,6.764477,6.346653,9.92567,0.06320922,-0.5011886,1.575134,0.4424028,0.1495883,1.480534,0.2680661,0.331753,1.685257,0.09709111,-0.4908338,1.552088,0.3889688,0.1425979,1.507167,0.2538324,-0.1159515,1.685633,0.2405622,-0.4226347,1.666306,0.0936261,0.06314217,1.672529,0.1615556,-0.4118003,1.638973,0.0568549,-0.1931939,1.674128,0.5507286,-0.06595878,1.554216,NA,NA,NotTracked,Lasso,
0.9013672,-0.371582,0.2211914,-0.6557617,0.3447266,0.1904297,-1,-2,-1,-1,-1,0,1,-1,29,18,3,1,5,4,-3,2,0.125,0.125,0.125,-1.8125,-1.8125,-1.8125,3.342704,3.221984,7.374634,7.28146,6.702216,0.5048418,0.06377337,-0.5013597,1.574134,0.4092277,0.1940917,1.517001,0.2681748,0.3316381,1.686923,0.09627855,-0.4923512,1.548377,0.3756517,0.1694557,1.559134,0.2535561,-0.1159189,1.685505,0.240393,-0.4201302,1.664864,0.09653291,0.06407863,1.672642,0.1610022,-0.4091763,1.637673,0.05736846,-0.1873401,1.673283,0.5539487,-0.05452134,1.537747,NA,NA,NotTracked,Lasso,
0.9008789,-0.3818359,0.2148438,-0.6865234,0.3881836,0.078125,-1,-1,-1,-1,-2,-1,0,0,-21,-3,-1,-5,-19,-18,-4,13,13.5625,13.5625,13.5625,-20.5625,-20.5625,-20.5625,3.360132,3.227677,7.375014,7.569894,6.759808,0.8574735,0.064961,-0.4972493,1.573846,0.408361,0.1983351,1.519185,0.2686112,0.3310212,1.688238,0.1005796,-0.485618,1.555069,0.3694114,0.1763285,1.560199,0.2535058,-0.115856,1.685402,0.2404844,-0.4185928,1.663785,0.09751801,0.06419402,1.669895,0.1608371,-0.4077211,1.63668,0.05784651,-0.1838541,1.673533,0.5520298,-0.04451347,1.522516,NA,NA,NotTracked,Unknown,
0.8984375,-0.3730469,0.2294922,-0.7412109,0.4672852,0.01074219,-1,3,-1,0,0,-3,-1,-2,-8,-15,2,-5,-3,2,-2,-9,18.375,18.375,18.375,-25.25,-25.25,-25.25,3.375168,3.232381,7.391155,7.63073,6.741156,0.9918267,0.06604281,-0.4975989,1.575391,0.427784,0.1887547,1.503464,0.26914,0.330254,1.689551,0.1002881,-0.4891194,1.554572,0.3854816,0.1786672,1.545889,0.2534288,-0.1158034,1.685388,0.2404193,-0.4177937,1.663548,0.09979515,0.06435512,1.671992,0.1607031,-0.4070466,1.636566,0.05812909,-0.1816824,1.674637,0.5484939,-0.0398204,1.513504,NA,NA,NotTracked,Unknown,
0.894043,-0.3789063,0.25,-0.8491211,0.5063477,-0.03515625,-1,-1,-1,-2,-1,-3,-2,-1,-35,5,6,0,6,5,4,4,11.75,11.75,11.75,-17.3125,-17.3125,-17.3125,3.38531,3.234656,7.407321,7.599788,6.739708,0.9970998,0.06547624,-0.498093,1.57847,0.426671,0.1878338,1.500724,0.2691585,0.3300965,1.690489,0.1008397,-0.4842746,1.560676,0.3800446,0.1774933,1.549592,0.253383,-0.1157741,1.685387,0.2403257,-0.4170976,1.663399,0.1017112,0.06445954,1.673228,0.1605144,-0.4063045,1.636485,0.05869971,-0.1796492,1.676508,0.5439594,-0.03855763,1.507537,NA,NA,NotTracked,Unknown,
0.8891602,-0.3847656,0.2421875,-0.8378906,0.5341797,-0.03027344,-1,0,0,-2,-1,1,0,-3,-8,-10,-3,-1,-3,0,1,-4,8.5625,8.5625,8.5625,-5.0625,-5.0625,-5.0625,3.389559,3.234257,7.424909,7.551033,6.733017,0.9575561,0.06509352,-0.4984737,1.580126,0.4248278,0.1884618,1.497439,0.2691275,0.3299653,1.691058,0.1037958,-0.4821451,1.565923,0.3797443,0.1781249,1.533188,0.2532151,-0.115742,1.685425,0.2398058,-0.4166727,1.663443,0.101223,0.06443055,1.671526,0.159818,-0.4058302,1.63667,0.05914126,-0.178268,1.67771,0.5408789,-0.03798562,1.503958,NA,NA,NotTracked,Unknown,
0.8930664,-0.3896484,0.2485352,-0.8989258,0.5214844,0.008300781,-2,-2,-2,0,-1,-2,-2,-1,5,10,3,-7,-11,-5,-1,-1,6.5,6.5,6.5,29.6875,29.6875,29.6875,3.39008,3.237365,7.43815,7.416183,6.726415,0.761725,0.06557616,-0.4983301,1.581032,0.3915753,0.215462,1.50944,0.2687718,0.3301445,1.691669,0.1013494,-0.4866838,1.561504,0.3539928,0.1944267,1.545909,0.2530516,-0.1157747,1.68553,0.2395631,-0.4165692,1.663627,0.100145,0.06426994,1.669256,0.1595561,-0.4056899,1.636919,0.05938616,-0.1781842,1.678533,0.5398917,-0.03802319,1.502361,NA,NA,NotTracked,Unknown,
0.8881836,-0.3901367,0.2548828,-0.9682617,0.4609375,0.05859375,-1,-1,-1,-2,-1,-2,-2,-1,-10,-19,-11,1,3,1,-3,30,0.25,0.25,0.25,57.8125,57.8125,57.8125,3.38548,3.240767,7.448253,7.308108,6.753876,0.5456541,0.06525436,-0.4986354,1.582284,0.398633,0.2302779,1.492763,0.2679674,0.3309473,1.692972,0.1007331,-0.4873543,1.560712,0.3835686,0.2334636,1.449192,0.2525978,-0.1161856,1.685718,0.2393907,-0.4170234,1.663787,0.09950174,0.06393479,1.668175,0.1594407,-0.4061523,1.637098,0.05938427,-0.1808776,1.679783,0.5402138,-0.0364744,1.502223,NA,NA,NotTracked,Closed,
0.8930664,-0.3876953,0.246582,-1.018555,0.4003906,0.05957031,-2,0,-4,-1,0,1,-1,0,-8,4,2,-6,-22,-2,19,79,-5.1875,-5.1875,-5.1875,46.5625,46.5625,46.5625,3.376374,3.242812,7.449874,7.242073,6.764945,0.4101754,0.06426097,-0.4989425,1.582095,0.4296929,0.2319239,1.46322,0.2675622,0.3312671,1.694089,0.101139,-0.4882041,1.563628,0.4191448,0.2396056,1.413185,0.2527647,-0.1160273,1.686033,0.239186,-0.4182042,1.663847,0.09872922,0.06378207,1.66778,0.1593298,-0.4074872,1.637276,0.05936107,-0.1844075,1.680607,0.540851,-0.03798915,1.503022,NA,NA,NotTracked,Closed,
0.9003906,-0.3828125,0.2436523,-0.8583984,0.5668945,0.09960938,1,1,0,0,-2,-1,-1,-1,1,-2,1,18,22,-37,-5,7,-7.4375,-7.4375,-7.4375,34.125,34.125,34.125,3.373312,3.244015,7.441757,6.994317,6.671648,9.996169,0.06430569,-0.4987679,1.582619,0.4565097,0.2363837,1.434337,0.267445,0.3313067,1.695527,0.1008285,-0.4893477,1.560817,0.4089995,0.2576491,1.37668,0.2526785,-0.1159033,1.686623,0.2387963,-0.4193934,1.664202,0.09827808,0.06299423,1.676951,0.1590253,-0.4089522,1.63835,0.05971532,-0.1885246,1.68135,0.5431659,-0.03979465,1.506482,NA,NA,NotTracked,Closed,
0.8999023,-0.3803711,0.2431641,-0.9272461,0.53125,0.1552734,-1,-1,1,-1,-3,-2,-3,1,-51,-3,4,-3,-11,6,1,15,-9.875,-9.875,-9.875,-14.25,-14.25,-14.25,3.371536,3.245025,7.428144,6.690755,6.634541,9.655986,0.0648694,-0.4988426,1.582318,0.472992,0.2400212,1.417603,0.2672231,0.3315819,1.69714,0.1002598,-0.4884777,1.560016,0.4205345,0.2423711,1.384862,0.2524823,-0.11576,1.687393,0.2384045,-0.4203925,1.664789,0.09762752,0.06293367,1.679958,0.1587287,-0.4102495,1.639609,0.05993163,-0.1904696,1.681574,0.5488025,-0.0301142,1.504619,NA,NA,NotTracked,Unknown,
0.8847656,-0.3823242,0.2348633,-0.6220703,0.2358398,0.6054688,-2,-1,-1,0,-1,-2,-1,-1,13,-9,-2,4,-4,22,2,27,-8,-8,-8,73.4375,73.4375,73.4375,3.361867,3.246507,7.417511,6.603642,6.608668,9.498864,0.06486539,-0.4979812,1.580185,0.4927536,0.2346491,1.410285,0.2672362,0.3318962,1.698088,0.1020341,-0.4886093,1.56246,0.4889465,0.2439339,1.348412,0.2524865,-0.1156643,1.687851,0.2385137,-0.4207627,1.664902,0.09706246,0.06289708,1.68142,0.1589523,-0.4106821,1.639954,0.05987559,-0.1916388,1.681395,0.5502886,-0.03104601,1.507151,NA,NA,NotTracked,Closed,
0.9135742,-0.3701172,0.234375,-0.4433594,0.8623047,0.2529297,-2,-2,-2,0,1,-1,1,0,1,18,9,6,28,11,-3,-30,1.4375,1.4375,1.4375,60.125,60.125,60.125,3.362292,3.245941,7.412664,6.832653,6.500091,9.674067,0.06467236,-0.4984569,1.580569,0.4915454,0.2342496,1.404346,0.2672857,0.3323002,1.699519,0.1006414,-0.4880101,1.560353,0.4992532,0.2230691,1.332857,0.2524317,-0.1155398,1.688789,0.2384811,-0.4212824,1.665442,0.09681975,0.06274859,1.682453,0.1590323,-0.411216,1.640567,0.05988675,-0.1922396,1.681295,0.5585433,-0.04108541,1.501926,NA,NA,NotTracked,Closed,
0.9023438,-0.4130859,0.2294922,-1.069824,0.02685547,0.2768555,-2,-2,0,-1,0,-2,-2,0,-96,-50,-46,-31,-22,-27,-38,-64,4.5,4.5,4.5,29.375,29.375,29.375,3.353439,3.249418,7.425691,6.527793,6.630436,9.453082,0.06614728,-0.4979749,1.57994,0.4829633,0.2354173,1.420053,0.2673775,0.3324268,1.700024,0.10237,-0.4905177,1.558146,0.4385541,0.2426621,1.377,0.2525789,-0.1155441,1.688957,0.2387245,-0.4217852,1.665409,0.09687653,0.06265116,1.682766,0.1592844,-0.4116605,1.640748,0.06006233,-0.1932563,1.680858,0.5624598,-0.04363134,1.499749,NA,NA,NotTracked,Unknown,
0.8642578,-0.4106445,0.2270508,-1.043457,0.2167969,-0.1044922,0,0,-1,1,-2,1,-2,-1,18,24,18,7,-12,24,-16,-82,1.0625,1.0625,1.0625,-20.3125,-20.3125,-20.3125,3.352266,3.250826,7.436994,6.696939,6.730486,9.64989,0.0662561,-0.4982792,1.580985,0.4910022,0.2355703,1.432195,0.2676627,0.3324806,1.700399,0.1032038,-0.4906031,1.560521,0.5035374,0.2274211,1.381211,0.2527243,-0.1155511,1.689317,0.2388037,-0.4220932,1.665575,0.0968996,0.06252108,1.683271,0.1594223,-0.4119928,1.640957,0.06010406,-0.1933245,1.680921,0.5613173,-0.04750774,1.503669,NA,NA,NotTracked,Closed,
0.902832,-0.3779297,0.2514648,-0.8613281,0.5620117,0.2182617,0,-3,-2,-1,-3,0,0,-1,7,3,3,6,13,6,0,-54,-3.375,-3.375,-3.375,-11.0625,-11.0625,-11.0625,3.353208,3.251817,7.434349,6.729984,6.695423,9.632268,0.06610525,-0.4989885,1.580587,0.4924419,0.2345369,1.428113,0.2679061,0.3325262,1.700654,0.1024303,-0.4901266,1.56037,0.4882963,0.2379452,1.371224,0.2528969,-0.1155511,1.689579,0.2388988,-0.4223107,1.665613,0.09697599,0.06253744,1.68352,0.1595558,-0.4122207,1.640935,0.06008361,-0.193365,1.680943,0.5618658,-0.05043959,1.505994,NA,NA,NotTracked,Closed,
0.8911133,-0.3896484,0.2294922,-0.8686523,0.4628906,0.2626953,-1,-1,-1,-1,-1,0,-1,-1,6,4,1,1,4,3,5,33,-1,-1,-1,3.4375,3.4375,3.4375,3.347916,3.253309,7.43653,6.649438,6.681053,9.542148,0.06585903,-0.4986575,1.580417,0.4954472,0.2333707,1.425392,0.2682169,0.3326211,1.70101,0.1018163,-0.4904133,1.5596,0.4795567,0.238964,1.367911,0.2530887,-0.1155243,1.68982,0.2391628,-0.4224892,1.665547,0.09716241,0.06250772,1.683764,0.1598338,-0.41238,1.640777,0.0600762,-0.1933625,1.680952,0.5628477,-0.05122333,1.506476,NA,NA,NotTracked,Closed,
0.8911133,-0.3950195,0.2280273,-0.8725586,0.3364258,0.2729492,0,0,-2,-2,-1,-1,-2,-1,22,-3,-5,-2,-5,-15,-4,1,-3.5625,-3.5625,-3.5625,3.4375,3.4375,3.4375,3.34215,3.251517,7.432434,6.612373,6.674428,9.503041,0.0657138,-0.4981894,1.579631,0.4970776,0.231811,1.422127,0.268631,0.3325278,1.701312,0.1031013,-0.4872365,1.562564,0.4763556,0.2403606,1.35984,0.2532297,-0.1155236,1.690034,0.2392541,-0.4226484,1.665577,0.09718283,0.06244693,1.683896,0.1599442,-0.4125232,1.640749,0.060077,-0.1935058,1.680869,0.5650811,-0.05193455,1.50607,NA,NA,NotTracked,Unknown,
0.8950195,-0.3959961,0.2275391,-0.809082,0.4199219,0.2651367,-2,1,0,0,-2,-1,0,1,-5,-6,-5,-2,-1,0,-5,2,-0.1875,-0.1875,-0.1875,3.1875,3.1875,3.1875,3.341466,3.251199,7.432067,6.613487,6.63284,9.487665,0.06593338,-0.4983707,1.580377,0.4978721,0.2265439,1.417179,0.268786,0.3325232,1.701455,0.1018683,-0.4887953,1.561027,0.4831661,0.2324071,1.351087,0.2532281,-0.1154978,1.690208,0.2392851,-0.4227108,1.665601,0.09718134,0.06244358,1.684102,0.1599767,-0.4125657,1.640736,0.06001777,-0.1934171,1.680885,0.5662494,-0.05313983,1.507223,NA,NA,NotTracked,Closed,
0.8896484,-0.3803711,0.2290039,-0.7216797,0.4428711,0.2871094,-1,-3,-2,-1,1,1,-3,-1,-2,-1,-1,1,1,-1,0,0,1.8125,1.8125,1.8125,2.875,2.875,2.875,3.344057,3.249733,7.431735,6.6145,6.55242,9.482943,0.06507587,-0.4984998,1.581093,0.4937052,0.2188978,1.410873,0.2691257,0.3325464,1.701694,0.1014412,-0.4887595,1.560997,0.4829805,0.2158458,1.337542,0.2532869,-0.1154489,1.690305,0.2393773,-0.4227668,1.665554,0.09723177,0.06251419,1.684133,0.1600685,-0.4126142,1.640666,0.05999752,-0.1936008,1.6808,0.5677916,-0.05683146,1.510287,NA,NA,NotTracked,Unknown,
0.8920898,-0.3881836,0.2314453,-0.6547852,0.4663086,0.3325195,0,-2,-1,-2,-2,-1,-1,-2,-2,-2,-2,-2,3,-4,-3,-2,3.1875,3.1875,3.1875,-1.125,-1.125,-1.125,3.350063,3.245467,7.430851,6.619816,6.477424,9.490706,0.06503475,-0.4990685,1.581636,0.4848106,0.1933278,1.393188,0.2691745,0.3325682,1.701685,0.1015925,-0.4883464,1.561947,0.4596169,0.1846557,1.330342,0.2533781,-0.1153865,1.690329,0.2394653,-0.4227865,1.665562,0.09719321,0.06256795,1.684232,0.1601899,-0.4126333,1.640583,0.05994093,-0.1935395,1.680794,0.5688522,-0.06381225,1.513523,NA,NA,NotTracked,Unknown,
0.8994141,-0.3852539,0.2358398,-0.5947266,0.5053711,0.3774414,0,-1,-1,-2,-1,-1,0,0,-1,0,1,-2,1,-1,-1,-4,5.25,5.25,5.25,-13.25,-13.25,-13.25,3.359339,3.240406,7.429709,6.61592,6.319849,9.511273,0.06494524,-0.4979939,1.582017,0.4694354,0.1444751,1.372398,0.2692432,0.3325751,1.701643,0.1017318,-0.4852638,1.563428,0.4658142,0.127817,1.317346,0.2535326,-0.1153102,1.690386,0.2395341,-0.4227798,1.665592,0.09728134,0.06256183,1.684231,0.1602559,-0.4125951,1.640542,0.05977688,-0.1937257,1.680838,0.5679443,-0.08745283,1.525884,NA,NA,NotTracked,Lasso,
0.8950195,-0.3779297,0.2382813,-0.4785156,0.6152344,0.5307617,-2,-1,1,-1,-1,1,-1,-1,-1,1,-1,-1,-2,-3,-1,-2,11,11,11,-40.0625,-40.0625,-40.0625,3.369894,3.238626,7.435662,6.561483,5.924921,9.544377,0.06416818,-0.4986599,1.583382,0.4520349,0.06406685,1.354334,0.2692385,0.3325209,1.701192,0.101861,-0.4884364,1.564319,0.469226,0.05662934,1.318591,0.2535762,-0.1152998,1.69039,0.2395626,-0.4228484,1.665732,0.09714995,0.06252671,1.684327,0.1603815,-0.4125809,1.640492,0.0595808,-0.1940397,1.681087,0.5647172,-0.1182271,1.545742,NA,NA,NotTracked,Open,
0.8935547,-0.3842773,0.2446289,-0.3852539,0.7573242,0.6308594,-1,0,-2,0,-1,2,0,0,-9,-2,3,3,0,1,1,1,4.125,4.125,4.125,-53.5625,-53.5625,-53.5625,3.373888,3.235134,7.448977,6.476471,5.464175,9.607124,0.06373739,-0.4989199,1.583892,0.4438734,-0.04156871,1.352284,0.2692044,0.3324751,1.70012,0.1016135,-0.4879079,1.564371,0.4595053,-0.05161953,1.314875,0.2535345,-0.1152722,1.690266,0.239549,-0.4228518,1.665731,0.09703086,0.06257973,1.684321,0.1603818,-0.4125738,1.640468,0.05946995,-0.1941488,1.68118,0.5423018,-0.1622411,1.581696,NA,NA,NotTracked,Unknown,
0.9018555,-0.3789063,0.2353516,-0.2158203,0.8242188,0.6611328,0,-2,-1,-4,-3,-3,0,-1,2,-2,8,6,6,0,-2,-2,2.0625,2.0625,2.0625,-76.625,-76.625,-76.625,3.372631,3.229355,7.458317,6.370459,5.068871,9.65422,0.06371023,-0.4994329,1.586019,0.417339,-0.1503494,1.360134,0.2689587,0.332265,1.69885,0.1014164,-0.4935753,1.564159,0.4246522,-0.1133369,1.338609,0.2535574,-0.1152212,1.689971,0.2395981,-0.4228297,1.665735,0.09658231,0.06261951,1.684437,0.1604926,-0.4125901,1.640336,0.059342,-0.1943086,1.681397,0.5116647,-0.1192646,1.670343,NA,NA,NotTracked,Unknown,
0.9042969,-0.3779297,0.2285156,0.05175781,0.8286133,0.7519531,-1,0,-2,0,-1,-2,-2,-1,3,-4,-6,-2,3,-1,-2,7,0.9375,0.9375,0.9375,-24.75,-24.75,-24.75,3.373259,3.222395,7.461057,6.244617,4.59314,9.73614,0.06297904,-0.5002081,1.587847,0.4042666,-0.2481906,1.389094,0.268864,0.3325561,1.697374,0.1016717,-0.4905618,1.566544,0.3710771,-0.1918154,1.3474,0.2535205,-0.1151463,1.689741,0.2394591,-0.4227846,1.666047,0.09619188,0.06265789,1.68435,0.1604605,-0.4125378,1.640509,0.05925357,-0.1946982,1.681825,0.5238813,-0.1336585,1.653844,NA,NA,NotTracked,Closed,
0.8881836,-0.3813477,0.2421875,0.3173828,0.8432617,0.6884766,-1,-1,-2,0,0,-1,1,0,1,7,9,5,-1,0,0,-6,-6.125,-6.125,-6.125,-3.3125,-3.3125,-3.3125,3.372746,3.21312,7.449339,6.213886,4.285227,9.803177,0.06316908,-0.4955153,1.589433,0.4030601,-0.3270943,1.430992,0.2689056,0.3325192,1.695554,0.1013233,-0.4935574,1.565431,0.3732783,-0.3654161,1.480143,0.253374,-0.1152003,1.689297,0.2392077,-0.4228917,1.66602,0.09578262,0.0626026,1.684097,0.1602981,-0.4125459,1.640377,0.05915137,-0.1949048,1.68203,0.4979455,-0.1413138,1.671793,NA,NA,NotTracked,Closed,
0.8876953,-0.3623047,0.2397461,0.5180664,0.7011719,0.6704102,-1,-3,-1,-2,-1,-1,-2,-1,-11,5,2,1,0,0,-1,2,-9.1875,-9.1875,-9.1875,-1.1875,-1.1875,-1.1875,3.373904,3.211349,7.434249,6.189452,4.020753,9.861113,0.06330244,-0.4959127,1.589972,0.3982109,-0.3878655,1.477687,0.2691581,0.3323547,1.693414,0.1010807,-0.4925735,1.565817,0.3668599,-0.4090267,1.519161,0.2533157,-0.1153241,1.688816,0.2391868,-0.4230539,1.665959,0.09540951,0.06267023,1.683356,0.1602892,-0.4125821,1.639975,0.05914972,-0.1951188,1.682046,0.4817427,-0.1644264,1.671978,NA,NA,NotTracked,Unknown,
0.9111328,-0.3671875,0.2319336,0.7607422,0.6044922,0.5683594,-2,-2,-2,0,-1,-1,-2,-4,-19,-2,1,-1,0,-2,2,3,-5.5,-5.5,-5.5,8.25,8.25,8.25,3.369242,3.211347,7.426234,6.190671,3.736685,9.870204,0.06304481,-0.4961319,1.588915,0.4037434,-0.4428748,1.49224,0.2693939,0.3323562,1.692029,0.1013214,-0.4890471,1.566897,0.3639308,-0.4360671,1.482935,0.2531105,-0.1162774,1.68825,0.2395614,-0.4233024,1.665949,0.0951796,0.06254708,1.682564,0.1607056,-0.4127219,1.639717,0.05895185,-0.1957719,1.681923,0.475475,-0.1783012,1.666902,NA,NA,NotTracked,Closed,
0.9072266,-0.3696289,0.2192383,0.7788086,0.5332031,0.4042969,-1,-1,1,-3,-2,-2,1,0,-1,-15,-3,-3,-3,-2,-1,-2,-6.1875,-6.1875,-6.1875,21.9375,21.9375,21.9375,3.362077,3.208644,7.418303,6.220165,3.562178,9.877213,0.063757,-0.4961021,1.589371,0.4122373,-0.4684649,1.522219,0.2697247,0.3324757,1.691133,0.1008975,-0.4927492,1.565491,0.3714324,-0.45317,1.516681,0.2537016,-0.1162127,1.687799,0.2409945,-0.4237269,1.66596,0.09504766,0.06254926,1.682121,0.1622911,-0.4131423,1.639312,0.0588298,-0.1966094,1.681541,0.4723438,-0.1839935,1.663943,NA,NA,NotTracked,Unknown,
0.9106445,-0.3530273,0.2197266,0.9604492,0.425293,0.3549805,-2,-2,-3,0,-1,-2,-2,-1,-4,6,-1,-2,-1,-3,-3,-3,-3.8125,-3.8125,-3.8125,14.5,14.5,14.5,3.358642,3.207745,7.414118,6.265455,3.425577,9.86202,0.06376415,-0.4955033,1.58644,0.4188446,-0.4804896,1.539023,0.2698438,0.3324443,1.689355,0.0984427,-0.4932232,1.560333,0.3765736,-0.4550081,1.526286,0.2548357,-0.1161996,1.68687,0.2432826,-0.4242114,1.665571,0.09478875,0.0625744,1.681098,0.1647619,-0.4138119,1.638593,0.05879435,-0.1974541,1.68067,0.4686343,-0.1898199,1.659277,NA,NA,NotTracked,NotTracked,
0.9038086,-0.3540039,0.2270508,0.9238281,0.4023438,0.2495117,-1,-2,0,-1,-1,0,-2,1,7,1,0,0,-2,0,0,7,-1.4375,-1.4375,-1.4375,13.3125,13.3125,13.3125,3.352752,3.205938,7.417325,6.328189,3.329531,9.84022,0.06411011,-0.4951163,1.586484,0.4234812,-0.490478,1.548094,0.2703134,0.3323703,1.688318,0.09945718,-0.4906959,1.562992,0.3798826,-0.4796779,1.534966,0.2557662,-0.1161597,1.686336,0.245293,-0.4244496,1.665395,0.09480237,0.06281916,1.68064,0.1669034,-0.4142114,1.638154,0.05866205,-0.1974662,1.680224,0.4670571,-0.1933229,1.656986,NA,NA,NotTracked,NotTracked,
0.9072266,-0.362793,0.2163086,0.8735352,0.3974609,0.3510742,-4,0,-2,-1,-2,-1,-1,-3,-5,-3,-5,-1,0,-3,1,-65,-5.6875,-5.6875,-5.6875,14.6875,14.6875,14.6875,3.344471,3.202369,7.419731,6.346392,3.312835,9.850443,0.06407441,-0.4951821,1.586603,0.424917,-0.4922812,1.548109,0.270751,0.3323937,1.687529,0.1005693,-0.4903396,1.564432,0.3822343,-0.4792968,1.535166,0.2564095,-0.1161816,1.685954,0.2459933,-0.4246199,1.665399,0.09477229,0.06280033,1.68011,0.1676297,-0.4144309,1.637996,0.05845636,-0.1978538,1.679538,0.4667834,-0.1942801,1.656142,NA,NA,NotTracked,NotTracked,
