ALX,ALY,ALZ,ARX,ARY,ARZ,EMG0L,EMG1L,EMG2L,EMG3L,EMG4L,EMG5L,EMG6L,EMG7L,EMG0R,EMG1R,EMG2R,EMG3R,EMG4R,EMG5R,EMG6R,EMG7R,GLX,GLY,GLZ,GRX,GRY,GRZ,ORL,OPL,OYL,ORR,OPR,OYR,LHNX,LHNY,LHNZ,RHNX,RHNY,RHNZ,HX,HY,HZ,LTX,LTY,LTZ,RTX,RTY,RTZ,SpineMidX,SpineMidY,SpineMidZ,SpineBaseX,SpineBaseY,SpineBaseZ,ShoulderLeftX,ShoulderLeftY,ShoulderLeftZ,ShoulderRightX,ShoulderRightY,ShoulderRightZ,ElbowLeftX,ElbowLeftY,ElbowLeftZ,ElbowRightX,ElbowRightY,ElbowRightZ,Myo_Pose_left,Myo_Pose_Right,Kinect_pose_left,Kinect_pose_right
0.9091797,-0.3525391,0.21875,0.8764648,0.3110352,0.3041992,-1,-1,-2,0,-1,1,0,-2,-2,0,0,0,-1,1,1,-1,1.375,1.375,1.375,-1.125,-1.125,-1.125,3.380896,3.180075,5.690591,6.282597,3.244468,7.474575,0.01682512,-0.4806492,1.58945,0.3812495,-0.4907825,1.560817,0.2239882,0.3304615,1.661185,-0.02560052,-0.4878123,1.5941,0.4208961,-0.4935063,1.554724,0.2140171,-0.120473,1.677901,0.2053246,-0.4333405,1.667218,0.0432273,0.06769896,1.663779,0.1285587,-0.4238819,1.638467,-0.006648265,-0.1895557,1.680115,0.4208491,-0.1988604,1.649635,NA,NA,NotTracked,NotTracked,
0.9150391,-0.3447266,0.2138672,0.8769531,0.3188477,0.3022461,0,1,0,-2,-1,-1,1,3,-3,-2,-1,0,-2,-3,-1,2,2.875,2.875,2.875,-2.125,-2.125,-2.125,3.386747,3.179404,5.68857,6.28167,3.244126,7.47261,0.01672333,-0.4809062,1.590132,0.3814577,-0.4910867,1.560624,0.223905,0.3305772,1.66156,-0.02573043,-0.4900292,1.595661,0.4188618,-0.4986729,1.551179,0.2139562,-0.1203745,1.677936,0.2052641,-0.4333169,1.667167,0.04319542,0.06770508,1.663718,0.1284985,-0.4238529,1.638433,-0.006673509,-0.1899993,1.679964,0.4208296,-0.1988845,1.649611,NA,NA,NotTracked,NotTracked,
0.9165039,-0.3574219,0.222168,0.8813477,0.3208008,0.315918,-1,-2,-3,-2,-3,-3,-4,-2,-2,-1,0,0,-2,-1,-4,-1,-0.9375,-0.9375,-0.9375,0.0625,0.0625,0.0625,3.386582,3.179269,5.687959,6.281319,3.243995,7.472295,0.01634653,-0.4816601,1.589541,0.3815145,-0.4913543,1.560596,0.2238692,0.3305985,1.661699,-0.02560078,-0.4879064,1.592072,0.4205153,-0.4969369,1.552958,0.2138742,-0.1203374,1.677914,0.2051857,-0.4333288,1.667091,0.04317712,0.06768438,1.663586,0.1284423,-0.4238591,1.638401,-0.006739203,-0.1903206,1.679758,0.4207857,-0.198914,1.649551,NA,NA,NotTracked,NotTracked,
0.9116211,-0.3525391,0.2192383,0.875,0.3164063,0.3178711,0,-2,0,1,1,-1,-1,-1,-2,0,-2,-2,-1,-2,1,0,2.375,2.375,2.375,-0.25,-0.25,-0.25,3.388754,3.17971,5.68811,6.280414,3.244391,7.471486,0.01713835,-0.483507,1.589566,0.3816424,-0.4907907,1.561385,0.2237987,0.3307576,1.661917,-0.02554844,-0.4896211,1.594548,0.4207018,-0.4944779,1.554266,0.2136804,-0.1203028,1.677966,0.205002,-0.4333209,1.66708,0.04315438,0.06769286,1.663561,0.1282674,-0.4238121,1.638386,-0.006788888,-0.1909408,1.679769,0.4207241,-0.1989032,1.649624,NA,NA,NotTracked,NotTracked,
0.9145508,-0.3520508,0.2241211,0.8823242,0.3193359,0.309082,-2,-2,-1,-3,0,-3,-2,-3,-1,-2,-1,-2,-1,-1,-2,0,1,1,1,-0.625,-0.625,-0.625,3.390131,3.180503,5.68851,6.280414,3.244391,7.471486,0.01709268,-0.4837244,1.589376,0.3816619,-0.4910898,1.560234,0.2238021,0.3309411,1.662194,-0.02568873,-0.4890874,1.592824,0.4186389,-0.4988909,1.55005,0.2135508,-0.1202478,1.677984,0.2049324,-0.4333177,1.667044,0.04311033,0.06770155,1.663574,0.1281966,-0.4237972,1.638346,-0.006789827,-0.1912424,1.679787,0.4207046,-0.1987869,1.649618,NA,NA,NotTracked,NotTracked,
0.9067383,-0.355957,0.2197266,0.8754883,0.3134766,0.3095703,-2,-1,-2,-2,-2,-4,-2,-2,-2,-2,-2,0,-2,1,-1,-1,0.125,0.125,0.125,0.375,0.375,0.375,3.390633,3.180647,5.690037,6.279792,3.244512,7.471578,0.01741069,-0.4843698,1.589759,0.3812741,-0.4913756,1.560656,0.2237469,0.3311681,1.662557,-0.02535318,-0.4893088,1.593115,0.4201142,-0.4944609,1.553333,0.2134684,-0.1201598,1.678011,0.2048934,-0.4332804,1.667051,0.0430707,0.06779651,1.663839,0.1281612,-0.4237576,1.638345,-0.006580766,-0.1915242,1.679872,0.4206917,-0.1986838,1.649698,NA,NA,NotTracked,NotTracked,
0.9140625,-0.347168,0.2148438,0.871582,0.3173828,0.3071289,-2,-1,-3,-1,1,-2,1,-3,-2,-1,-1,-1,-2,-1,-1,-1,2.8125,2.8125,2.8125,-0.1875,-0.1875,-0.1875,3.373193,3.176047,5.713888,6.279932,3.24469,7.471487,0.01730938,-0.4838977,1.590873,0.3817883,-0.4914597,1.562498,0.2236702,0.3312583,1.662975,-0.02280934,-0.4889224,1.586721,0.4195443,-0.4957591,1.551875,0.2133879,-0.1201121,1.678172,0.2048698,-0.4332622,1.667063,0.04297618,0.06764201,1.664267,0.1281427,-0.423742,1.638357,-0.006473135,-0.1920133,1.680196,0.4206968,-0.1986637,1.649858,NA,NA,NotTracked,NotTracked,
0.9121094,-0.3613281,0.2138672,0.8823242,0.3203125,0.3032227,-1,-3,-1,0,-2,-2,0,1,-1,1,1,0,-2,0,0,-1,-1.0625,-1.0625,-1.0625,-0.3125,-0.3125,-0.3125,3.365039,3.173275,5.7221,6.279587,3.244311,7.472175,0.0170087,-0.4852259,1.591667,0.381594,-0.4916562,1.561816,0.2235991,0.3312256,1.663404,-0.02531454,-0.498473,1.600706,0.4199319,-0.4966616,1.553696,0.2133474,-0.1201387,1.678362,0.2048446,-0.4332878,1.667089,0.04291834,0.06759413,1.664627,0.1281233,-0.4237548,1.638378,-0.006321357,-0.1921933,1.680679,0.4206613,-0.1987098,1.649936,NA,NA,NotTracked,NotTracked,
0.9150391,-0.3540039,0.2163086,0.8818359,0.3212891,0.3037109,-2,-1,-2,-2,-1,0,-1,-3,-1,2,-1,-1,-1,-1,-2,0,1.625,1.625,1.625,-1.0625,-1.0625,-1.0625,3.363827,3.172488,5.725284,6.279344,3.244585,7.471674,0.01692413,-0.4847954,1.59178,0.3817071,-0.491097,1.562042,0.223522,0.331347,1.663746,-0.0254962,-0.4909553,1.595063,0.4192024,-0.4964556,1.551708,0.2133728,-0.1201049,1.678379,0.2048039,-0.4332806,1.667103,0.04292442,0.06755971,1.664801,0.1280832,-0.4237386,1.638397,-0.006189805,-0.1923513,1.680817,0.4206607,-0.198762,1.650035,NA,NA,NotTracked,NotTracked,
0.9116211,-0.3608398,0.2182617,0.875,0.3183594,0.3081055,-3,0,0,0,-1,0,1,0,-1,0,-1,-1,-1,0,1,-3,0,0,0,-0.0625,-0.0625,-0.0625,3.364181,3.172592,5.724887,6.279344,3.244585,7.471674,0.017045,-0.4853298,1.592053,0.3818522,-0.4919286,1.562045,0.2235829,0.3313516,1.664099,-0.02555563,-0.4915563,1.596303,0.4211938,-0.4944273,1.554866,0.2133555,-0.1200473,1.67853,0.2047861,-0.4332181,1.667139,0.04297953,0.06759809,1.664887,0.1280627,-0.4237017,1.638438,-0.005970832,-0.1924859,1.681175,0.4206649,-0.1987847,1.650087,NA,NA,NotTracked,NotTracked,
0.9082031,-0.3525391,0.2124023,0.8774414,0.3212891,0.3139648,0,-2,0,0,-3,-1,0,-2,-1,-1,-1,1,-1,0,0,1,-1.625,-1.625,-1.625,0.25,0.25,0.25,3.366061,3.173049,5.722212,6.279344,3.244585,7.471674,0.01627753,-0.4826702,1.593459,0.3817474,-0.4918858,1.562896,0.2238104,0.3314467,1.664693,-0.02573055,-0.4901806,1.597861,0.4202158,-0.4938507,1.553977,0.2133158,-0.1199969,1.67874,0.2047479,-0.4331874,1.667212,0.04303788,0.06758769,1.665279,0.1280169,-0.4236665,1.63855,-0.005632964,-0.1929923,1.681552,0.4206808,-0.1987923,1.650196,NA,NA,NotTracked,NotTracked,
0.909668,-0.3500977,0.2104492,0.8813477,0.3203125,0.3056641,-1,-1,-3,0,-1,-1,-1,-3,-3,1,1,-1,1,-1,0,-1,0.0625,0.0625,0.0625,0.1875,0.1875,0.1875,3.365679,3.173121,5.721736,6.278766,3.244998,7.472705,0.01715495,-0.4843293,1.592297,0.3814905,-0.4912582,1.562132,0.223942,0.3314529,1.664972,-0.02490867,-0.4928173,1.595171,0.4201605,-0.4930136,1.554612,0.2133383,-0.1199841,1.678826,0.2047279,-0.4331591,1.667265,0.04313755,0.06758969,1.665438,0.1280048,-0.4236485,1.638588,-0.005502971,-0.1931227,1.681694,0.4206853,-0.1988528,1.650251,NA,NA,NotTracked,NotTracked,
0.9130859,-0.3554688,0.2099609,0.8774414,0.3227539,0.3115234,0,0,-1,-2,0,2,1,0,-2,1,-2,-1,-2,-1,-1,-1,-0.6875,-0.6875,-0.6875,1,1,1,3.365254,3.172756,5.722092,6.278014,3.246723,7.475317,0.01712041,-0.4855261,1.592505,0.3814966,-0.4914293,1.561931,0.2241073,0.3313776,1.665183,-0.02494531,-0.4928324,1.595345,0.420466,-0.4937315,1.554594,0.2133857,-0.1199884,1.678908,0.2047309,-0.4331623,1.667317,0.04317233,0.06753211,1.665717,0.1280091,-0.4236269,1.638646,-0.005326489,-0.1932345,1.681769,0.4207571,-0.198876,1.650339,NA,NA,NotTracked,NotTracked,
0.9169922,-0.3476563,0.2080078,0.8793945,0.3256836,0.3056641,-2,-1,-2,0,-2,-1,-1,0,-2,-1,-3,0,0,-2,1,-2,-0.5625,-0.5625,-0.5625,1.75,1.75,1.75,3.365254,3.172756,5.722092,6.275534,3.249996,7.480291,0.01765,-0.4852212,1.592322,0.381362,-0.4914564,1.561999,0.2243715,0.3314275,1.665602,-0.02501608,-0.4927714,1.596711,0.4215608,-0.4978894,1.557462,0.2134515,-0.1199304,1.679118,0.2047483,-0.433134,1.667398,0.04337537,0.06756923,1.666079,0.1280283,-0.4235659,1.638711,-0.004965678,-0.1933188,1.682247,0.42086,-0.1990284,1.650666,NA,NA,NotTracked,NotTracked,
0.9135742,-0.3603516,0.2133789,0.8789063,0.3305664,0.3105469,1,-2,-2,-1,-1,0,0,-2,-1,-1,-2,0,0,1,-1,-1,-0.8125,-0.8125,-0.8125,3.875,3.875,3.875,3.363743,3.173018,5.722665,6.27429,3.253597,7.485806,0.01774793,-0.4856078,1.592705,0.3810786,-0.4904297,1.560957,0.2246478,0.3315273,1.666036,-0.02636684,-0.4928964,1.600158,0.4202873,-0.4943981,1.55422,0.213513,-0.1198818,1.679257,0.2047357,-0.4331271,1.66744,0.04363451,0.06758635,1.666241,0.1280082,-0.4235251,1.638776,-0.004753142,-0.1936405,1.682396,0.4210305,-0.1988579,1.650881,NA,NA,NotTracked,NotTracked,
0.9116211,-0.3735352,0.206543,0.8916016,0.3867188,0.2695313,0,-1,-1,-2,-2,-2,-3,-3,-11,3,9,4,-3,0,-3,-4,-2.3125,-2.3125,-2.3125,5,5,5,3.356589,3.174914,5.726367,6.278344,3.279377,7.502445,0.01757205,-0.4854704,1.591883,0.3800313,-0.4901449,1.555785,0.2250775,0.3315705,1.666523,-0.02435429,-0.4976347,1.59743,0.4177028,-0.4923139,1.548177,0.2135744,-0.1198436,1.679312,0.2047264,-0.4331097,1.667444,0.04386432,0.06778261,1.666613,0.1279959,-0.4234886,1.638753,-0.004681678,-0.1935888,1.682532,0.4213273,-0.1987113,1.651017,NA,NA,NotTracked,NotTracked,
0.8999023,-0.3896484,0.2148438,0.9121094,0.387207,0.3349609,0,-2,0,1,-1,-1,-1,0,-6,-15,-14,-3,0,-1,1,0,-2.4375,-2.4375,-2.4375,1.0625,1.0625,1.0625,3.343241,3.183155,5.735172,6.268636,3.330598,7.5139,0.01662448,-0.4851088,1.591264,0.3742098,-0.4837534,1.542861,0.225586,0.3317534,1.66742,-0.02639343,-0.4932915,1.59933,0.4087291,-0.4949234,1.529368,0.2135998,-0.1197856,1.679416,0.2046479,-0.4330877,1.667455,0.04415455,0.06777659,1.666724,0.1279149,-0.423432,1.638726,-0.004755006,-0.1935766,1.682452,0.4226157,-0.1982879,1.651249,NA,NA,NotTracked,NotTracked,
0.8852539,-0.3925781,0.2075195,0.9165039,0.4750977,0.4492188,-1,1,-2,-1,-2,-2,1,3,-6,-17,8,4,3,0,-2,-3,-6.1875,-6.1875,-6.1875,26.9375,26.9375,26.9375,3.318512,3.191391,5.75299,6.248474,3.438301,7.577108,0.01558097,-0.4860111,1.590142,0.3565247,-0.4658604,1.517969,0.2264064,0.3319061,1.668575,-0.02769642,-0.4922169,1.592507,0.3933492,-0.4752793,1.508615,0.2135476,-0.1197669,1.67963,0.2035388,-0.4330708,1.667674,0.04434028,0.06772958,1.666919,0.126777,-0.4231846,1.638893,-0.004840722,-0.1930112,1.682169,0.4256933,-0.1946138,1.651194,NA,NA,NotTracked,NotTracked,
0.9003906,-0.4052734,0.2202148,0.6982422,0.6000977,0.7138672,0,0,-2,0,-2,-3,-1,0,5,1,-8,11,1,-4,2,3,-9.125,-9.125,-9.125,55.625,55.625,55.625,3.27927,3.202384,5.781346,6.169716,3.77086,7.844153,0.01023256,-0.4858049,1.587481,0.3241442,-0.4109794,1.487572,0.2272394,0.3321819,1.669363,-0.03493508,-0.5008082,1.5995,0.3511587,-0.4397582,1.468682,0.212541,-0.1196113,1.680231,0.1985543,-0.4330733,1.668714,0.04454425,0.06673533,1.666142,0.1215624,-0.4215953,1.63964,-0.004867725,-0.1922826,1.681827,0.4358855,-0.1756839,1.64865,NA,NA,NotTracked,Unknown,
0.909668,-0.4160156,0.2055664,0.4731445,0.6728516,0.8374023,-3,-4,-2,-3,0,-2,-3,-1,-4,-32,-22,3,-34,-3,-7,-5,-15.6875,-15.6875,-15.6875,79.1875,79.1875,79.1875,3.202947,3.219266,5.829933,6.144261,4.061553,8.066752,0.001103169,-0.4866213,1.578629,0.2728444,-0.334476,1.478936,0.2283448,0.3323975,1.67019,-0.01896379,-0.4720536,1.550246,0.3003664,-0.4068048,1.504072,0.211435,-0.1192674,1.680983,0.1957236,-0.4325794,1.669685,0.04508982,0.06725115,1.666225,0.1191216,-0.4208594,1.640595,-0.005569939,-0.1896444,1.678893,0.4425826,-0.1556857,1.640754,NA,NA,NotTracked,Closed,
0.8984375,-0.4057617,0.2114258,0.203125,0.6948242,0.8388672,-1,-1,0,-1,-1,0,-1,-2,-6,-2,-23,-24,-12,-13,-9,-4,-18.8125,-18.8125,-18.8125,50.625,50.625,50.625,3.171583,3.224024,5.843606,6.125847,4.292639,8.233359,-0.005297422,-0.4911759,1.56716,0.1917509,-0.2485485,1.461472,0.2297678,0.3325203,1.671293,-0.02347434,-0.4932966,1.540449,0.2097834,-0.3092363,1.50324,0.2118306,-0.1186201,1.682256,0.1965166,-0.4316741,1.670797,0.04652297,0.06810796,1.665679,0.1201694,-0.4201279,1.641827,-0.006112221,-0.1859092,1.674369,0.4416453,-0.1381718,1.616773,NA,NA,NotTracked,Unknown,
0.9248047,-0.418457,0.1845703,-0.2001953,0.6186523,0.8544922,-1,1,1,0,2,-2,2,2,5,17,36,5,10,-26,-1,-5,-29.3125,-29.3125,-29.3125,84.4375,84.4375,84.4375,3.093249,3.230071,5.866453,6.171131,4.792821,8.613224,-0.008292513,-0.4916603,1.558566,0.1520218,-0.1538317,1.490435,0.2320231,0.3325472,1.673397,-0.04440853,-0.5024861,1.568318,0.1637298,-0.179033,1.45295,0.2123091,-0.118148,1.683349,0.1968904,-0.430655,1.671977,0.04756314,0.06749441,1.664174,0.1207182,-0.4192453,1.643121,-0.007838648,-0.1847785,1.66652,0.4330361,-0.1302322,1.58007,NA,NA,NotTracked,Unknown,
0.9145508,-0.4072266,0.1616211,-0.07763672,0.6279297,0.8461914,-1,-3,-1,-3,0,-1,1,-3,11,2,-8,-14,9,7,-2,-8,-23.9375,-23.9375,-23.9375,92.9375,92.9375,92.9375,3.035942,3.233035,5.884682,6.313122,5.097713,8.909295,-0.0110519,-0.4895844,1.550175,0.1309301,-0.1025812,1.513152,0.2345561,0.3325681,1.675533,-0.05077788,-0.4967906,1.5642,0.1119694,-0.1402147,1.509412,0.214016,-0.1173569,1.685506,0.1979795,-0.4291661,1.674188,0.04780191,0.06693061,1.662712,0.1223475,-0.4178303,1.645924,-0.0113392,-0.1924269,1.655071,0.4041966,-0.1167499,1.535631,NA,NA,Unknown,Unknown,
0.9082031,-0.3959961,0.1245117,-0.08154297,0.5869141,0.8764648,-3,-1,-2,-2,-2,-4,-4,-2,-9,-3,2,-6,-3,14,-4,-47,-21,-21,-21,94.25,94.25,94.25,2.986684,3.234761,5.89917,6.56475,5.324666,9.265377,-0.01153179,-0.4890064,1.542123,0.1061771,-0.0548074,1.529665,0.2380227,0.3327114,1.677937,-0.0362827,-0.4914896,1.522933,0.07657261,-0.06691541,1.491697,0.2153965,-0.1162479,1.687432,0.1997343,-0.4272437,1.676463,0.0472537,0.06686618,1.65966,0.1246818,-0.4161205,1.649707,-0.01048181,-0.1908309,1.64878,0.3645433,-0.1006487,1.505219,NA,NA,Unknown,Unknown,
0.887207,-0.4038086,0.09619141,0.01806641,0.6455078,0.6542969,0,-3,-1,1,-1,0,-2,-2,-2,9,-3,-3,0,-12,-11,-4,-11.5,-11.5,-11.5,74.125,74.125,74.125,2.94823,3.237201,5.912748,6.734869,5.372991,9.479931,-0.01166736,-0.4866259,1.535998,0.09614123,-0.03474702,1.535052,0.2416277,0.3328611,1.679817,-0.05319918,-0.4865121,1.549179,0.1229206,-0.07193473,1.500478,0.2178624,-0.1151355,1.689314,0.2020215,-0.4254833,1.678513,0.04663176,0.0660884,1.657553,0.1273381,-0.4145933,1.654163,-0.009076389,-0.1902039,1.644386,0.339049,-0.08893677,1.49381,NA,NA,Unknown,Unknown,
0.8916016,-0.3774414,0.02734375,0.4838867,0.6445313,0.4038086,2,0,0,-1,0,-1,1,2,-6,-1,10,3,-5,-9,-3,-1,15.6875,15.6875,15.6875,30.8125,30.8125,30.8125,2.946639,3.24932,5.924844,6.821827,5.312534,9.64001,-0.01103408,-0.4857315,1.527632,0.09495355,-0.02769966,1.540529,0.2436029,0.332769,1.680455,-0.05324669,-0.4963884,1.542191,0.1252654,-0.1145438,1.547,0.2185829,-0.1144996,1.68984,0.2028623,-0.4245746,1.679328,0.04617028,0.06525828,1.656137,0.1281201,-0.4138921,1.655656,-0.008060272,-0.1855792,1.63869,0.327908,-0.08147648,1.487985,NA,NA,Unknown,Unknown,
0.8745117,-0.4301758,0.07958984,0.4438477,0.6826172,0.3535156,-2,-1,-1,0,-1,0,1,0,-19,-36,-2,-4,-33,-10,-4,-7,20.9375,20.9375,20.9375,24.125,24.125,24.125,2.952236,3.261635,5.95681,6.839902,5.291083,9.673536,-0.01078314,-0.4837958,1.523319,0.09310439,-0.02538613,1.543324,0.2443182,0.3326686,1.681048,-0.05113754,-0.4975317,1.538227,0.1185826,-0.08975285,1.554971,0.2188403,-0.1141101,1.690453,0.2032622,-0.4240331,1.679918,0.04608782,0.0651115,1.655858,0.1284852,-0.4135811,1.656555,-0.007624691,-0.1849698,1.637863,0.3194711,-0.08348589,1.487061,NA,NA,Unknown,Unknown,
0.878418,-0.3969727,0.121582,0.4106445,0.6362305,0.4243164,-4,-1,-2,-2,0,2,1,-3,35,24,5,1,16,-24,1,13,50.25,50.25,50.25,-18,-18,-18,2.976331,3.275255,6.003867,6.825572,5.249434,9.696928,-0.01457904,-0.4841996,1.520956,0.1116698,-0.03313182,1.546445,0.2438985,0.3327597,1.681409,-0.05552767,-0.4959639,1.535422,0.1276748,-0.1123027,1.549067,0.2189636,-0.1139436,1.690735,0.2033666,-0.4238983,1.679995,0.04670721,0.06653319,1.655726,0.1285165,-0.4135042,1.656716,-0.007134154,-0.1853442,1.637277,0.3435751,-0.09372077,1.495056,NA,NA,Unknown,Unknown,
0.8935547,-0.512207,0.1748047,-0.6313477,0.9072266,0.7397461,-2,-1,-1,-2,0,-2,-1,-1,2,-11,-9,7,-2,0,1,8,11.5,11.5,11.5,-55.5625,-55.5625,-55.5625,2.974454,3.275487,6.070007,6.472798,5.127672,9.247375,-0.02002811,-0.4846252,1.523508,0.1424063,-0.05415534,1.536815,0.2414453,0.3331411,1.682127,-0.03786997,-0.4885817,1.492723,0.1529924,-0.133604,1.533913,0.2181154,-0.1139094,1.69097,0.2024639,-0.4240082,1.679957,0.0466294,0.06678196,1.656506,0.1273735,-0.4137855,1.656242,-0.007398241,-0.1857622,1.637552,0.3804379,-0.1057225,1.512848,NA,NA,Unknown,Unknown,
0.8798828,-0.4570313,0.3056641,-0.9223633,1.032715,0.7504883,-2,-2,-2,-2,0,-1,0,1,-2,-17,-6,2,-15,-1,1,-1,2.25,2.25,2.25,-31.0625,-31.0625,-31.0625,2.969453,3.267729,6.08779,6.431875,5.068022,9.106085,-0.02486378,-0.4874326,1.529917,0.1339601,-0.03845542,1.541002,0.239334,0.3334875,1.682234,-0.04485037,-0.4922688,1.502295,0.1196268,-0.09941671,1.524727,0.2174169,-0.1138578,1.691045,0.201951,-0.4240551,1.679801,0.04706236,0.06750476,1.657676,0.1265787,-0.4138591,1.655528,-0.00866541,-0.185711,1.6382,0.4010983,-0.1078294,1.524411,NA,NA,Unknown,Unknown,
0.925293,-0.4433594,0.1176758,-0.4907227,0.7739258,0.5595703,-1,-2,-2,0,-2,-2,-7,1,-6,14,1,0,6,6,13,-1,-3.375,-3.375,-3.375,20.0625,20.0625,20.0625,2.934458,3.24975,6.116108,6.440818,5.151023,9.055228,-0.02971658,-0.4897824,1.532358,0.1538826,-0.05169994,1.533718,0.2373602,0.3334814,1.681744,-0.05569198,-0.4972769,1.515,0.135579,-0.1140877,1.528961,0.2169985,-0.1138913,1.690818,0.2017492,-0.4241252,1.679397,0.04668393,0.06692564,1.657703,0.1261625,-0.4140106,1.654516,-0.009781019,-0.1865133,1.638282,0.4088138,-0.1072225,1.527547,NA,NA,Unknown,Unknown,
0.8969727,-0.4291992,0.1147461,-0.3212891,0.8388672,0.6469727,-1,0,-2,0,-1,-1,2,2,10,12,3,-9,-13,-12,-5,-14,0.8125,0.8125,0.8125,11.875,11.875,11.875,2.933248,3.250707,6.114553,6.464178,5.213605,9.066174,-0.0308989,-0.4897569,1.533168,0.1340388,-0.03541266,1.536442,0.2368601,0.3335307,1.681819,-0.06904945,-0.4889835,1.538052,0.1068067,-0.08331051,1.509834,0.2169667,-0.1139025,1.690794,0.2019444,-0.4241312,1.679145,0.04650392,0.06651174,1.65759,0.1264357,-0.4141132,1.653575,-0.009847405,-0.1865153,1.638064,0.4092105,-0.1076713,1.527388,NA,NA,Unknown,Unknown,
0.8823242,-0.4418945,0.1699219,-0.3359375,0.9404297,0.6845703,-3,-2,-1,0,-1,-3,-3,-6,-4,1,6,0,7,5,1,-2,-4.75,-4.75,-4.75,19.25,19.25,19.25,2.954682,3.260865,6.085193,6.481665,5.279723,9.058113,-0.02878808,-0.4893455,1.528843,0.125179,-0.02112247,1.526751,0.2367189,0.3336324,1.681955,-0.06598552,-0.4905105,1.533253,0.0923086,-0.05686316,1.491317,0.2169535,-0.1138279,1.690758,0.2021044,-0.423932,1.678996,0.04628468,0.06617482,1.657464,0.1266611,-0.4138017,1.653071,-0.009864637,-0.1867945,1.637878,0.4018951,-0.1071739,1.522979,NA,NA,Unknown,Unknown,
0.887207,-0.4418945,0.1577148,-0.4111328,0.8798828,0.6650391,-2,-2,-1,0,-2,-2,-1,-1,-19,15,38,32,16,2,-15,-26,-8,-8,-8,35.8125,35.8125,35.8125,2.97366,3.267157,6.054197,6.560709,5.468444,9.128775,-0.02559383,-0.4878809,1.52742,0.1229257,-0.004943961,1.526284,0.2368104,0.3338353,1.682513,-0.06516132,-0.4919192,1.535472,0.1055484,-0.0427755,1.506158,0.2170147,-0.1137886,1.690758,0.2021956,-0.4237377,1.678841,0.04620069,0.06575586,1.656439,0.1267267,-0.4135798,1.652874,-0.009855769,-0.1862298,1.637336,0.3882474,-0.1035087,1.512931,NA,NA,Closed,Unknown,
0.8842773,-0.4428711,0.1181641,-0.4179688,0.7905273,0.625,-1,0,-1,-1,-1,-2,-1,-2,2,-16,-15,-8,-4,0,-3,-22,-7,-7,-7,46.5625,46.5625,46.5625,2.975887,3.266207,6.03132,6.642025,5.594496,9.221207,-0.02236311,-0.4870336,1.524903,0.1094581,0.05285133,1.533673,0.2377059,0.3336949,1.683224,-0.06360321,-0.49573,1.538515,0.09448823,0.004548503,1.567886,0.2171632,-0.1138446,1.690853,0.2024107,-0.4238756,1.678608,0.04664,0.06492006,1.654087,0.1267962,-0.4136805,1.652784,-0.009054536,-0.1850127,1.636816,0.3691504,-0.09336619,1.496314,NA,NA,Unknown,Unknown,
0.8867188,-0.434082,0.1245117,-0.3984375,0.6743164,0.5224609,0,-1,-1,0,-1,1,3,0,-21,1,4,1,9,-1,-8,-41,-5.625,-5.625,-5.625,15.8125,15.8125,15.8125,2.97615,3.26412,6.017039,6.769972,5.7827,9.41479,-0.01794039,-0.4864378,1.522752,0.1161945,0.0685995,1.546674,0.2389576,0.333746,1.683632,-0.05887175,-0.4896263,1.533518,0.08994523,0.01757986,1.573861,0.2174914,-0.1139861,1.690787,0.2028143,-0.4243852,1.678289,0.04996099,0.06421315,1.64852,0.1270489,-0.4144228,1.652103,-0.007415673,-0.1818768,1.635163,0.3533425,-0.08549006,1.487099,NA,NA,Closed,Unknown,
0.8745117,-0.4223633,0.1313477,-0.2128906,0.5791016,0.3793945,-2,1,-1,0,-2,0,-1,-3,6,5,9,-2,0,6,7,20,0.4375,0.4375,0.4375,-20.3125,-20.3125,-20.3125,2.98179,3.262517,6.007319,6.883457,5.929863,9.649498,-0.01491129,-0.4866266,1.523025,0.1131516,0.07253657,1.556481,0.2404319,0.3338159,1.684046,-0.05627659,-0.4997771,1.535286,0.0874103,0.02178941,1.577429,0.2178454,-0.1140385,1.690875,0.2029522,-0.4245383,1.678243,0.05101783,0.06450441,1.646962,0.1270999,-0.414562,1.651895,-0.005702149,-0.180086,1.634445,0.3458661,-0.0830581,1.48473,NA,NA,Closed,NotTracked,
0.9106445,-0.4379883,0.1210938,-0.234375,0.5424805,0.3071289,0,0,-2,0,0,-1,0,-1,-50,10,12,7,26,-9,0,-23,13.1875,13.1875,13.1875,-57.1875,-57.1875,-57.1875,2.99592,3.261139,6.008632,6.846268,5.855573,9.742124,-0.01329934,-0.4864253,1.52258,0.107823,0.05336449,1.56545,0.2414104,0.3338042,1.68407,-0.04108339,-0.4830362,1.506658,0.04748709,0.04513593,1.537233,0.2181595,-0.1139636,1.69083,0.2031028,-0.4245053,1.678132,0.0509983,0.06432611,1.646883,0.1272238,-0.4145528,1.652001,-0.003999961,-0.1800016,1.633769,0.344685,-0.08611947,1.484682,NA,NA,Unknown,NotTracked,
0.8657227,-0.453125,0.1425781,-0.3901367,0.8745117,0.4624023,-2,-1,0,-1,-3,-4,-4,-3,-10,0,1,-3,3,28,6,-22,3.875,3.875,3.875,-25.25,-25.25,-25.25,2.997092,3.253757,6.024052,6.68195,5.379151,9.672762,-0.01088187,-0.4873589,1.523652,0.1284758,0.04135334,1.581403,0.242225,0.3337722,1.683996,-0.05111548,-0.4944726,1.53725,0.057472,-0.01240185,1.52923,0.2183716,-0.1139485,1.690727,0.2031294,-0.4244938,1.677939,0.0504078,0.06513909,1.648778,0.1272379,-0.4146202,1.652067,-0.000273279,-0.1843937,1.63262,0.3497161,-0.09025428,1.489432,NA,NA,Unknown,NotTracked,
0.8598633,-0.4584961,0.112793,-0.02294922,1.019043,0.5327148,-1,-3,0,-1,0,0,3,-2,-30,1,0,4,20,-36,-12,59,0.1875,0.1875,0.1875,54.75,54.75,54.75,2.981158,3.243481,6.042559,6.727257,4.976688,9.631209,-0.01020389,-0.4888195,1.527624,0.1284672,0.04220409,1.586999,0.2427078,0.3335962,1.683962,-0.05060599,-0.4928562,1.539346,0.09372635,-0.0147931,1.574149,0.2183566,-0.114034,1.690731,0.2027636,-0.4246894,1.677882,0.05313542,0.06969778,1.653252,0.1270134,-0.4148304,1.652048,0.00296599,-0.2016916,1.62432,0.3548729,-0.09499609,1.495721,NA,NA,Unknown,NotTracked,
0.9189453,-0.4428711,0.121582,0.04541016,1.198242,0.644043,-2,-1,0,-1,-2,-4,-3,-3,-14,-12,3,-2,-12,-3,-11,-15,0.375,0.375,0.375,-41.6875,-41.6875,-41.6875,2.970015,3.233016,6.058464,6.701501,4.821215,9.582685,-0.009202515,-0.4897402,1.530195,0.1201742,0.03770261,1.5876,0.2430041,0.3333475,1.683719,-0.04935595,-0.4940198,1.542,0.09076715,-0.03100833,1.580436,0.2183716,-0.1142512,1.690674,0.2023905,-0.4250843,1.677636,0.05184713,0.06809542,1.654467,0.1267167,-0.4152684,1.651798,0.005380531,-0.203674,1.620556,0.3602929,-0.09880844,1.501759,NA,NA,Unknown,NotTracked,
0.9052734,-0.4570313,0.1230469,-0.046875,0.8769531,0.5014648,-1,0,-1,-2,-2,-2,1,1,5,6,-2,-2,5,11,-1,34,-0.8125,-0.8125,-0.8125,-5.8125,-5.8125,-5.8125,2.961993,3.224023,6.060784,6.66127,4.8936,9.539701,-0.008421477,-0.4926882,1.534392,0.12032,0.03504835,1.588678,0.2430924,0.3332917,1.683658,-0.04043585,-0.4915217,1.526648,0.09341908,-0.03484701,1.580881,0.2184461,-0.1143031,1.690697,0.2022554,-0.4251966,1.677581,0.05262245,0.0689616,1.656028,0.126632,-0.4154073,1.651738,0.006994448,-0.2027905,1.619609,0.3625427,-0.09999292,1.50453,NA,NA,Closed,NotTracked,
0.8969727,-0.4272461,0.1181641,0.05371094,0.8330078,0.5068359,-1,-1,0,-3,1,1,0,-1,-6,-12,-11,-7,-4,14,10,-16,0.8125,0.8125,0.8125,-1.375,-1.375,-1.375,2.968946,3.227579,6.053547,6.664186,4.941667,9.507695,-0.007026958,-0.4930264,1.533797,0.1196127,0.03617129,1.5884,0.2431163,0.3332772,1.68363,-0.04717499,-0.4970631,1.544792,0.09236251,-0.03171738,1.58066,0.2184634,-0.1143054,1.690696,0.2022312,-0.4252145,1.677446,0.05337517,0.06988242,1.656631,0.1266506,-0.4154087,1.65152,0.007818661,-0.2018566,1.619737,0.3626477,-0.1003819,1.505685,NA,NA,Closed,NotTracked,
0.8950195,-0.4194336,0.1333008,0.06835938,0.8198242,0.5488281,-2,-3,-2,-2,0,1,2,-1,8,3,-11,0,8,7,12,19,2.625,2.625,2.625,-3.25,-3.25,-3.25,2.989006,3.239366,6.037677,6.657396,4.938051,9.478485,-0.006430349,-0.4930992,1.530966,0.117194,0.03101214,1.588635,0.2432195,0.3332773,1.683652,-0.04614313,-0.501461,1.544476,0.09155811,-0.03833725,1.583771,0.2185914,-0.114338,1.690727,0.2022781,-0.4252826,1.677344,0.0529877,0.06938022,1.65724,0.1267424,-0.4154831,1.651413,0.007975863,-0.2023863,1.619595,0.362648,-0.1007268,1.506611,NA,NA,Unknown,NotTracked,
0.8950195,-0.4199219,0.128418,0.06152344,0.8398438,0.5449219,2,-2,-2,-1,-1,-4,-2,-1,13,11,10,1,1,12,-6,41,0.4375,0.4375,0.4375,-6.3125,-6.3125,-6.3125,3.005961,3.246316,6.020553,6.648435,4.925049,9.462485,-0.005607398,-0.4917793,1.528217,0.116925,0.03109928,1.588476,0.243345,0.333203,1.683633,-0.0454556,-0.4958513,1.542217,0.09199303,-0.03784188,1.582145,0.2187459,-0.1144729,1.69074,0.2023535,-0.4255027,1.677186,0.05202857,0.06800082,1.657379,0.1268785,-0.4157861,1.651208,0.008031892,-0.2038203,1.618497,0.3622882,-0.1013462,1.506888,NA,NA,Unknown,NotTracked,
