ALX,ALY,ALZ,ARX,ARY,ARZ,EMG0L,EMG1L,EMG2L,EMG3L,EMG4L,EMG5L,EMG6L,EMG7L,EMG0R,EMG1R,EMG2R,EMG3R,EMG4R,EMG5R,EMG6R,EMG7R,GLX,GLY,GLZ,GRX,GRY,GRZ,ORL,OPL,OYL,ORR,OPR,OYR,LHNX,LHNY,LHNZ,RHNX,RHNY,RHNZ,HX,HY,HZ,LTX,LTY,LTZ,RTX,RTY,RTZ,SpineMidX,SpineMidY,SpineMidZ,SpineBaseX,SpineBaseY,SpineBaseZ,ShoulderLeftX,ShoulderLeftY,ShoulderLeftZ,ShoulderRightX,ShoulderRightY,ShoulderRightZ,ElbowLeftX,ElbowLeftY,ElbowLeftZ,ElbowRightX,ElbowRightY,ElbowRightZ,Myo_Pose_left,Myo_Pose_Right,Kinect_pose_left,Kinect_pose_right
0.8994141,-0.3813477,0.1450195,0.08496094,0.6542969,0.6547852,-2,-1,-3,-2,0,-1,-3,-2,15,-11,-4,11,-7,-15,-2,5,15.5,15.5,15.5,40.75,40.75,40.75,3.164341,3.231515,6.312585,6.569812,5.304444,9.282597,0.004413479,-0.5001968,1.567112,0.1380777,-0.06665158,1.538312,0.2392459,0.332931,1.692523,-0.03974625,-0.4997166,1.575423,0.1699329,-0.05572301,1.479864,0.2191525,-0.1164996,1.702889,0.2041475,-0.4269625,1.692462,0.04670788,0.06284513,1.672204,0.1296018,-0.4165847,1.668988,0.01295874,-0.2037812,1.666483,0.3516764,-0.100956,1.514091,NA,NA,Unknown,Unknown,
0.8881836,-0.4047852,0.1679688,-0.0009765625,0.765625,0.5336914,-1,-1,-2,1,-1,0,2,-1,-36,1,11,9,7,-12,-5,-5,5.625,5.625,5.625,12.375,12.375,12.375,3.154525,3.231456,6.33782,6.627613,5.306807,9.450866,0.002749289,-0.4990167,1.566367,0.1020687,-0.04178811,1.553862,0.2400499,0.3331099,1.693083,-0.03110982,-0.4927897,1.557073,0.1404163,0.01089444,1.557946,0.2195396,-0.1159509,1.703413,0.2045749,-0.4261984,1.692983,0.0460376,0.06258959,1.670939,0.1301599,-0.416042,1.670905,0.01319765,-0.2030753,1.666446,0.3430643,-0.09804723,1.510131,NA,NA,Unknown,Unknown,
0.894043,-0.4086914,0.1962891,-0.09765625,0.7978516,0.5126953,0,-1,-2,-5,-1,-1,0,-2,3,28,9,12,26,8,-1,12,-4,-4,-4,3.875,3.875,3.875,3.135346,3.223487,6.359417,6.644629,5.292082,9.528261,0.0005743388,-0.5000946,1.568547,0.09402276,-0.03551375,1.558969,0.2405046,0.3334047,1.693502,-0.04179922,-0.5003416,1.572353,0.1300254,0.01746247,1.562796,0.2202354,-0.1152303,1.703815,0.2050386,-0.4255033,1.693347,0.0456876,0.06239084,1.670106,0.1305998,-0.4156698,1.67215,0.01287591,-0.1999635,1.666511,0.3340608,-0.09510936,1.507317,NA,NA,Unknown,Unknown,
0.8984375,-0.4277344,0.1796875,-0.1699219,0.8422852,0.4892578,-1,-1,0,-1,-2,0,-2,-4,4,5,-2,-1,4,7,2,3,-0.625,-0.625,-0.625,5.5625,5.5625,5.5625,3.122297,3.218346,6.371532,6.65646,5.280341,9.558313,-0.0007909263,-0.5011361,1.57115,0.08925362,-0.03349455,1.560681,0.2407517,0.3333949,1.693711,-0.04048982,-0.5016385,1.567794,0.1237039,0.01964335,1.567313,0.2204879,-0.1150428,1.704088,0.2052661,-0.4251403,1.693613,0.04652581,0.06345382,1.670997,0.1308475,-0.4155678,1.673043,0.01278475,-0.1986597,1.666557,0.3280295,-0.09308901,1.505892,NA,NA,Unknown,Unknown,
0.902832,-0.4145508,0.1694336,-0.1777344,0.8334961,0.4873047,-1,0,-1,-1,0,-2,-1,-2,6,-20,-3,-1,-2,-10,1,-2,-7.1875,-7.1875,-7.1875,8.0625,8.0625,8.0625,3.102475,3.20593,6.388419,6.66259,5.274215,9.567726,-0.001804695,-0.5019898,1.573368,0.08886211,-0.03303492,1.561543,0.2408946,0.3331811,1.693824,-0.03490736,-0.5022216,1.563207,0.1257117,0.02190872,1.567096,0.2206376,-0.1149087,1.704361,0.2052673,-0.4247398,1.693928,0.04748534,0.06512747,1.672969,0.1308478,-0.4152183,1.673735,0.01290075,-0.198838,1.666561,0.3266484,-0.09263255,1.50517,NA,NA,Unknown,Unknown,
0.8999023,-0.4165039,0.1503906,-0.1777344,0.8334961,0.4873047,-1,-2,-3,-3,1,-2,-3,-2,6,-19,-5,-3,-11,6,8,7,-4.6875,-4.6875,-4.6875,8.0625,8.0625,8.0625,3.084763,3.198983,6.391098,6.66259,5.274215,9.567726,-0.002005559,-0.5022839,1.57515,0.08356098,-0.03134435,1.56275,0.2410209,0.3331212,1.693877,-0.03871633,-0.501474,1.567296,0.1177767,0.02031298,1.571044,0.2207108,-0.114772,1.704602,0.2053397,-0.4244305,1.694217,0.04743141,0.06544977,1.672553,0.1309088,-0.414997,1.674216,0.01283331,-0.198984,1.666471,0.3251337,-0.09147713,1.503813,NA,NA,Closed,Unknown,
0.90625,-0.3969727,0.1259766,-0.215332,0.8388672,0.5195313,-2,-1,-1,-1,-4,0,-3,-1,8,15,4,-4,-11,13,1,5,7.625,7.625,7.625,8.0625,8.0625,8.0625,3.082356,3.203461,6.397754,6.678739,5.263351,9.590421,-0.003340742,-0.5009408,1.573549,0.08457778,-0.02993649,1.565485,0.2411422,0.33312,1.693775,-0.03939805,-0.4991759,1.566651,0.1186338,0.02243009,1.569071,0.2207286,-0.1145183,1.704612,0.205441,-0.4241175,1.694345,0.04752527,0.06635121,1.672376,0.1309652,-0.4148609,1.674293,0.01302337,-0.1987976,1.66604,0.324089,-0.09092133,1.503338,NA,NA,Unknown,Unknown,
0.8803711,-0.4555664,0.1474609,-0.215332,0.8388672,0.5195313,-1,0,-1,0,-2,-1,-1,-1,7,5,-6,-10,-31,3,-3,-5,26.375,26.375,26.375,8.0625,8.0625,8.0625,3.081549,3.220611,6.441455,6.678739,5.263351,9.590421,-0.004132219,-0.5004576,1.568399,0.08700863,-0.02864315,1.569173,0.2411943,0.3331335,1.693538,-0.05095537,-0.485348,1.5654,0.1147578,0.0281227,1.571455,0.2207626,-0.1143881,1.704535,0.2055388,-0.4239334,1.694321,0.04749722,0.06602757,1.671198,0.1310111,-0.4147447,1.674293,0.01320847,-0.1984477,1.66509,0.3243091,-0.09128416,1.503422,NA,NA,Unknown,Unknown,
0.8881836,-0.4125977,0.1635742,-0.04785156,0.8168945,0.503418,-3,-3,-1,0,0,-1,-2,-1,-1,-5,7,-1,-21,6,2,-12,43.5,43.5,43.5,-6.375,-6.375,-6.375,3.089889,3.237183,6.508751,6.688169,5.230668,9.630829,-0.006778028,-0.5025407,1.565101,0.09238557,-0.0292758,1.571285,0.2411441,0.3330146,1.693309,-0.04985491,-0.500829,1.570481,0.1183391,0.03026668,1.569826,0.2207526,-0.1144136,1.704562,0.2055447,-0.4239747,1.694368,0.0472718,0.06541214,1.670496,0.13098,-0.4148392,1.674345,0.01292055,-0.1990211,1.664633,0.3301096,-0.09457784,1.505354,NA,NA,Closed,Unknown,
0.8955078,-0.4277344,0.1435547,0.04101563,0.8266602,0.5888672,-4,-1,-2,-3,-1,-2,-3,-3,-11,-26,-15,-2,-9,-15,-5,-5,42.5625,42.5625,42.5625,-24,-24,-24,3.083135,3.246248,6.56857,6.587813,5.199852,9.514178,-0.01208621,-0.5042787,1.562258,0.1156765,-0.03980722,1.563879,0.2404922,0.3327238,1.692699,-0.03940106,-0.504657,1.542,0.1527108,0.02921117,1.559,0.2206285,-0.1144827,1.704566,0.2055246,-0.424034,1.694397,0.0469296,0.06479625,1.670332,0.1308898,-0.4149953,1.674137,0.01189752,-0.1995705,1.663919,0.3522756,-0.1019517,1.511621,NA,NA,Unknown,Unknown,
0.9140625,-0.4545898,0.1318359,-0.01318359,0.7236328,0.6606445,-1,1,0,2,2,-1,1,0,24,19,19,19,36,9,1,-8,33.4375,33.4375,33.4375,-39,-39,-39,3.061941,3.267107,6.689543,6.457244,5.147044,9.27371,-0.02114681,-0.5030319,1.560104,0.1582947,-0.06250713,1.544935,0.2387726,0.3327986,1.69135,-0.05302558,-0.5045806,1.544612,0.1845027,0.002851876,1.546977,0.2201022,-0.1144536,1.704331,0.2053273,-0.4240114,1.694223,0.04783897,0.06557547,1.672103,0.1303429,-0.4148502,1.672618,0.009869938,-0.2001482,1.663062,0.3811409,-0.1067167,1.523349,NA,NA,Unknown,Unknown,
0.90625,-0.3212891,0.2119141,-0.2543945,0.8295898,0.7993164,-3,-2,-2,-3,-2,-2,-2,-1,-10,15,0,4,-32,-19,-11,-7,21.125,21.125,21.125,-29.875,-29.875,-29.875,3.083519,3.275973,6.72468,6.388814,5.081874,9.051953,-0.03002566,-0.5032275,1.556905,0.1622207,-0.06287288,1.538787,0.2366329,0.3330723,1.689873,-0.07005563,-0.4966283,1.56132,0.1688975,0.003995673,1.544566,0.2193378,-0.1143023,1.703666,0.2049083,-0.4238663,1.693505,0.04726965,0.06480866,1.670895,0.1294089,-0.4144415,1.670039,0.005965183,-0.1977033,1.66223,0.4162527,-0.1096143,1.541615,NA,NA,Unknown,Unknown,
0.8808594,-0.4321289,0.2573242,-0.5727539,0.8227539,0.9443359,-1,-3,-1,-1,-2,0,-1,-1,7,17,-6,-11,-20,-15,-8,6,-5.4375,-5.4375,-5.4375,-20.125,-20.125,-20.125,3.06158,3.277737,6.754253,6.335528,4.994921,8.862931,-0.03782149,-0.5023007,1.555958,0.1666716,-0.07017272,1.538048,0.2348432,0.3331159,1.688248,-0.07692869,-0.4955593,1.561227,0.1746096,-0.004803636,1.544583,0.2186228,-0.1143263,1.70283,0.2045629,-0.4236789,1.692556,0.04692828,0.06437373,1.670096,0.1287707,-0.4142756,1.668008,0.003430933,-0.1961669,1.662388,0.4337794,-0.108571,1.55304,NA,NA,Unknown,Unknown,
0.9091797,-0.4614258,0.1928711,-0.3842773,0.6655273,0.6132813,0,-1,0,1,-2,-2,-2,0,-29,-14,-8,-15,-19,-4,-4,-2,1.25,1.25,1.25,-4.75,-4.75,-4.75,3.044674,3.27431,6.769656,6.306464,4.988733,8.731871,-0.04205671,-0.5050114,1.555445,0.2230631,-0.08502038,1.522236,0.2338454,0.3327156,1.686612,-0.08069229,-0.4894448,1.56052,0.2195034,-0.02457848,1.538984,0.2180474,-0.1145158,1.702049,0.2043972,-0.4236484,1.691784,0.04668133,0.06401373,1.669416,0.1284612,-0.4141931,1.666691,0.001612611,-0.1953726,1.661916,0.4415415,-0.1087699,1.559652,NA,NA,Unknown,Unknown,
0.9306641,-0.3974609,0.1386719,-0.2666016,0.6738281,0.6479492,-1,0,-1,-1,0,-1,-2,-2,-3,0,5,7,34,17,6,-5,7.0625,7.0625,7.0625,-9.0625,-9.0625,-9.0625,3.056505,3.271206,6.766088,6.29807,5.031755,8.711952,-0.04242206,-0.5054618,1.55591,0.1706651,-0.08075842,1.528115,0.2334057,0.3321684,1.685728,-0.08155861,-0.4919459,1.563297,0.1703688,-0.0157919,1.532317,0.2176425,-0.1160632,1.699642,0.2044982,-0.4237283,1.690997,0.04653164,0.06361113,1.668663,0.1285573,-0.4141206,1.665129,7.464273E-05,-0.1956452,1.660407,0.4413253,-0.1102029,1.560759,NA,NA,Unknown,Unknown,
0.8813477,-0.425293,0.1835938,-0.1655273,0.7661133,0.7470703,1,-2,-2,0,0,-1,-1,0,4,-15,-6,-9,-2,-12,-4,3,-6.1875,-6.1875,-6.1875,-17.25,-17.25,-17.25,3.094285,3.268348,6.711053,6.261206,5.116529,8.710939,-0.03990803,-0.5034074,1.55428,0.1609739,-0.07714459,1.524735,0.2332692,0.3321652,1.685106,-0.08115191,-0.5080432,1.565333,0.1563806,-0.01593494,1.518878,0.2176063,-0.1159278,1.699501,0.2046922,-0.4236452,1.6905,0.04640864,0.06342575,1.668097,0.1288605,-0.4139394,1.664,-0.000473,-0.1951944,1.659363,0.4356656,-0.1127296,1.561479,NA,NA,Unknown,Unknown,
0.8896484,-0.4321289,0.2084961,-0.2529297,0.8457031,0.8076172,-2,-3,0,-2,-1,0,-4,-1,22,1,4,0,-31,3,3,0,-8.875,-8.875,-8.875,-3.9375,-3.9375,-3.9375,3.127078,3.27088,6.659792,6.25067,5.234074,8.760037,-0.0341046,-0.5016502,1.551373,0.119726,-0.04010782,1.530627,0.2333991,0.3321958,1.684792,-0.07512729,-0.5082285,1.560411,0.1450404,0.01657164,1.549867,0.2175502,-0.11576,1.699442,0.2046732,-0.4234987,1.690173,0.04635508,0.06311568,1.6675,0.1288874,-0.4136641,1.663545,-0.0002829921,-0.1955195,1.658581,0.4223219,-0.1152054,1.558354,NA,NA,Unknown,Unknown,
0.8896484,-0.4487305,0.171875,-0.4204102,0.8349609,0.7460938,-1,-1,-2,-1,-2,-1,-2,0,9,2,-8,3,22,2,0,0,-18.125,-18.125,-18.125,14.5,14.5,14.5,3.145847,3.266644,6.603075,6.290673,5.363735,8.853582,-0.02670827,-0.5026256,1.551257,0.1566014,-0.05071713,1.523901,0.2337992,0.3321616,1.684543,-0.06905972,-0.5108442,1.55832,0.182678,-0.03373618,1.473139,0.217531,-0.1156256,1.699399,0.2045598,-0.4232463,1.689861,0.04685755,0.0638108,1.667472,0.1288612,-0.4134057,1.663474,0.001456434,-0.19576,1.657691,0.4022695,-0.1156098,1.548953,NA,NA,Unknown,Unknown,
0.8989258,-0.4414063,0.1665039,-0.02636719,0.8378906,0.8007813,-1,-4,-1,0,0,-2,0,-1,-3,-6,8,8,1,0,2,-4,-21.625,-21.625,-21.625,29.5625,29.5625,29.5625,3.146475,3.259124,6.563302,6.346303,5.45016,8.947766,-0.01972753,-0.5036339,1.553,0.11152,0.0003490724,1.53146,0.2352289,0.3319032,1.684834,-0.06300808,-0.5049145,1.564207,0.1459203,0.04408684,1.559727,0.2176147,-0.1156439,1.699482,0.2044784,-0.4233029,1.689805,0.04641793,0.06365277,1.666552,0.1287954,-0.4134414,1.663674,0.004287495,-0.1956085,1.657032,0.3866499,-0.1114787,1.536018,NA,NA,Unknown,Unknown,
0.8911133,-0.4443359,0.1601563,-0.02636719,0.8378906,0.8007813,-1,-1,-2,-3,-2,-1,-3,1,-40,-11,12,-5,18,8,-3,-8,-16.8125,-16.8125,-16.8125,29.5625,29.5625,29.5625,3.140504,3.253548,6.530193,6.346303,5.45016,8.947766,-0.01415257,-0.5017762,1.550737,0.1107631,0.01259423,1.542875,0.2371989,0.3316567,1.684693,-0.05752109,-0.509973,1.561,0.1530368,0.05457601,1.5585,0.2178628,-0.1157759,1.699447,0.2045945,-0.4235888,1.689514,0.04743687,0.06217146,1.661678,0.128869,-0.4136527,1.663779,0.006956752,-0.1934655,1.655521,0.3695959,-0.1007609,1.515607,NA,NA,Closed,Unknown,
0.8852539,-0.4287109,0.1430664,-0.2451172,0.730957,0.5849609,-1,-1,0,-3,-1,-1,1,-1,-83,-21,-4,-5,-13,-3,-7,-53,-1.8125,-1.8125,-1.8125,35.375,35.375,35.375,3.143466,3.254414,6.512846,6.66766,5.738146,9.410891,-0.00987203,-0.5014465,1.550751,0.1214112,0.01924134,1.55202,0.2394266,0.3315114,1.684606,-0.0530123,-0.5042539,1.557286,0.1693487,0.06070862,1.559733,0.2182041,-0.1157828,1.699463,0.2047802,-0.4238359,1.689283,0.04886041,0.06159709,1.65814,0.1289938,-0.4139505,1.663858,0.008948168,-0.192942,1.654863,0.3553462,-0.09299068,1.503596,NA,NA,Unknown,Unknown,
0.8774414,-0.4204102,0.1518555,-0.2236328,0.6933594,0.4418945,-5,-2,0,-1,-2,-1,-2,-2,29,12,7,9,17,0,10,-1,-0.25,-0.25,-0.25,17,17,17,3.143719,3.259104,6.510201,6.790024,5.774997,9.612714,-0.007627138,-0.5005134,1.549291,0.1315209,0.01594935,1.554524,0.2412453,0.3316078,1.684516,-0.05265754,-0.5045604,1.556926,0.1800889,0.06000956,1.5599,0.2187226,-0.1157396,1.699495,0.2048091,-0.424045,1.689091,0.04940039,0.06139567,1.656511,0.1290007,-0.4142002,1.663958,0.01072997,-0.1921317,1.654287,0.3469947,-0.08862706,1.497146,NA,NA,Closed,NotTracked,
0.8774414,-0.4384766,0.175293,-0.3525391,0.7202148,0.3920898,0,-1,-2,-2,-2,-3,-1,1,-20,-7,-12,2,10,-11,-5,-35,1.4375,1.4375,1.4375,-3.375,-3.375,-3.375,3.136551,3.262114,6.516883,6.823617,5.73998,9.707968,-0.007233388,-0.5010048,1.548892,0.1617557,-0.007414433,1.546646,0.2423685,0.3315529,1.684662,-0.04996486,-0.499451,1.554198,0.2048265,0.04490381,1.55134,0.2190017,-0.1157528,1.699497,0.2047894,-0.4242135,1.688849,0.04958507,0.06131001,1.655972,0.1289815,-0.4144285,1.664013,0.01183117,-0.1909364,1.653946,0.3423178,-0.08903724,1.493873,NA,NA,Closed,Unknown,
0.8896484,-0.4257813,0.1865234,-0.3642578,0.7368164,0.3964844,-1,-1,-1,0,-1,1,-1,-2,-13,-5,-14,-7,-13,-6,-18,-2,3.6875,3.6875,3.6875,-15.875,-15.875,-15.875,3.119159,3.259477,6.546712,6.806285,5.679345,9.733708,-0.008396352,-0.5018224,1.54952,0.1457449,0.0006913637,1.554766,0.2431393,0.3313518,1.68472,-0.05338363,-0.5034769,1.556865,0.1851402,0.0523234,1.558531,0.21923,-0.1158073,1.69947,0.2048044,-0.4243577,1.688587,0.049619,0.0612325,1.65592,0.1290044,-0.4146072,1.664093,0.01266662,-0.1908568,1.653808,0.3410073,-0.08996557,1.493322,NA,NA,Closed,NotTracked,
0.8852539,-0.4208984,0.1777344,-0.3369141,0.7856445,0.3916016,0,-1,-2,-2,-1,-1,-1,-2,3,11,8,8,24,5,-17,15,2.5625,2.5625,2.5625,-22,-22,-22,3.10047,3.254389,6.574748,6.769259,5.540737,9.75945,-0.01005596,-0.5018314,1.552775,0.1490823,-0.003438817,1.558171,0.2435284,0.3312706,1.684717,-0.05174042,-0.4910038,1.555291,0.1820427,0.05430944,1.559389,0.2195134,-0.1158394,1.699357,0.2048308,-0.4244384,1.688409,0.04938433,0.06107446,1.656291,0.1290485,-0.4147797,1.664292,0.01337202,-0.1920307,1.653746,0.3405617,-0.09018803,1.493465,NA,NA,Closed,NotTracked,
0.8364258,-0.5053711,0.2016602,-0.3056641,0.8393555,0.3120117,-1,-2,-1,-1,1,-1,0,-2,-10,6,-2,-9,-12,6,5,1,15.5625,15.5625,15.5625,22.75,22.75,22.75,3.074706,3.254448,6.671486,6.776963,5.140195,9.781572,-0.01210631,-0.5021289,1.555776,0.1573923,-0.01109287,1.570835,0.2440841,0.3313535,1.684581,-0.0442929,-0.5008274,1.54273,0.1888794,0.05268608,1.556924,0.2200163,-0.1156907,1.699229,0.2048962,-0.4243891,1.688156,0.05470018,0.06915972,1.669523,0.1291697,-0.4147375,1.664402,0.01438903,-0.2039909,1.648171,0.3415408,-0.0920525,1.495648,NA,NA,Closed,NotTracked,
0.9487305,-0.3681641,0.1289063,0.1289063,0.9995117,0.7451172,-1,-3,-2,-2,-1,-3,-1,-3,10,4,17,7,-9,-14,-19,-4,27.875,27.875,27.875,-16.3125,-16.3125,-16.3125,3.06596,3.241572,6.72633,6.755106,4.983837,9.753718,-0.01414751,-0.5042979,1.556106,0.1604912,-0.01267787,1.576076,0.2443116,0.3312228,1.684526,-0.05154647,-0.4968965,1.552727,0.1951983,0.04965279,1.55558,0.2200661,-0.1157859,1.699242,0.2048285,-0.4246464,1.68805,0.05604352,0.06985576,1.672389,0.129218,-0.4149795,1.664393,0.01550913,-0.2028898,1.639716,0.3429771,-0.09570421,1.500408,NA,NA,Unknown,NotTracked,
0.8847656,-0.5117188,0.2084961,-0.3076172,0.9477539,0.2319336,0,-2,-1,0,0,-2,0,-1,17,-6,-1,3,33,-11,1,-5,-23.5625,-23.5625,-23.5625,-2.5625,-2.5625,-2.5625,3.070472,3.266957,6.710938,6.713277,4.875739,9.730013,-0.01422942,-0.5053691,1.56058,0.160713,-0.0151225,1.576578,0.2443518,0.3311253,1.684645,-0.0473481,-0.5005782,1.547054,0.1947453,0.04879317,1.555166,0.2200841,-0.1159835,1.69926,0.2046519,-0.4251996,1.687773,0.05513837,0.06857131,1.672953,0.1291469,-0.4155264,1.664239,0.01652098,-0.2043001,1.638028,0.343769,-0.09728242,1.502649,NA,NA,Closed,NotTracked,
0.8916016,-0.4633789,0.1933594,0.5512695,0.9741211,0.690918,0,-2,-3,0,-2,1,-1,1,35,20,18,10,26,-1,7,16,-0.5,-0.5,-0.5,-8.3125,-8.3125,-8.3125,3.082101,3.259623,6.702269,6.699332,4.87897,9.730001,-0.01325065,-0.504548,1.561579,0.1606087,-0.0160444,1.576751,0.2442995,0.3310995,1.684675,-0.04642401,-0.5001757,1.546441,0.1946142,0.04891207,1.554806,0.2200862,-0.1160738,1.699319,0.2045595,-0.4255847,1.687645,0.05484419,0.06807704,1.673499,0.1290806,-0.4159757,1.664209,0.01701013,-0.2047894,1.636964,0.3443121,-0.09799737,1.503489,NA,NA,Unknown,NotTracked,
0.8945313,-0.4165039,0.1606445,-0.03613281,0.9233398,0.1977539,-2,0,0,-2,-1,0,0,-3,4,5,-1,-5,-14,2,-20,-14,-3.125,-3.125,-3.125,5.4375,5.4375,5.4375,3.099952,3.269439,6.686524,6.714096,4.887241,9.730296,-0.0134838,-0.5048136,1.559757,0.1606768,-0.01655214,1.576314,0.2442533,0.3311064,1.684785,-0.04229915,-0.5015098,1.536719,0.1931332,0.04847938,1.555732,0.2200368,-0.1161191,1.699399,0.2044604,-0.4256709,1.687665,0.05531281,0.0690451,1.675123,0.1290355,-0.4160728,1.664281,0.01760358,-0.2036842,1.636414,0.3445931,-0.09829873,1.503831,NA,NA,Unknown,NotTracked,
0.8920898,-0.4165039,0.1728516,-0.3710938,0.7446289,0.3120117,-1,-3,-2,-1,-1,-1,0,-1,-7,-2,-5,-10,-27,-12,-12,6,0.8125,0.8125,0.8125,-2.4375,-2.4375,-2.4375,3.107454,3.277995,6.674621,6.736765,4.943629,9.724077,-0.01370753,-0.5049351,1.556579,0.1602205,-0.01854391,1.576451,0.244193,0.3311339,1.68491,-0.05749734,-0.5020791,1.563686,0.1937682,0.0491515,1.556343,0.2200236,-0.1161693,1.699468,0.204396,-0.4258158,1.687636,0.05398532,0.06773318,1.673994,0.1289993,-0.4162416,1.664324,0.01746679,-0.205186,1.635798,0.3447493,-0.09837379,1.50421,NA,NA,Unknown,NotTracked,
0.8876953,-0.4155273,0.168457,0.04882813,0.8813477,0.4829102,-1,-1,-3,0,-2,-3,-3,-1,32,-7,-10,-9,5,5,11,-14,-5.625,-5.625,-5.625,0.375,0.375,0.375,3.118043,3.282286,6.653458,6.723295,4.944895,9.716467,-0.01324962,-0.5047983,1.55389,0.1604945,-0.01860481,1.577118,0.2441715,0.3309236,1.685536,-0.0427491,-0.5051418,1.537948,0.1930438,0.049429,1.556517,0.2201171,-0.1164373,1.699858,0.2043654,-0.4260944,1.687706,0.05340263,0.06682459,1.673717,0.129028,-0.4166075,1.664482,0.01718435,-0.2061262,1.635519,0.3448148,-0.09907444,1.505041,NA,NA,Closed,NotTracked,
0.8979492,-0.4130859,0.1782227,0.07470703,0.8500977,0.4980469,-1,-2,-1,-1,-1,-2,-1,0,21,0,0,-2,5,-1,6,5,-11.125,-11.125,-11.125,-8.4375,-8.4375,-8.4375,3.12552,3.281028,6.627384,6.710213,4.951644,9.693068,-0.01261068,-0.5035254,1.552775,0.1602199,-0.01957913,1.578323,0.2443684,0.3308093,1.686336,-0.04041674,-0.5084755,1.532663,0.1915082,0.04780628,1.55814,0.2201072,-0.1166309,1.700137,0.2042413,-0.4263143,1.687777,0.05484517,0.06775209,1.675826,0.1289766,-0.4167689,1.664547,0.01758108,-0.2048943,1.635496,0.3449903,-0.09968346,1.505747,NA,NA,Unknown,NotTracked,
0.9145508,-0.4150391,0.1313477,0.1738281,0.8330078,0.4804688,-2,-1,-2,0,-2,-1,0,-2,12,13,12,11,2,0,6,9,-6.1875,-6.1875,-6.1875,-20.5625,-20.5625,-20.5625,3.14878,3.287358,6.580842,6.682384,4.972244,9.642684,-0.01055349,-0.5026248,1.551929,0.1601203,-0.02055479,1.576555,0.2444276,0.3308,1.686562,-0.05478305,-0.5055645,1.557667,0.1896121,0.0493259,1.558252,0.2202264,-0.1167468,1.700496,0.2041809,-0.4265541,1.68802,0.05406969,0.06693403,1.67489,0.1289809,-0.4170197,1.664788,0.01728593,-0.2058231,1.635173,0.3460478,-0.1006369,1.50726,NA,NA,Closed,NotTracked,
0.8920898,-0.3681641,0.1645508,0.2792969,0.6772461,0.4199219,-1,-3,-1,-1,-2,0,-2,0,-4,-4,-4,-7,-4,-3,-5,-2,-24.6875,-24.6875,-24.6875,-46.25,-46.25,-46.25,3.231105,3.307741,6.447176,6.62284,5.00952,9.525941,-0.007279816,-0.500727,1.547464,0.1678866,-0.03418158,1.565957,0.2444643,0.3308696,1.686667,-0.05045919,-0.5074056,1.552211,0.2116258,0.03541962,1.553,0.2201674,-0.1167992,1.700639,0.2040048,-0.4267206,1.688156,0.05369641,0.06682924,1.675234,0.1288549,-0.4171847,1.664839,0.01714787,-0.2059185,1.635044,0.3519629,-0.1043473,1.512583,NA,NA,Closed,NotTracked,
0.8935547,-0.4365234,0.2543945,0.2236328,0.6274414,0.5703125,-1,-3,0,0,0,1,-1,-3,2,8,4,17,47,0,-2,-2,-8.75,-8.75,-8.75,-60.3125,-60.3125,-60.3125,3.30655,3.334223,6.326962,6.549866,5.031849,9.392416,0.0008489678,-0.4995755,1.543897,0.1456988,-0.1040815,1.540522,0.2443186,0.3310135,1.686843,-0.0420396,-0.514061,1.548917,0.1418614,-0.04207044,1.554172,0.2200495,-0.1168462,1.700831,0.2037704,-0.4267958,1.688413,0.05433509,0.06760811,1.678568,0.1287599,-0.4172182,1.664897,0.01717556,-0.2050388,1.638196,0.3667909,-0.1117456,1.52649,NA,NA,Closed,Unknown,
0.8427734,-0.4555664,0.3081055,0.1118164,0.5986328,0.769043,-1,-1,-2,-1,-1,1,1,0,-10,-11,5,-1,3,-2,-4,-4,1.0625,1.0625,1.0625,-86.9375,-86.9375,-86.9375,3.39736,3.358289,6.221034,6.363793,5.001909,9.05189,0.01008121,-0.4977306,1.541656,0.1152874,-0.1389171,1.518726,0.2438167,0.3307754,1.6869,-0.03169258,-0.4948743,1.540547,0.1296098,-0.08137529,1.555208,0.2197617,-0.1171566,1.700885,0.2036095,-0.4271637,1.688417,0.05162909,0.06473213,1.676175,0.1285746,-0.4176053,1.664644,0.01449124,-0.2086199,1.647751,0.3877563,-0.1288534,1.543849,NA,NA,Unknown,Unknown,
0.8251953,-0.4570313,0.3071289,0.02880859,0.6308594,0.8588867,0,0,-1,-1,-2,0,1,0,1,-3,-3,-2,5,-1,2,0,-4.375,-4.375,-4.375,-79.0625,-79.0625,-79.0625,3.47194,3.373518,6.13545,6.23633,4.827075,8.774451,0.01757338,-0.4958506,1.54644,0.1595613,-0.2005242,1.499941,0.2427284,0.3308038,1.686603,-0.02205089,-0.5058988,1.551906,0.1570812,-0.1404278,1.533349,0.2193079,-0.117237,1.7007,0.2034217,-0.4271988,1.687943,0.05201715,0.06577508,1.682083,0.1282952,-0.4176801,1.66359,0.01073764,-0.1993981,1.666771,0.4183041,-0.1317188,1.577433,NA,NA,Unknown,Unknown,
0.8486328,-0.4555664,0.3041992,0.05712891,0.6245117,0.9106445,-1,-3,-1,-3,-2,-3,-1,-2,-11,-11,-3,-3,-1,-1,-1,-26,-7.1875,-7.1875,-7.1875,-80.375,-80.375,-80.375,3.49234,3.368008,6.09812,6.147116,4.547652,8.526388,0.02287075,-0.494499,1.553717,0.2139746,-0.2676191,1.485165,0.2412083,0.3310307,1.68567,-0.0156252,-0.5029354,1.55695,0.1891952,-0.2348789,1.446645,0.2191481,-0.1174036,1.700189,0.203505,-0.4276043,1.687294,0.05191963,0.06642885,1.684314,0.1283525,-0.4182738,1.661964,0.01180133,-0.1948978,1.672408,0.4363908,-0.1355443,1.607709,NA,NA,Unknown,Unknown,
0.8671875,-0.3613281,0.284668,0.1586914,0.6225586,0.8652344,0,-2,-2,-1,-1,-2,-1,0,-8,-1,1,5,-4,1,1,19,-21.4375,-21.4375,-21.4375,-71.875,-71.875,-71.875,3.49456,3.341766,6.070844,6.114316,4.334312,8.379612,0.02594544,-0.4941044,1.563702,0.2690804,-0.3375729,1.501562,0.2396643,0.3312691,1.684275,-0.01246525,-0.5064915,1.568741,0.2315883,-0.2990172,1.482512,0.2185218,-0.1176468,1.699312,0.2035953,-0.4282045,1.686422,0.0515803,0.06659695,1.685207,0.1282983,-0.4187756,1.660394,0.01154272,-0.1934475,1.676636,0.4473812,-0.1390404,1.630533,NA,NA,Unknown,Open,
0.8354492,-0.4160156,0.3051758,0.3178711,0.6401367,0.7617188,0,-3,-2,-1,1,1,0,1,10,14,4,1,8,-1,1,-3,-26.5625,-26.5625,-26.5625,-60.3125,-60.3125,-60.3125,3.48199,3.318434,6.051688,6.101951,3.915376,8.15572,0.02688092,-0.4937155,1.571488,0.3039515,-0.3939046,1.517967,0.2380816,0.3312399,1.682215,-0.01496335,-0.4980926,1.572667,0.3386655,-0.4258239,1.493169,0.2165665,-0.1183172,1.697464,0.2005486,-0.4296161,1.6845,0.05136546,0.06658359,1.6853,0.1243336,-0.4189831,1.657681,0.01154935,-0.1934481,1.678522,0.4493654,-0.1486281,1.64704,NA,NA,Unknown,Unknown,
0.8764648,-0.3754883,0.2895508,0.5961914,0.5307617,0.6469727,-2,1,-2,1,-1,-1,-1,1,4,-1,-2,-1,-1,2,-1,-4,-3.3125,-3.3125,-3.3125,-46.3125,-46.3125,-46.3125,3.458703,3.257738,6.044924,6.17904,3.489505,7.876378,0.02811528,-0.4931435,1.582917,0.3566075,-0.4341262,1.54391,0.2366178,0.3311175,1.68078,-0.01547029,-0.4974538,1.580172,0.3911735,-0.4525112,1.53725,0.2159621,-0.1189051,1.696421,0.2003982,-0.4307815,1.683189,0.05118624,0.0663501,1.685227,0.1240055,-0.4197757,1.655818,0.01164049,-0.1942277,1.680579,0.4437229,-0.1716741,1.658964,NA,NA,Unknown,Unknown,
0.9282227,-0.359375,0.2587891,0.9038086,0.5532227,0.4350586,1,0,-2,0,-1,1,1,1,35,3,1,2,3,-2,0,1,-5.5625,-5.5625,-5.5625,-68.5625,-68.5625,-68.5625,3.433433,3.218312,6.066685,6.332846,3.277427,7.595651,0.02908452,-0.4942946,1.592131,0.3834381,-0.4917364,1.565129,0.2356213,0.3308892,1.679554,-0.01606824,-0.4897152,1.591242,0.42367,-0.5009521,1.55808,0.2166067,-0.1195367,1.695425,0.2037294,-0.4321785,1.681776,0.05113366,0.0660047,1.684645,0.1273822,-0.4217133,1.653728,0.01197375,-0.1955841,1.682148,0.4363074,-0.1894672,1.661797,NA,NA,Unknown,NotTracked,
0.9389648,-0.3535156,0.190918,1.227539,0.3588867,0.03564453,0,-2,-2,-2,0,-1,-1,-1,14,1,-2,0,0,-2,-6,-40,1,1,1,-41.0625,-41.0625,-41.0625,3.3947,3.177023,6.10164,6.542359,3.119414,7.249121,0.02941539,-0.4939402,1.599832,0.405113,-0.5084449,1.588905,0.235131,0.3308375,1.67877,-0.01417546,-0.4964504,1.599467,0.4445678,-0.5092373,1.580154,0.2175349,-0.1198153,1.694745,0.207573,-0.4329035,1.681161,0.05121065,0.06583729,1.684014,0.1312191,-0.4228658,1.652761,0.01243395,-0.1968536,1.68291,0.432212,-0.1986089,1.661599,NA,NA,Unknown,NotTracked,
