ALX,ALY,ALZ,ARX,ARY,ARZ,EMG0L,EMG1L,EMG2L,EMG3L,EMG4L,EMG5L,EMG6L,EMG7L,EMG0R,EMG1R,EMG2R,EMG3R,EMG4R,EMG5R,EMG6R,EMG7R,GLX,GLY,GLZ,GRX,GRY,GRZ,ORL,OPL,OYL,ORR,OPR,OYR,LHNX,LHNY,LHNZ,RHNX,RHNY,RHNZ,HX,HY,HZ,LTX,LTY,LTZ,RTX,RTY,RTZ,SpineMidX,SpineMidY,SpineMidZ,SpineBaseX,SpineBaseY,SpineBaseZ,ShoulderLeftX,ShoulderLeftY,ShoulderLeftZ,ShoulderRightX,ShoulderRightY,ShoulderRightZ,ElbowLeftX,ElbowLeftY,ElbowLeftZ,ElbowRightX,ElbowRightY,ElbowRightZ,Myo_Pose_left,Myo_Pose_Right,Kinect_pose_left,Kinect_pose_right
0.9165039,-0.3505859,0.2270508,0.5776367,0.6166992,0.7578125,0,1,1,0,-1,-1,0,-1,-2,-2,-29,-7,-1,-5,-9,0,-6.3125,-6.3125,-6.3125,91.6875,91.6875,91.6875,3.374655,3.159261,5.011878,6.194558,3.870827,8.375664,0.02911559,-0.5008579,1.588645,0.2891135,-0.3540197,1.496442,0.2315662,0.330918,1.68003,-0.01750688,-0.5046966,1.589776,0.3328056,-0.4174461,1.52984,0.2147504,-0.1199001,1.688923,0.1996977,-0.4320245,1.673333,0.04792903,0.06587981,1.675495,0.1226252,-0.4198062,1.644039,0.01223036,-0.1974175,1.675204,0.4441067,-0.1542482,1.645883,NA,NA,NotTracked,Closed,
0.9135742,-0.3413086,0.2192383,0.269043,0.6391602,0.8007813,-2,1,-1,-1,-2,-1,0,1,0,-6,-18,-22,-9,-4,-2,-4,-9.3125,-9.3125,-9.3125,73.6875,73.6875,73.6875,3.361813,3.163353,5.00747,6.187716,4.194172,8.625086,0.02901999,-0.5017002,1.589435,0.2296622,-0.2733461,1.49141,0.2320219,0.3309774,1.680873,-0.01722296,-0.5017518,1.590897,0.2348984,-0.3486642,1.509533,0.2145776,-0.1196658,1.689509,0.1997745,-0.4316584,1.673838,0.04812852,0.06597235,1.675695,0.1229967,-0.4195037,1.64497,0.01241645,-0.1967596,1.675238,0.4459515,-0.1413829,1.628215,NA,NA,NotTracked,Unknown,
0.9204102,-0.3461914,0.2050781,0.02001953,0.6381836,0.7661133,-1,-1,-3,-1,-1,-3,-1,-2,15,4,-1,-1,1,-1,0,2,-9.75,-9.75,-9.75,105.0625,105.0625,105.0625,3.347577,3.165609,5.004346,6.252818,4.606107,8.954575,0.02990474,-0.5010325,1.588194,0.1506172,-0.2125245,1.488896,0.2328235,0.3308575,1.682182,-0.01701856,-0.5024179,1.590544,0.1600596,-0.2754397,1.521,0.2146255,-0.1192278,1.690257,0.1998489,-0.4308228,1.674231,0.04853745,0.06619304,1.676081,0.1232028,-0.4189256,1.645718,0.01277049,-0.1960042,1.675031,0.4372092,-0.1280605,1.593179,NA,NA,NotTracked,Unknown,
0.9199219,-0.3579102,0.1875,0.02001953,0.6293945,0.7734375,-2,-2,-3,-1,-1,0,-1,-1,2,-1,9,4,0,0,1,3,-4.5625,-4.5625,-4.5625,90.25,90.25,90.25,3.324476,3.172928,5.012249,6.368608,4.836181,9.178211,0.0303763,-0.5005808,1.586674,0.1165388,-0.1622621,1.497814,0.2337349,0.331176,1.683518,-0.01680565,-0.5026524,1.590377,0.09492262,-0.133638,1.44955,0.2148603,-0.1185384,1.69076,0.1999222,-0.4291231,1.67439,0.04921675,0.06653649,1.676611,0.1234594,-0.4174044,1.646729,0.01279911,-0.19818,1.673129,0.4210645,-0.1239409,1.552698,NA,NA,NotTracked,Unknown,
0.8979492,-0.3686523,0.1914063,0.04785156,0.7407227,0.7441406,0,0,0,0,0,-1,-2,1,-26,-18,-10,2,12,-6,-6,-5,2.875,2.875,2.875,90.0625,90.0625,90.0625,3.313982,3.180208,5.026062,6.507542,4.972532,9.368098,0.03116942,-0.5003242,1.585997,0.1026114,-0.1254068,1.509008,0.2349278,0.3309576,1.685315,-0.01426167,-0.5060874,1.58617,0.118448,-0.08326401,1.5435,0.2152447,-0.1177882,1.691303,0.1999297,-0.4274154,1.674778,0.0473998,0.0674727,1.676157,0.1238894,-0.4160514,1.64775,0.01623566,-0.2066758,1.662013,0.391028,-0.1151106,1.522866,NA,NA,Unknown,Unknown,
0.9057617,-0.3823242,0.2177734,0.08935547,0.7314453,0.6762695,0,-1,-1,-2,0,0,-1,-2,-6,-17,2,-1,-14,-7,4,-9,1.0625,1.0625,1.0625,68.125,68.125,68.125,3.306776,3.185674,5.038742,6.614677,5.027703,9.506803,0.03147873,-0.5010002,1.586594,0.1065189,-0.109206,1.513059,0.2361583,0.3309283,1.686732,-0.01400738,-0.5009138,1.588695,0.1238098,-0.1496039,1.556561,0.2157767,-0.1170086,1.691967,0.2004972,-0.425842,1.6752,0.04653638,0.0679792,1.675965,0.1249997,-0.4145801,1.649521,0.0172347,-0.2064022,1.659891,0.3657741,-0.1014745,1.505784,NA,NA,Unknown,Unknown,
0.9038086,-0.3730469,0.1977539,0.02099609,0.8022461,0.6577148,-2,0,-1,-1,-3,-1,-1,-1,18,-32,-17,-12,-17,10,1,-3,-12.8125,-12.8125,-12.8125,61.1875,61.1875,61.1875,3.283021,3.182555,5.050533,6.700056,5.039838,9.61767,0.0321779,-0.4990762,1.58754,0.03980635,-0.08072423,1.512037,0.2372814,0.3308843,1.687885,-0.01396463,-0.5003726,1.588575,0.01047243,-0.04719619,1.503606,0.2163348,-0.1162519,1.692473,0.2009091,-0.4243748,1.675614,0.05030163,0.06946589,1.678225,0.1260688,-0.4129538,1.652328,0.01239695,-0.2037493,1.650928,0.3486892,-0.09160351,1.49058,NA,NA,Unknown,Unknown,
0.9204102,-0.3901367,0.1992188,0.05664063,0.8525391,0.5429688,-1,-1,-1,-1,-1,-1,-2,-2,12,20,2,-5,10,-8,1,-6,-33.125,-33.125,-33.125,40.6875,40.6875,40.6875,3.222564,3.168562,5.051478,6.742956,5.035498,9.684377,0.03283004,-0.4993997,1.587346,0.03109758,-0.07215802,1.517439,0.2381614,0.3309015,1.688647,-0.01410893,-0.5026343,1.588673,0.08502032,-0.03888971,1.547123,0.2169366,-0.1154659,1.692832,0.2015276,-0.4228884,1.675815,0.05225903,0.07064916,1.679246,0.1269505,-0.4119112,1.653546,0.008900445,-0.1956957,1.650475,0.3297853,-0.08164334,1.480347,NA,NA,Unknown,Unknown,
0.9248047,-0.3603516,0.1933594,-0.04296875,0.9169922,0.4765625,-2,-1,-2,-1,-1,-1,-2,-1,21,-12,-5,3,6,14,10,-32,-36.1875,-36.1875,-36.1875,66.9375,66.9375,66.9375,3.16093,3.159008,5.059666,6.838394,5.022387,9.833581,0.03303121,-0.4997401,1.586506,0.02594332,-0.06466465,1.525723,0.2390312,0.3308702,1.689011,-0.01397163,-0.5060725,1.588294,0.01599872,-0.05269135,1.497081,0.2177772,-0.1146028,1.693121,0.2020254,-0.4218091,1.676037,0.05345433,0.07174449,1.679737,0.1276604,-0.4112401,1.655008,0.002545458,-0.1837242,1.649013,0.2590411,-0.0552845,1.486377,NA,NA,Unknown,Unknown,
0.902832,-0.3579102,0.05712891,0.140625,0.7070313,0.434082,-2,-1,-2,-2,0,-2,-2,-3,14,21,-5,-11,-45,-3,1,-1,-8.375,-8.375,-8.375,51.9375,51.9375,51.9375,3.062623,3.15883,5.114356,6.887699,4.997906,9.923837,0.0332277,-0.493938,1.585099,0.03126211,-0.05743581,1.531995,0.2396943,0.3306589,1.688998,-0.01282225,-0.4962091,1.585281,0.0404865,-0.03069803,1.524055,0.2181213,-0.1141478,1.692989,0.2025207,-0.4211854,1.675896,0.0537976,0.07233049,1.679919,0.1280832,-0.4111335,1.655496,-0.0005591148,-0.169383,1.646289,0.2641434,-0.05249423,1.482133,NA,NA,Unknown,Unknown,
0.9165039,-0.3671875,0.1264648,0.2045898,0.8310547,0.2739258,0,-2,-2,-1,-1,1,-2,1,-43,-27,-14,-4,-2,-24,-5,-13,1.125,1.125,1.125,14.5,14.5,14.5,3.063447,3.151486,5.110292,6.997002,4.898551,0.162368,0.0349766,-0.4992425,1.583313,-0.01172468,-0.05959238,1.572117,0.2401931,0.3304685,1.688901,-0.0109942,-0.5087962,1.59005,-0.03281932,-0.04326973,1.547882,0.2184012,-0.1137302,1.692698,0.2029515,-0.4206502,1.675621,0.05350302,0.07277592,1.679939,0.1283794,-0.4109625,1.655767,0.00490606,-0.1845301,1.645008,0.2661505,-0.05152162,1.47729,NA,NA,Unknown,Unknown,
0.9189453,-0.3808594,0.1220703,0.262207,0.8076172,0.3476563,0,-2,0,-1,-1,-3,1,-1,6,28,3,3,-3,-3,-5,13,17.875,17.875,17.875,-21.0625,-21.0625,-21.0625,3.07297,3.145528,5.116705,6.98164,4.879881,0.1822647,0.03457904,-0.4911449,1.585589,-0.008428229,-0.06128534,1.574935,0.2406771,0.3304466,1.68881,-0.01227777,-0.5010397,1.589114,-0.04411199,-0.08946402,1.565697,0.2185915,-0.1134226,1.692399,0.2031308,-0.4204065,1.675369,0.05337768,0.0730283,1.679953,0.1285069,-0.4109247,1.655903,0.0005828276,-0.1669673,1.647542,0.2660201,-0.05204935,1.476867,NA,NA,Unknown,Unknown,
0.9199219,-0.3642578,0.1376953,0.3266602,0.7734375,0.5932617,0,0,0,-2,-2,0,-1,0,-15,15,-5,-8,-3,12,1,-2,31.875,31.875,31.875,-38.6875,-38.6875,-38.6875,3.111504,3.143605,5.127167,6.939217,4.877397,0.1305125,0.03331676,-0.4909382,1.586858,-0.006026527,-0.06393461,1.570883,0.2408202,0.330456,1.688568,-0.01363242,-0.4985706,1.592051,0.02613506,-0.09408429,1.61075,0.2187621,-0.1131593,1.692256,0.2031488,-0.4201578,1.675214,0.05015606,0.07319377,1.678474,0.1285143,-0.4108692,1.655987,0.0004315106,-0.1663265,1.647579,0.2621631,-0.05276305,1.480555,NA,NA,Unknown,Unknown,
0.9287109,-0.3442383,0.1274414,-0.1381836,0.6083984,0.1469727,0,-1,-1,-2,-1,-3,-3,0,1,-9,4,6,3,-2,3,0,33.4375,33.4375,33.4375,-74.5625,-74.5625,-74.5625,3.19397,3.151303,5.112581,6.859871,4.914551,0.036218,0.03337086,-0.4906918,1.587122,-0.004715876,-0.06412175,1.586485,0.2408644,0.3305418,1.688334,-0.0123908,-0.4961206,1.587031,0.02416388,-0.1185658,1.624366,0.2188015,-0.113034,1.692093,0.2030615,-0.420022,1.674929,0.04736493,0.0726614,1.676262,0.128434,-0.4108931,1.655655,0.002305381,-0.1668402,1.647194,0.26855,-0.06238009,1.48635,NA,NA,Unknown,Unknown,
0.9291992,-0.3354492,0.2114258,0.6279297,0.7338867,0.5610352,-2,-3,-1,-2,-1,-1,-2,-2,13,-9,-15,-5,-10,-8,-5,2,20.8125,20.8125,20.8125,-117.625,-117.625,-117.625,3.25902,3.163434,5.095716,6.749257,4.958114,9.941521,0.03327515,-0.4989353,1.585642,0.08647625,-0.07229562,1.557232,0.2403317,0.3306063,1.68825,-0.01286656,-0.4986955,1.586348,0.08790442,-0.1394698,1.593333,0.2187329,-0.1131079,1.691885,0.2029141,-0.4202403,1.674022,0.04721854,0.07135881,1.677424,0.1283151,-0.4113084,1.654649,0.01082414,-0.1815526,1.652375,0.3492872,-0.09248581,1.492512,NA,NA,Unknown,Unknown,
0.9106445,-0.3676758,0.2045898,-0.1982422,0.8457031,0.9384766,-2,0,-1,-1,-1,-2,0,-1,4,-5,-11,-14,0,2,-1,-6,-7.375,-7.375,-7.375,-107.1875,-107.1875,-107.1875,3.276774,3.163126,5.076322,6.480338,5.002663,9.670511,0.03268974,-0.4989393,1.584568,0.1311653,-0.09638933,1.535619,0.2385541,0.3306947,1.687896,-0.01381006,-0.5000195,1.586744,0.1328377,-0.1685218,1.540754,0.2183451,-0.1132718,1.691486,0.2024456,-0.4206824,1.673313,0.04641008,0.07007694,1.679764,0.1275838,-0.4118334,1.652432,0.01540523,-0.1954113,1.661798,0.395278,-0.1004477,1.514546,NA,NA,Unknown,Unknown,
0.8994141,-0.3647461,0.2246094,-0.7255859,0.9902344,0.9472656,0,-1,-1,-2,-2,-1,0,-1,-11,2,-4,3,-8,-11,-7,-7,-2.6875,-2.6875,-2.6875,-68.8125,-68.8125,-68.8125,3.266537,3.14981,5.074141,6.333504,4.938202,9.411734,0.03138267,-0.5008311,1.584975,0.1396725,-0.1013225,1.529861,0.2364608,0.3308491,1.68645,-0.01342908,-0.4984131,1.585469,0.1581471,-0.1729722,1.526629,0.2174852,-0.1136444,1.690609,0.2011368,-0.421421,1.672005,0.04683647,0.07000802,1.680068,0.125738,-0.4121387,1.64916,0.01544748,-0.1962918,1.663491,0.4252539,-0.1034826,1.531,NA,NA,Unknown,Unknown,
0.9423828,-0.3349609,0.1806641,-0.3798828,0.8125,0.765625,0,-1,-2,-2,-2,1,0,-1,-4,-1,-5,-9,-7,-19,-12,-11,0.9375,0.9375,0.9375,-11.1875,-11.1875,-11.1875,3.252728,3.155892,5.087455,6.281432,4.901165,9.19934,0.02866006,-0.5007031,1.585006,0.1723534,-0.1202937,1.518768,0.2357669,0.3309988,1.685433,-0.01593114,-0.4991413,1.584877,0.205713,-0.1760483,1.513635,0.2170532,-0.113791,1.690037,0.2004689,-0.4217258,1.671519,0.04764652,0.07003002,1.679667,0.1248831,-0.4121122,1.64791,0.01518082,-0.1955756,1.664001,0.4408798,-0.1041246,1.538927,NA,NA,Unknown,Unknown,
0.9272461,-0.3129883,0.1860352,-0.1616211,0.7397461,0.7250977,-1,-2,0,1,-2,-1,-2,-3,1,2,0,7,10,15,1,2,-9,-9,-9,-3.75,-3.75,-3.75,3.256191,3.166422,5.079951,6.265375,4.933102,9.122801,0.02851774,-0.5005206,1.582749,0.1781456,-0.1188113,1.518109,0.2356058,0.3309256,1.684498,-0.01719819,-0.501899,1.584909,0.201793,-0.1703653,1.503687,0.216972,-0.1139869,1.689597,0.2002699,-0.4219431,1.671111,0.04701512,0.07023096,1.678476,0.1246314,-0.4121954,1.646936,0.0147612,-0.1941029,1.664447,0.447901,-0.1063685,1.54381,NA,NA,Unknown,Unknown,
0.9223633,-0.3525391,0.1733398,-0.08300781,0.7583008,0.7353516,-1,-2,-1,-1,-2,-1,-2,-1,0,-17,1,-8,-14,2,4,9,-10.5,-10.5,-10.5,-6.625,-6.625,-6.625,3.252068,3.17116,5.060472,6.258255,4.944658,9.105474,0.03017023,-0.5005092,1.57951,0.2170954,-0.1294185,1.509031,0.2358544,0.3306877,1.683746,-0.01585061,-0.4988555,1.582972,0.2263891,-0.1919739,1.512,0.217064,-0.1142978,1.689253,0.2003741,-0.4222657,1.67085,0.04865088,0.06990543,1.678188,0.1247929,-0.4123892,1.646145,0.01476708,-0.1921118,1.664407,0.4496565,-0.1078643,1.545717,NA,NA,Unknown,Unknown,
0.8994141,-0.3857422,0.1933594,-0.06982422,0.8203125,0.7563477,-3,-1,-1,-1,-2,0,0,-1,1,-7,8,4,-3,-8,-4,0,5.0625,5.0625,5.0625,5.0625,5.0625,5.0625,3.258234,3.179255,5.051947,6.26538,4.969065,9.104977,0.03205406,-0.4998782,1.57888,0.2147287,-0.1268239,1.507475,0.2361762,0.3307042,1.683198,-0.01521774,-0.5020555,1.584392,0.2335444,-0.1889833,1.509692,0.2171566,-0.1144782,1.68892,0.2005095,-0.4224561,1.670594,0.04887203,0.07001553,1.677599,0.1249797,-0.4124566,1.645573,0.01480465,-0.1917261,1.664589,0.4431219,-0.111479,1.543112,NA,NA,Unknown,Unknown,
0.9047852,-0.3798828,0.2099609,-0.1665039,0.8208008,0.737793,0,0,-1,-2,-3,-1,-2,-1,0,6,4,6,9,-5,-4,-5,7.9375,7.9375,7.9375,24.8125,24.8125,24.8125,3.258634,3.177693,5.067689,6.311049,5.063124,9.161016,0.03199909,-0.5005964,1.581686,0.1308663,-0.09916867,1.507037,0.2368523,0.3306604,1.682671,-0.0145177,-0.5004136,1.58398,0.1300289,-0.136127,1.462063,0.2174138,-0.1146456,1.688735,0.200702,-0.4226251,1.670453,0.05053807,0.06982269,1.6779,0.1252095,-0.412473,1.645457,0.01496707,-0.1921194,1.664836,0.4398652,-0.1119671,1.539485,NA,NA,Unknown,Unknown,
0.909668,-0.3745117,0.2001953,-0.1977539,0.8061523,0.7451172,0,-1,-2,0,-2,1,-2,-2,9,-2,11,10,0,-9,-2,-1,-4.9375,-4.9375,-4.9375,44.875,44.875,44.875,3.244536,3.174192,5.08463,6.407205,5.238081,9.313857,0.0316833,-0.4994862,1.582991,0.101338,-0.06511654,1.510547,0.2378576,0.330705,1.68246,-0.0147509,-0.5053923,1.582381,0.1118591,-0.1297133,1.547273,0.2177876,-0.1146955,1.688684,0.2009836,-0.422621,1.670478,0.05096691,0.06968358,1.678238,0.1257701,-0.4123386,1.645819,0.01555234,-0.1931532,1.665251,0.4219088,-0.1090921,1.525782,NA,NA,Unknown,Unknown,
0.9125977,-0.3647461,0.1733398,-0.2119141,0.8037109,0.7929688,-3,7,0,-1,-2,0,-2,-2,-2,-10,-16,-21,-15,-6,-1,13,-16.875,-16.875,-16.875,50.625,50.625,50.625,3.222883,3.172611,5.083325,6.482925,5.339423,9.424597,0.03185784,-0.498098,1.583144,0.1194853,-0.04735568,1.528199,0.2400075,0.3305224,1.681898,-0.0137244,-0.499187,1.580262,0.1293633,-0.1122363,1.54802,0.2186075,-0.1146973,1.688598,0.2016111,-0.422402,1.670407,0.05092437,0.06990648,1.678157,0.1267256,-0.4119571,1.646658,0.01618868,-0.1939934,1.665564,0.3971437,-0.1023849,1.51175,NA,NA,Unknown,Closed,
0.9213867,-0.3657227,0.1625977,-0.2138672,0.7158203,0.652832,0,-1,1,-1,-2,-2,0,0,17,-2,-2,-6,0,-3,8,20,-18,-18,-18,30.0625,30.0625,30.0625,3.197058,3.17206,5.077681,6.62284,5.551817,9.672178,0.03396121,-0.4970767,1.581628,0.1273526,-0.03417737,1.545003,0.2424028,0.3301699,1.681835,-0.0116099,-0.4971805,1.58233,0.1137075,-0.09412806,1.561529,0.2193896,-0.1147325,1.688666,0.2021929,-0.4221647,1.670531,0.04801634,0.07097641,1.673925,0.1273128,-0.4116498,1.647287,0.01706143,-0.1936381,1.665808,0.3793916,-0.09799993,1.501409,NA,NA,Unknown,Unknown,
0.9140625,-0.362793,0.1469727,-0.1665039,0.7075195,0.4702148,-1,-3,-1,-1,-1,-2,0,0,-7,-2,7,5,0,9,0,-12,-2.9375,-2.9375,-2.9375,-2.375,-2.375,-2.375,3.18437,3.171637,5.068161,6.750318,5.765891,9.921595,0.0348712,-0.4957096,1.580065,0.1458149,-0.02820943,1.54894,0.2442746,0.3304176,1.681514,-0.01007816,-0.4982876,1.578614,0.1287546,-0.08823435,1.551211,0.2201692,-0.114672,1.6885,0.2028691,-0.4219664,1.670299,0.04751877,0.07081646,1.669361,0.1277105,-0.411549,1.647247,0.01790449,-0.1928555,1.665626,0.3655824,-0.09479279,1.494573,NA,NA,Unknown,Unknown,
0.9111328,-0.3676758,0.1625977,-0.1767578,0.7026367,0.4594727,1,-1,-1,-1,-2,-1,-1,-2,13,-8,-9,-5,-9,-4,-4,-10,7.5,7.5,7.5,-4.0625,-4.0625,-4.0625,3.188386,3.170928,5.070265,6.761713,5.782251,9.957431,0.03501638,-0.4967054,1.579417,0.1402729,-0.02411135,1.553213,0.2454855,0.3303542,1.681513,-0.01200552,-0.5015851,1.581462,0.1292374,-0.08556022,1.549202,0.2209828,-0.1147323,1.688485,0.2034488,-0.4220723,1.670239,0.0471823,0.07048987,1.667512,0.1281223,-0.4117249,1.647504,0.01861214,-0.1911647,1.665591,0.3567246,-0.09398486,1.493222,NA,NA,Unknown,Unknown,
0.9125977,-0.3818359,0.1728516,-0.2680664,0.730957,0.3720703,-1,-2,-1,-1,-1,-2,0,-2,-38,-2,-2,-5,-28,-22,8,3,6.375,6.375,6.375,-16.5625,-16.5625,-16.5625,3.201161,3.169101,5.076122,6.754497,5.70102,0.04032504,0.03495303,-0.4963084,1.580707,0.1365561,-0.02542825,1.553523,0.2460894,0.3303281,1.681589,-0.01201268,-0.498823,1.580945,0.1223465,-0.08459866,1.553655,0.2213573,-0.1148475,1.688354,0.2037139,-0.4221415,1.670173,0.04716739,0.07051061,1.666551,0.1283473,-0.4118584,1.647668,0.01916823,-0.1909398,1.665562,0.3524517,-0.09377924,1.493008,NA,NA,Unknown,Unknown,
0.9150391,-0.3779297,0.1938477,-0.3774414,0.6870117,0.3901367,-1,0,-2,-1,-1,-2,0,-3,4,8,0,-2,-17,-7,13,-46,0.4375,0.4375,0.4375,-10.5625,-10.5625,-10.5625,3.204251,3.168978,5.080092,6.724206,5.527874,0.01968827,0.03462584,-0.4968151,1.581532,0.1240776,-0.02961559,1.550259,0.2465415,0.3302281,1.681743,-0.01274994,-0.5001169,1.58446,0.1523331,-0.08944134,1.520357,0.2216643,-0.1149175,1.688328,0.2039133,-0.4221943,1.670107,0.04865865,0.0701331,1.667685,0.1286218,-0.4120502,1.648144,0.01968903,-0.1922599,1.665306,0.3512344,-0.0939117,1.49297,NA,NA,Unknown,Unknown,
0.9125977,-0.3745117,0.1821289,-0.3852539,0.7695313,0.3798828,-1,-1,-2,-1,0,-3,-1,-2,-8,-3,1,-3,-12,2,2,13,-14.25,-14.25,-14.25,43.0625,43.0625,43.0625,3.18692,3.169371,5.081869,6.754407,5.126796,9.933261,0.03511706,-0.4967025,1.582394,0.1113368,-0.1151585,1.538178,0.2468834,0.3301671,1.682117,-0.01083846,-0.501228,1.581284,0.1551847,-0.1879708,1.527,0.2217959,-0.1149802,1.688466,0.2039384,-0.4224107,1.670225,0.0522983,0.07045788,1.672808,0.1286848,-0.4123219,1.648455,0.02215363,-0.1952065,1.651572,0.3502981,-0.09413522,1.49295,NA,NA,Unknown,Unknown,
0.9243164,-0.362793,0.1298828,0.3554688,0.8911133,0.4848633,-1,1,0,-2,-1,-2,-1,-1,12,1,-12,-8,-22,-9,-8,-22,-4.5625,-4.5625,-4.5625,49.25,49.25,49.25,3.16215,3.176748,5.089639,6.82401,4.777167,9.844687,0.03469721,-0.4995315,1.580366,0.03376415,-0.1902972,1.529522,0.2472637,0.3301231,1.682766,-0.01282584,-0.5002785,1.58215,0.07062239,-0.2227284,1.571174,0.2218717,-0.1150652,1.688583,0.2037079,-0.4224753,1.670246,0.0554241,0.07051215,1.675318,0.1283761,-0.41229,1.648747,0.02142571,-0.1954377,1.650765,0.3447328,-0.09571093,1.49651,NA,NA,Unknown,Unknown,
0.9008789,-0.387207,0.1811523,0.4365234,1.052734,0.5917969,-1,-2,-2,-3,-1,0,1,2,-23,-4,3,5,10,11,-8,41,13.875,13.875,13.875,-24,-24,-24,3.191478,3.193278,5.077822,6.819537,4.565198,9.757594,0.0338318,-0.4613678,1.584512,0.02802481,-0.2350518,1.516236,0.2475972,0.330114,1.68394,-0.01229195,-0.4751838,1.5653,0.06641373,-0.2711432,1.553778,0.2217901,-0.1150525,1.688694,0.2034124,-0.4222989,1.670131,0.05668699,0.07034322,1.677266,0.1281048,-0.4120566,1.648909,0.01880622,-0.1436782,1.673804,0.3366712,-0.1018619,1.501585,NA,NA,NotTracked,Unknown,
0.8935547,-0.3969727,0.2011719,1.074707,1.095703,0.6625977,-2,-1,-2,1,-1,-2,0,-2,-11,-5,-2,2,7,1,2,2,-2.1875,-2.1875,-2.1875,-31.25,-31.25,-31.25,3.21914,3.191098,5.055832,6.777693,4.457616,9.6965,0.0346802,-0.4704013,1.583183,0.03201378,-0.2455145,1.510916,0.2473749,0.3300526,1.685109,-0.01018731,-0.4783837,1.587267,0.06443846,-0.2870034,1.5445,0.2216695,-0.1150158,1.688758,0.2031989,-0.4222389,1.670005,0.05698913,0.07013612,1.67821,0.1280015,-0.411987,1.64894,0.01862897,-0.1507127,1.671134,0.3316505,-0.1070348,1.501836,NA,NA,NotTracked,NotTracked,
0.9169922,-0.3881836,0.1777344,0.6748047,0.8891602,0.8544922,0,-3,-2,0,-1,1,-1,-3,-49,-17,-4,-1,1,3,0,15,-2.9375,-2.9375,-2.9375,-16,-16,-16,3.219093,3.186009,5.051298,6.751245,4.410139,9.662456,0.0347807,-0.4739677,1.584089,0.06898437,-0.2322891,1.508119,0.2469638,0.3301421,1.686306,-0.008821085,-0.4758223,1.58725,0.125597,-0.2587108,1.545158,0.2214832,-0.1149345,1.688905,0.2030222,-0.4221477,1.669981,0.05716842,0.06986141,1.679323,0.1278702,-0.4118378,1.64911,0.01892204,-0.152307,1.670375,0.3309114,-0.1088242,1.502408,NA,NA,Unknown,Unknown,
0.9086914,-0.3637695,0.1713867,0.9326172,0.8193359,0.6474609,0,-1,0,-1,0,-1,-2,-1,-6,-2,-2,3,10,9,4,24,-8.25,-8.25,-8.25,-15.5625,-15.5625,-15.5625,3.217095,3.192844,5.048839,6.740579,4.453431,9.607312,0.03506413,-0.4737285,1.582759,0.07294204,-0.228358,1.502878,0.2465589,0.3302686,1.687054,-0.01023687,-0.4792306,1.581169,0.1258089,-0.2586524,1.544981,0.221329,-0.1147823,1.689104,0.2028714,-0.4219913,1.66998,0.05716566,0.06977241,1.679661,0.1277546,-0.4116054,1.649192,0.01878021,-0.1541151,1.669935,0.3313617,-0.1102688,1.502748,NA,NA,Unknown,Closed,
0.9067383,-0.3745117,0.1650391,-0.2612305,0.6455078,0.3793945,-2,-1,-1,-2,-2,-1,0,0,-8,8,-5,0,-4,-8,-2,6,-9,-9,-9,-9.6875,-9.6875,-9.6875,3.212268,3.191995,5.042248,6.748965,4.480906,9.580988,0.03571868,-0.4733295,1.582382,0.07198798,-0.2306183,1.496855,0.246379,0.3303042,1.687347,-0.009963307,-0.4770458,1.582311,0.1266529,-0.2581974,1.544602,0.2212223,-0.1146696,1.6892,0.2026844,-0.4218392,1.669959,0.05710381,0.06976884,1.680033,0.1275913,-0.4113835,1.649193,0.01879792,-0.1542834,1.670374,0.32787,-0.1144739,1.502146,NA,NA,Unknown,Unknown,
0.9111328,-0.3803711,0.152832,0.7988281,0.5561523,0.7583008,-2,-1,-3,-2,-1,-1,-2,-1,5,5,-1,-1,-1,1,-1,4,17.875,17.875,17.875,-50,-50,-50,3.22855,3.189408,5.037144,6.639421,4.406558,9.538906,0.03655993,-0.4734365,1.582504,0.07346211,-0.2360927,1.486813,0.2461846,0.3304023,1.687568,-0.009511004,-0.4795775,1.582032,0.1330445,-0.2616805,1.537688,0.2208962,-0.1145279,1.689316,0.2023715,-0.4217455,1.669943,0.05685627,0.06978343,1.680366,0.1273219,-0.4112227,1.64906,0.01844446,-0.1553033,1.670358,0.3295575,-0.1180323,1.503182,NA,NA,Unknown,Unknown,
0.9072266,-0.3779297,0.1914063,0.4599609,0.6113281,0.5112305,0,-1,-2,-1,0,1,-1,-2,13,-6,0,2,-2,0,0,4,35.5,35.5,35.5,-88.125,-88.125,-88.125,3.278286,3.195652,5.038587,6.512386,4.365448,9.413651,0.03601501,-0.4968169,1.578352,0.09441391,-0.2494512,1.481708,0.2456785,0.3305334,1.687692,-0.01084996,-0.4975491,1.576676,0.1022393,-0.2090197,1.529833,0.2203867,-0.1145781,1.689315,0.2020204,-0.4219005,1.669922,0.05660201,0.06968202,1.680589,0.1269976,-0.4113392,1.648763,0.01752276,-0.1572214,1.671286,0.3521521,-0.1254601,1.511836,NA,NA,Unknown,Unknown,
0.9008789,-0.3735352,0.2241211,0.4423828,0.609375,0.6181641,0,-1,-1,-1,-1,-1,-2,0,-36,-15,-9,-5,-1,-2,-5,-7,28.1875,28.1875,28.1875,-109.3125,-109.3125,-109.3125,3.332395,3.200166,5.038503,6.396472,4.287897,9.260844,0.03487169,-0.4968359,1.580788,0.1134908,-0.2821622,1.471049,0.244939,0.3304756,1.687537,-0.01097022,-0.4973062,1.581678,0.07145476,-0.2638731,1.436104,0.219559,-0.115009,1.689399,0.2008512,-0.4229487,1.670101,0.05600019,0.06959679,1.681028,0.1261443,-0.4122102,1.648277,0.0157531,-0.1679398,1.672084,0.3845857,-0.1304377,1.532205,NA,NA,Unknown,Unknown,
0.8969727,-0.3833008,0.2314453,0.4267578,0.6245117,0.734375,1,2,-2,-1,1,-3,-1,0,16,-14,4,6,0,1,-2,5,16.625,16.625,16.625,-106.4375,-106.4375,-106.4375,3.363486,3.202077,5.041353,6.300001,4.139849,9.081182,0.03155523,-0.4922905,1.583051,0.1610118,-0.3284711,1.474101,0.2436255,0.3306508,1.686914,-0.0111259,-0.4938088,1.578903,0.1280385,-0.3032333,1.434642,0.2192474,-0.1154682,1.689381,0.2014581,-0.4246624,1.670638,0.05527944,0.06944744,1.68131,0.1268556,-0.4143151,1.647856,0.01580563,-0.1782783,1.672943,0.4076743,-0.1340946,1.557666,NA,NA,Unknown,Unknown,
0.8979492,-0.3803711,0.246582,0.4960938,0.6733398,0.6860352,-2,0,0,-1,0,-1,0,0,27,20,9,3,6,2,1,9,7,7,7,-113.5625,-113.5625,-113.5625,3.385,3.20361,5.04425,6.248048,4.008481,8.952798,0.03045118,-0.4946372,1.583816,0.2144007,-0.380893,1.482042,0.2418651,0.3305166,1.685263,-0.01439,-0.4974279,1.582031,0.1687164,-0.3434666,1.523881,0.2184756,-0.1162563,1.688919,0.2011363,-0.4259952,1.670519,0.05417514,0.06929451,1.681494,0.1260562,-0.4157137,1.646733,0.0147645,-0.1852405,1.672843,0.4219667,-0.1394969,1.585532,NA,NA,Unknown,Unknown,
0.9008789,-0.3642578,0.2543945,0.5761719,0.5932617,0.6713867,0,-1,1,-2,-2,-3,-2,-1,25,8,1,-2,-5,-2,-2,-1,-2.375,-2.375,-2.375,-84.4375,-84.4375,-84.4375,3.393257,3.20214,5.037433,6.201191,3.719598,8.679872,0.02926458,-0.4947523,1.583326,0.2875645,-0.3859586,1.507669,0.2404357,0.3303754,1.683136,-0.01531945,-0.4977314,1.581358,0.3478107,-0.4254445,1.54085,0.2158685,-0.1175384,1.687389,0.1967556,-0.4281195,1.669097,0.05278573,0.06895681,1.6812,0.120217,-0.4164855,1.643658,0.01410629,-0.1873858,1.673074,0.4277554,-0.1460649,1.603104,NA,NA,Unknown,Unknown,
0.9042969,-0.3515625,0.2368164,0.6918945,0.5195313,0.6015625,-2,-1,-1,-2,1,-3,-1,-1,-15,-1,-6,-18,-3,-2,-2,-3,-5.9375,-5.9375,-5.9375,-45.375,-45.375,-45.375,3.395299,3.199183,5.026853,6.266736,3.452676,8.427561,0.02935503,-0.4968012,1.581398,0.3348424,-0.4227889,1.518581,0.2395744,0.3304552,1.681193,-0.01402163,-0.4948961,1.580098,0.3562477,-0.4498369,1.489264,0.2140522,-0.118132,1.686181,0.1946241,-0.4290409,1.668296,0.05186567,0.06833493,1.680157,0.117557,-0.4166707,1.641842,0.01372248,-0.1893746,1.672573,0.4327179,-0.1614705,1.616796,NA,NA,Unknown,Unknown,
0.9116211,-0.3505859,0.2133789,0.8598633,0.5322266,0.4589844,0,-1,-1,-2,0,-2,-2,0,4,-3,-6,-2,0,-1,-2,-2,-12.0625,-12.0625,-12.0625,-96.5625,-96.5625,-96.5625,3.388139,3.195446,5.009677,6.407282,3.278411,8.115559,0.02940946,-0.4972112,1.580201,0.3630158,-0.479581,1.530153,0.2389236,0.3302648,1.679386,-0.016011,-0.4997166,1.581266,0.4083902,-0.4890952,1.524045,0.2146199,-0.1186868,1.685484,0.1979047,-0.4304215,1.667497,0.05094191,0.06814885,1.678932,0.1215897,-0.4189872,1.639571,0.01281626,-0.1922049,1.671356,0.4324783,-0.1769723,1.627146,NA,NA,Unknown,NotTracked,
0.909668,-0.355957,0.2143555,0.8828125,0.4272461,0.3852539,-3,0,-1,0,-2,-1,0,0,3,4,4,1,0,1,0,-1,-4.9375,-4.9375,-4.9375,-83.1875,-83.1875,-83.1875,3.38535,3.194462,4.99956,6.460765,3.209356,7.874481,0.03045815,-0.497306,1.578685,0.3848659,-0.500371,1.548548,0.2383587,0.3304377,1.678051,-0.01366347,-0.4967396,1.578155,0.4304174,-0.4993814,1.539,0.2156467,-0.1192875,1.685042,0.2035129,-0.4322105,1.667276,0.05039933,0.06783023,1.677129,0.1272523,-0.421457,1.638305,0.0125305,-0.1939118,1.669984,0.4316356,-0.1909392,1.635534,NA,NA,Unknown,NotTracked,
