ALX,ALY,ALZ,ARX,ARY,ARZ,EMG0L,EMG1L,EMG2L,EMG3L,EMG4L,EMG5L,EMG6L,EMG7L,EMG0R,EMG1R,EMG2R,EMG3R,EMG4R,EMG5R,EMG6R,EMG7R,GLX,GLY,GLZ,GRX,GRY,GRZ,ORL,OPL,OYL,ORR,OPR,OYR,LHNX,LHNY,LHNZ,RHNX,RHNY,RHNZ,HX,HY,HZ,LTX,LTY,LTZ,RTX,RTY,RTZ,SpineMidX,SpineMidY,SpineMidZ,SpineBaseX,SpineBaseY,SpineBaseZ,ShoulderLeftX,ShoulderLeftY,ShoulderLeftZ,ShoulderRightX,ShoulderRightY,ShoulderRightZ,ElbowLeftX,ElbowLeftY,ElbowLeftZ,ElbowRightX,ElbowRightY,ElbowRightZ,Myo_Pose_left,Myo_Pose_Right,Kinect_pose_left,Kinect_pose_right
0.9140625,-0.3427734,0.2177734,0.8632813,0.3320313,0.3178711,-2,-1,-4,-2,1,-2,-2,0,-2,-1,-1,-1,0,-1,-1,-1,1.1875,1.1875,1.1875,-0.625,-0.625,-0.625,3.406475,3.16667,4.663201,6.290617,3.26661,7.9115,0.02140366,-0.5035781,1.600993,0.3822448,-0.4970395,1.567641,0.2245189,0.3328705,1.683925,-0.02179393,-0.5005385,1.606225,0.3394282,-0.4832166,1.551431,0.2128415,-0.1165177,1.690989,0.203554,-0.4258418,1.676686,0.0445518,0.06460989,1.683917,0.1266006,-0.4157139,1.647977,0.01016521,-0.1996037,1.687977,0.4215931,-0.1984916,1.666301,NA,NA,NotTracked,NotTracked,
0.9125977,-0.3461914,0.2163086,0.8725586,0.3369141,0.3237305,-2,0,-5,-1,-1,-1,0,-1,-5,-7,-7,-4,-2,1,0,0,2.4375,2.4375,2.4375,0.4375,0.4375,0.4375,3.410736,3.167753,4.662658,6.290164,3.266679,7.91207,0.02113821,-0.5031647,1.599093,0.3812247,-0.4962905,1.566358,0.2245307,0.33298,1.683962,-0.02247671,-0.5026156,1.595162,0.3397854,-0.4820867,1.551056,0.21284,-0.1165169,1.690987,0.2035815,-0.4258435,1.676664,0.04453279,0.06455874,1.68392,0.1266273,-0.4157061,1.647934,0.01014665,-0.19966,1.687943,0.4216025,-0.1984927,1.666313,NA,NA,NotTracked,NotTracked,
0.9135742,-0.3427734,0.2265625,0.8798828,0.3383789,0.3071289,-1,-2,-3,-1,0,-2,-1,-1,-17,-4,-4,-4,-2,-4,-2,-10,1.5625,1.5625,1.5625,-5,-5,-5,3.41791,3.168483,4.658498,6.290814,3.271733,7.908183,0.02097499,-0.5028753,1.599207,0.3807376,-0.4961044,1.564131,0.2245481,0.3330043,1.684077,-0.02232417,-0.5036425,1.599589,0.3394898,-0.4831086,1.550668,0.2128883,-0.1164972,1.691007,0.2035957,-0.4258422,1.676617,0.04459353,0.06456591,1.683939,0.1266317,-0.4157001,1.647879,0.01012191,-0.1995704,1.687989,0.4215747,-0.1985677,1.666258,NA,NA,NotTracked,NotTracked,
0.9194336,-0.3491211,0.2231445,0.9667969,0.4277344,0.2685547,0,-2,-2,-2,0,-3,0,-3,-2,6,9,-4,1,4,0,2,3.0625,3.0625,3.0625,-29.375,-29.375,-29.375,3.421078,3.171595,4.65889,6.287528,3.325049,7.870487,0.02088417,-0.5025203,1.599345,0.3779715,-0.4913929,1.55371,0.2245115,0.3330299,1.684231,-0.02214248,-0.5026816,1.601844,0.3384048,-0.4790429,1.540154,0.2128666,-0.1165142,1.690996,0.2035223,-0.4258794,1.676532,0.04455022,0.0644603,1.684064,0.1265641,-0.415746,1.647818,0.01020363,-0.1996208,1.687918,0.4217309,-0.1984469,1.666446,NA,NA,NotTracked,NotTracked,
0.9052734,-0.3481445,0.2285156,0.9169922,0.5073242,0.3759766,-1,-1,0,0,-1,-2,-1,0,2,7,-4,4,-5,-17,-6,0,3,3,3,-26.75,-26.75,-26.75,3.424631,3.176383,4.66178,6.267077,3.440219,7.845629,0.02115684,-0.5035329,1.599368,0.3676481,-0.4654832,1.526831,0.2242431,0.3333604,1.685002,-0.02194066,-0.5023053,1.60191,0.3289119,-0.4563465,1.52772,0.2126045,-0.1164386,1.691046,0.2029462,-0.4258046,1.67643,0.04455233,0.06442621,1.684118,0.1259396,-0.4155848,1.647665,0.0102575,-0.1995131,1.687993,0.4231794,-0.1968866,1.667417,NA,NA,NotTracked,NotTracked,
0.9194336,-0.3515625,0.2299805,0.90625,0.5317383,0.5654297,0,-2,-2,-1,-1,-1,-1,-2,7,-1,5,-18,-11,-4,-2,-3,-4.0625,-4.0625,-4.0625,-43.125,-43.125,-43.125,3.423789,3.179303,4.656457,6.194201,3.653358,7.864589,0.02103261,-0.5029027,1.598426,0.358043,-0.4048412,1.482681,0.2240301,0.3333261,1.685677,-0.02173169,-0.5007248,1.601403,0.334692,-0.3922211,1.521688,0.2117459,-0.1163001,1.691136,0.200458,-0.425421,1.675929,0.04453203,0.06446067,1.684288,0.1231185,-0.4147354,1.647203,0.01027098,-0.1994456,1.687979,0.4272078,-0.1882627,1.670731,NA,NA,NotTracked,Unknown,
0.9077148,-0.3466797,0.2241211,0.4208984,0.765625,0.8139648,-2,-1,0,-2,-2,-2,-2,-1,6,36,16,10,0,6,1,4,-14.125,-14.125,-14.125,-43.875,-43.875,-43.875,3.408376,3.181521,4.655283,6.097585,4.123567,7.910364,0.02063688,-0.5033168,1.597961,0.3374249,-0.3067991,1.42271,0.2237454,0.3336565,1.686725,-0.0220166,-0.5047106,1.599457,0.3058808,-0.3704497,1.4646,0.2106597,-0.1161037,1.691214,0.1969094,-0.4249669,1.675429,0.04449011,0.06444283,1.684332,0.1196606,-0.413825,1.646971,0.01004918,-0.1989149,1.687753,0.4333716,-0.1619562,1.674148,NA,NA,NotTracked,Unknown,
0.9160156,-0.3564453,0.2226563,0.1044922,0.6015625,0.9311523,1,0,0,-1,-1,0,0,-2,-17,-14,1,14,-16,1,-3,-20,-16.4375,-16.4375,-16.4375,-53.125,-53.125,-53.125,3.379244,3.179743,4.649446,6.030639,4.446478,7.920049,0.02102921,-0.5026296,1.597842,0.3277345,-0.1738809,1.382208,0.2237747,0.33389,1.687743,-0.02230419,-0.5038055,1.6011,0.31807,-0.2002894,1.318571,0.2101072,-0.1159278,1.69131,0.1961821,-0.4247118,1.675285,0.04447489,0.06448922,1.684319,0.1189545,-0.4136055,1.647014,0.01021553,-0.1977403,1.687507,0.4400186,-0.1331482,1.663982,NA,NA,NotTracked,Unknown,
0.9208984,-0.3500977,0.2089844,-0.3173828,0.652832,0.8847656,-1,-2,-2,-2,-1,-1,-1,0,17,14,15,1,4,5,3,2,-10.1875,-10.1875,-10.1875,28.1875,28.1875,28.1875,3.355425,3.18288,4.652553,6.022593,5.233983,7.957722,0.02048435,-0.5027993,1.59645,0.3064303,-0.01702714,1.375323,0.2239695,0.334074,1.688352,-0.0236186,-0.5080177,1.598697,0.2994118,-0.05949403,1.364375,0.2096224,-0.1156669,1.69162,0.195444,-0.4242994,1.675457,0.04470734,0.06459355,1.6842,0.1182306,-0.413322,1.647583,0.01025773,-0.1975179,1.687126,0.421939,-0.1437927,1.546544,NA,NA,NotTracked,Unknown,
0.9121094,-0.3549805,0.2070313,-0.418457,0.621582,0.8251953,0,-3,-3,-2,0,-1,-3,-1,-4,4,21,13,10,4,-1,8,-4.8125,-4.8125,-4.8125,42.5,42.5,42.5,3.336519,3.18969,4.656371,6.08424,5.640999,8.017615,0.02042726,-0.5020056,1.596599,0.3217646,0.0811524,1.41493,0.2241321,0.33408,1.689053,-0.03397297,-0.5007876,1.55575,0.3051075,0.04648872,1.406044,0.2091946,-0.1160032,1.692001,0.1952289,-0.4248239,1.675636,0.04620349,0.06463198,1.683328,0.1178137,-0.4141691,1.648585,0.01030188,-0.1971634,1.686578,0.4254218,-0.1291188,1.551789,NA,NA,NotTracked,Unknown,
0.9057617,-0.3496094,0.2055664,-0.5893555,0.487793,0.6264648,-1,-2,-1,-2,0,0,-2,-2,1,2,12,-6,8,7,0,6,-0.5625,-0.5625,-0.5625,34.5,34.5,34.5,3.332053,3.192292,4.65964,6.311327,6.332881,8.261083,0.02090539,-0.5010462,1.593656,0.320713,0.158604,1.45052,0.2241182,0.3341656,1.689174,-0.02271669,-0.5037849,1.593537,0.2849185,0.1511153,1.427658,0.2099903,-0.1146175,1.692074,0.1948418,-0.4231897,1.675427,0.04688861,0.06554445,1.68323,0.1169525,-0.4123215,1.649453,0.009956464,-0.1905474,1.685368,0.4338008,-0.1273297,1.532228,NA,NA,NotTracked,Unknown,
0.8964844,-0.3662109,0.2133789,-0.605957,0.3520508,0.4179688,-1,0,-2,-3,0,0,-1,-1,3,3,-2,-12,-20,-10,-1,-6,10.375,10.375,10.375,-2.75,-2.75,-2.75,3.337002,3.196145,4.672179,6.83346,6.758961,8.861537,0.02049076,-0.5010287,1.593845,0.3156455,0.199697,1.486293,0.2240429,0.3340917,1.689244,-0.02346021,-0.4999949,1.590549,0.2912341,0.1716014,1.516833,0.2090357,-0.1145701,1.692543,0.194283,-0.4226691,1.675484,0.04975189,0.06654968,1.682588,0.1159106,-0.4115623,1.65003,0.01004071,-0.1864166,1.685275,0.4161844,-0.05857934,1.485767,NA,NA,NotTracked,Unknown,
0.9008789,-0.3544922,0.2163086,-0.6298828,0.3251953,0.1972656,0,1,-2,-1,0,-1,-1,-1,4,12,18,-3,-5,2,1,-1,17.5625,17.5625,17.5625,-29.75,-29.75,-29.75,3.359034,3.193979,4.676839,7.399621,6.857998,9.525674,0.0208524,-0.5009113,1.594442,0.3042877,0.2260874,1.514225,0.2239124,0.3333198,1.688725,-0.02374361,-0.5015821,1.597546,0.2754474,0.1996343,1.541875,0.2086618,-0.1145297,1.692601,0.1939272,-0.4222558,1.675404,0.05367323,0.0675225,1.684387,0.1153623,-0.4110746,1.650613,0.01045048,-0.1834152,1.685634,0.4126351,-0.05263692,1.479162,NA,NA,NotTracked,Unknown,
0.9018555,-0.3764648,0.2329102,-0.6669922,0.362793,0.02978516,0,-4,-1,0,-2,-2,-1,-1,13,17,19,5,17,5,-1,-8,15,15,15,-33.9375,-33.9375,-33.9375,3.387092,3.193923,4.676058,7.794246,6.842817,0.02315385,0.02070809,-0.5013307,1.596359,0.2877061,0.2436314,1.54114,0.2238629,0.3325672,1.688202,-0.02272107,-0.4989275,1.598473,0.244665,0.244328,1.570417,0.2090405,-0.1139047,1.692382,0.1933676,-0.4220382,1.675349,0.05385793,0.06771577,1.684131,0.1144985,-0.4108522,1.651554,0.01059519,-0.1817633,1.686377,0.4061293,-0.04632187,1.47181,NA,NA,NotTracked,Unknown,
0.9072266,-0.3779297,0.2353516,-0.7768555,0.4428711,-0.07714844,0,0,-1,0,-2,-2,-1,-1,-22,0,3,1,12,4,0,-6,4.1875,4.1875,4.1875,-2.75,-2.75,-2.75,3.40991,3.198044,4.670468,7.869781,6.851739,0.1458908,0.02053435,-0.5009302,1.595978,0.3025273,0.2184025,1.525136,0.2233903,0.3316796,1.687322,-0.0226582,-0.4994252,1.596548,0.2770123,0.1792999,1.525715,0.2089077,-0.1138294,1.692261,0.1927086,-0.4221381,1.67527,0.05384398,0.067729,1.684035,0.1136305,-0.4110524,1.652496,0.01074958,-0.181143,1.68693,0.4012769,-0.04439276,1.468947,NA,NA,NotTracked,Unknown,
0.9018555,-0.3632813,0.2382813,-0.9707031,0.4111328,-0.05859375,0,-3,-1,-1,0,0,-2,0,-16,-11,-13,-4,-21,-8,-4,-1,-0.6875,-0.6875,-0.6875,9.875,9.875,9.875,3.413602,3.20153,4.670244,7.740457,6.880376,9.998091,0.02121915,-0.4985532,1.596007,0.3045133,0.2193608,1.511337,0.2228624,0.331358,1.686914,-0.0222208,-0.4997559,1.597687,0.281118,0.1799005,1.511,0.2081939,-0.1140512,1.692301,0.1924205,-0.4220336,1.675154,0.0537877,0.0679289,1.684065,0.1133932,-0.4110655,1.652723,0.01094277,-0.1805123,1.687499,0.3988579,-0.04473498,1.468477,NA,NA,NotTracked,Unknown,
0.9077148,-0.3608398,0.2333984,-1.035645,0.3681641,0.04492188,-2,-1,0,-1,-1,1,-1,0,24,5,11,-4,-3,-1,1,0,-10.625,-10.625,-10.625,2.9375,2.9375,2.9375,3.400669,3.19932,4.67041,7.406507,6.911906,9.622864,0.02070963,-0.4981105,1.595336,0.3093632,0.2188625,1.50484,0.2222915,0.3312339,1.686543,-0.02377201,-0.5078355,1.595808,0.2802716,0.1816384,1.521972,0.2076959,-0.1142234,1.692197,0.1921822,-0.4218746,1.674811,0.0539328,0.0679715,1.683776,0.1132804,-0.4110445,1.652706,0.01091624,-0.1797363,1.687588,0.3965444,-0.04498887,1.46805,NA,NA,NotTracked,Unknown,
0.902832,-0.3549805,0.2177734,-1.016602,0.3706055,0.08056641,-1,0,-1,-1,-1,0,-1,-3,5,-12,-9,-23,-23,-4,1,2,-7.5,-7.5,-7.5,-7.25,-7.25,-7.25,3.372838,3.197145,4.678269,7.384391,6.922308,9.604534,0.02016422,-0.498164,1.595362,0.3063538,0.2180939,1.513389,0.2221595,0.3311381,1.686049,-0.02386963,-0.5009323,1.595468,0.2831691,0.1747373,1.518818,0.2084572,-0.1133815,1.691311,0.192059,-0.4218041,1.674574,0.05430377,0.06800711,1.683223,0.1131868,-0.4110461,1.652671,0.01103506,-0.1794159,1.687529,0.3941244,-0.04533757,1.46731,NA,NA,NotTracked,Unknown,
0.9052734,-0.3564453,0.215332,-0.9267578,0.3793945,-0.006347656,-2,0,1,-1,-2,-1,-2,-2,-3,4,2,2,1,-3,-2,1,-6.5,-6.5,-6.5,-19.625,-19.625,-19.625,3.363355,3.194133,4.676496,7.645485,6.932616,9.926615,0.02118503,-0.4976206,1.594231,0.3048017,0.2166667,1.524625,0.2225782,0.3305365,1.685155,-0.0219049,-0.4977583,1.596462,0.2590127,0.2112159,1.567784,0.2091241,-0.1130159,1.690716,0.191882,-0.4218256,1.674297,0.05432025,0.06813807,1.682863,0.1130681,-0.4111271,1.652666,0.01105794,-0.1793806,1.6873,0.3921334,-0.04525865,1.46665,NA,NA,NotTracked,Unknown,
0.9150391,-0.3598633,0.2099609,-0.8481445,0.3808594,-0.09375,-1,-2,-1,-2,0,0,0,-1,5,-8,-19,-10,-3,-3,2,5,0.75,0.75,0.75,0.0625,0.0625,0.0625,3.362743,3.192064,4.672636,7.822485,6.914295,0.1307821,0.02093898,-0.4981409,1.594237,0.3056459,0.2228555,1.524539,0.2229734,0.330285,1.684464,-0.0225061,-0.4991658,1.595653,0.2675623,0.2127228,1.546381,0.2095776,-0.1127635,1.690276,0.1916612,-0.4218256,1.674186,0.05438937,0.06819482,1.68222,0.1128283,-0.411143,1.652788,0.01106915,-0.1792539,1.686989,0.3911229,-0.04495349,1.466079,NA,NA,NotTracked,Unknown,
0.9042969,-0.3637695,0.2255859,-0.9033203,0.3183594,-0.02539063,-1,-1,0,0,0,-1,-3,-1,3,11,-3,10,-3,-6,-4,-2,0.8125,0.8125,0.8125,20.4375,20.4375,20.4375,3.368661,3.193048,4.673731,7.637369,6.932207,9.894454,0.02137844,-0.4980823,1.592985,0.3128991,0.2218218,1.509619,0.2233224,0.3301443,1.683874,-0.02261813,-0.4988674,1.595717,0.2812657,0.1995388,1.497025,0.2090483,-0.1131067,1.690257,0.1916398,-0.4218416,1.673804,0.05489918,0.06800047,1.681159,0.1127957,-0.4112124,1.652597,0.01152331,-0.1780473,1.686564,0.3885792,-0.03529466,1.459617,NA,NA,NotTracked,Unknown,
0.9091797,-0.3662109,0.215332,-1.01709,0.2978516,0.02490234,-1,-1,-2,-2,0,1,-1,-2,-2,-3,-7,-15,-2,-2,1,1,-5.3125,-5.3125,-5.3125,22.125,22.125,22.125,3.3604,3.191416,4.675811,7.375793,6.961127,9.573619,0.02159739,-0.4977914,1.592542,0.3119883,0.2339758,1.503306,0.2235342,0.3300087,1.683627,-0.02229373,-0.5001953,1.594066,0.274286,0.2277614,1.496535,0.2087659,-0.1134712,1.69026,0.1918213,-0.4217544,1.673536,0.05601195,0.06784075,1.67969,0.1129484,-0.4111359,1.652364,0.01175416,-0.177815,1.686149,0.3891352,-0.03887231,1.461857,NA,NA,NotTracked,Unknown,
0.9038086,-0.3579102,0.2041016,-1.019043,0.3383789,0.08349609,-1,-1,-2,-1,-1,0,-1,0,-6,8,10,20,-5,-4,-2,-2,-3.3125,-3.3125,-3.3125,-2.625,-2.625,-2.625,3.349748,3.191354,4.680582,7.259782,6.984977,9.434314,0.02175082,-0.4978485,1.591993,0.3130031,0.2326275,1.505562,0.2238938,0.3299767,1.683393,-0.02223494,-0.4992922,1.594423,0.2795937,0.2114051,1.511519,0.2086116,-0.1138385,1.690219,0.1922851,-0.4218441,1.673105,0.0573616,0.06776523,1.678271,0.113394,-0.4111929,1.651865,0.01194238,-0.1777597,1.685649,0.3896025,-0.03994895,1.462606,NA,NA,NotTracked,Unknown,
0.9042969,-0.359375,0.1982422,-1.000977,0.3310547,0.07324219,-1,-3,-3,-1,-2,-1,-4,-2,-5,7,5,-5,22,-2,-4,5,-1.875,-1.875,-1.875,-15.375,-15.375,-15.375,3.338568,3.189157,4.68563,7.36079,6.988536,9.555679,0.02165914,-0.497888,1.592155,0.3141615,0.2190242,1.514838,0.2246445,0.3298918,1.683003,-0.02156582,-0.4987219,1.593899,0.2840727,0.1941552,1.545877,0.2085572,-0.1139105,1.690196,0.1924169,-0.4218279,1.67297,0.05808863,0.06799347,1.677627,0.1135052,-0.4111412,1.651781,0.01231031,-0.1778716,1.684979,0.3896206,-0.04027503,1.462818,NA,NA,NotTracked,Unknown,
0.90625,-0.3662109,0.203125,-0.9091797,0.3481445,-0.05810547,-1,-2,-4,-1,-1,-2,-1,-1,7,1,-6,-6,-7,2,2,3,5.875,5.875,5.875,-24.6875,-24.6875,-24.6875,3.341391,3.186786,4.688962,7.741868,6.953951,0.0183799,0.02195068,-0.4970005,1.59078,0.2768328,0.2498694,1.554298,0.2259519,0.3297739,1.682008,-0.02258648,-0.4994534,1.595437,0.2473113,0.215741,1.594814,0.21053,-0.1129201,1.688841,0.1926451,-0.4218666,1.672683,0.05848512,0.06803193,1.676837,0.1136621,-0.4111528,1.651719,0.0125917,-0.1784262,1.684136,0.389473,-0.04080545,1.462366,NA,NA,NotTracked,Unknown,
0.9091797,-0.359375,0.2211914,-0.9091797,0.3481445,-0.05810547,-1,0,-1,-3,-2,-1,-1,0,-11,-22,-1,-4,2,2,2,1,5.6875,5.6875,5.6875,-24.6875,-24.6875,-24.6875,3.352893,3.187147,4.688204,7.741868,6.953951,0.0183799,0.02190605,-0.4978245,1.592254,0.3153388,0.2199111,1.515429,0.2270477,0.33002,1.681203,-0.02195435,-0.4990536,1.594531,0.2904972,0.1842542,1.544333,0.2122549,-0.1122329,1.687805,0.193303,-0.421737,1.672105,0.05924482,0.06821969,1.675925,0.1142922,-0.4109229,1.65139,0.01292314,-0.1785034,1.683802,0.3899739,-0.04070277,1.462326,NA,NA,NotTracked,NotTracked,
0.9086914,-0.3613281,0.2177734,-0.878418,0.3168945,-0.02490234,-2,-3,-2,0,-2,0,-1,-1,-1,9,-5,9,3,-5,-1,0,-4.375,-4.375,-4.375,20.3125,20.3125,20.3125,3.363294,3.183608,4.676407,7.737418,6.947466,9.993236,0.02237424,-0.4975261,1.591686,0.3177579,0.2220491,1.500068,0.2273891,0.3297513,1.68107,-0.021042,-0.4978972,1.595054,0.2941868,0.1865025,1.485371,0.2115532,-0.112796,1.688014,0.1934358,-0.4217744,1.671896,0.06019103,0.06829331,1.675146,0.1143839,-0.4108953,1.651237,0.01322591,-0.1783181,1.683667,0.3914238,-0.04087832,1.46324,NA,NA,NotTracked,Unknown,
0.918457,-0.3530273,0.2006836,-0.7973633,0.3310547,0.1098633,-3,3,0,-1,-2,-1,-2,-2,-6,-5,-1,-3,-4,-2,-3,-3,1.625,1.625,1.625,16.4375,16.4375,16.4375,3.363549,3.183149,4.673823,7.143075,6.952343,9.305405,0.02284425,-0.4974446,1.590909,0.2861654,0.2604774,1.520044,0.227389,0.3299275,1.681278,-0.01952862,-0.4970297,1.594512,0.2672237,0.2682466,1.568,0.2111432,-0.1132812,1.688077,0.1937966,-0.4216865,1.671513,0.06156915,0.06832276,1.67663,0.114803,-0.4107014,1.65069,0.01380711,-0.178664,1.683251,0.3957734,-0.04631989,1.467743,NA,NA,NotTracked,Unknown,
0.9101563,-0.3481445,0.2080078,-0.7314453,0.3828125,0.2954102,-1,0,-2,0,-2,-1,1,-1,0,0,-6,5,6,0,0,0,6.8125,6.8125,6.8125,4.1875,4.1875,4.1875,3.372692,3.183313,4.673309,6.626592,6.774182,8.723867,0.02355789,-0.4975838,1.591812,0.3173829,0.1960498,1.467702,0.2275684,0.3308168,1.681901,-0.0196083,-0.498082,1.595226,0.2881595,0.1868857,1.512,0.2109116,-0.1133459,1.688082,0.1940746,-0.4215114,1.671197,0.06147909,0.06838282,1.676457,0.1150832,-0.4104395,1.650202,0.0141283,-0.1787875,1.683112,0.4033901,-0.05715113,1.477782,NA,NA,NotTracked,Unknown,
0.9150391,-0.3588867,0.2192383,-0.7148438,0.4267578,0.425293,-2,-1,-3,-1,-1,-1,-1,0,1,-4,-3,-2,-5,-2,1,1,10.0625,10.0625,10.0625,5,5,5,3.385724,3.181508,4.675158,6.406815,6.544308,8.460336,0.02310839,-0.4995715,1.589105,0.3049961,0.1746796,1.436506,0.2276298,0.3318766,1.682098,-0.01830315,-0.4945611,1.589725,0.271866,0.1748192,1.4898,0.2114839,-0.1128078,1.687088,0.1945026,-0.4212098,1.670413,0.06042019,0.06859544,1.676621,0.1155302,-0.4101213,1.649241,0.01448563,-0.1794578,1.682703,0.4127639,-0.076933,1.498925,NA,NA,NotTracked,Unknown,
0.9052734,-0.3603516,0.2265625,-0.6450195,0.4584961,0.5249023,-1,-1,-2,0,-2,-1,-1,-2,2,1,1,-5,-14,0,2,1,11.375,11.375,11.375,-8.25,-8.25,-8.25,3.397361,3.183584,4.691458,6.299959,6.333565,8.333965,0.0230155,-0.50079,1.590827,0.300447,0.1030507,1.40466,0.2276666,0.3323804,1.682357,-0.02079709,-0.5007428,1.593497,0.2507738,0.1171636,1.404667,0.2111756,-0.1134427,1.686023,0.1942796,-0.4230294,1.669809,0.05795894,0.06848717,1.677869,0.1154943,-0.4119154,1.649004,0.0143644,-0.1850555,1.682479,0.4210962,-0.1015538,1.52042,NA,NA,NotTracked,Unknown,
0.9042969,-0.3603516,0.2358398,-0.7207031,0.5097656,0.6132813,-2,-1,-1,0,0,-1,1,-2,13,4,2,-11,1,2,-1,0,6.125,6.125,6.125,-5.1875,-5.1875,-5.1875,3.401861,3.187564,4.700551,6.228599,6.080451,8.239318,0.02255141,-0.5012087,1.59114,0.295593,0.005501685,1.383529,0.2281013,0.332648,1.68245,-0.02121712,-0.498543,1.593862,0.2354947,0.007982526,1.40175,0.2106966,-0.1141034,1.686104,0.1944941,-0.4238695,1.669488,0.05723773,0.06769491,1.677941,0.1163599,-0.4130459,1.647513,0.01420568,-0.187627,1.682382,0.430201,-0.1320709,1.536649,NA,NA,NotTracked,Unknown,
0.9038086,-0.3706055,0.2216797,-0.3349609,0.6269531,0.8291016,0,-1,1,-1,-1,1,-1,0,10,10,4,5,3,1,-2,14,3.3125,3.3125,3.3125,-2.4375,-2.4375,-2.4375,3.397644,3.194227,4.711849,6.121132,5.17139,8.085571,0.02257029,-0.5010698,1.59097,0.2963143,-0.1023971,1.374266,0.2283065,0.3328571,1.682534,-0.02112314,-0.4989316,1.594244,0.2566654,-0.12946,1.3935,0.2107128,-0.1140753,1.685808,0.1945338,-0.4235314,1.669206,0.05551728,0.0672613,1.678947,0.1167846,-0.4124827,1.646212,0.01407617,-0.1901087,1.6824,0.4481918,-0.1294721,1.593848,NA,NA,NotTracked,Unknown,
0.9047852,-0.3652344,0.2329102,-0.1235352,0.640625,0.7998047,0,-2,-1,-1,-1,-3,-4,-1,-27,-13,0,3,1,-2,-1,-11,-3,-3,-3,19.25,19.25,19.25,3.39999,3.195149,4.71004,6.132435,4.721459,8.026859,0.02231363,-0.5006318,1.59069,0.2995072,-0.2157093,1.39065,0.2285772,0.3330062,1.682458,-0.0212885,-0.4979583,1.593359,0.2569527,-0.2149388,1.447,0.2107565,-0.1140491,1.685605,0.1942911,-0.4233949,1.668704,0.05449968,0.06695069,1.679125,0.1166118,-0.4123341,1.644475,0.01411392,-0.1913539,1.682265,0.4883915,-0.1532798,1.616145,NA,NA,NotTracked,Closed,
0.9130859,-0.3417969,0.2207031,0.309082,0.6230469,0.7915039,-1,-1,-3,0,-1,-2,0,-1,-31,-10,2,3,2,0,1,-3,-4.3125,-4.3125,-4.3125,0.5625,0.5625,0.5625,3.403862,3.192687,4.699524,6.16045,4.328217,7.982084,0.02303927,-0.4998411,1.590588,0.3255347,-0.3205276,1.422318,0.2287755,0.3331515,1.682394,-0.02108515,-0.4987301,1.593852,0.2878203,-0.3358077,1.489571,0.2105539,-0.1140825,1.685174,0.1933267,-0.4233715,1.667927,0.05383482,0.06695296,1.679278,0.1156241,-0.411938,1.642293,0.01401448,-0.1922535,1.682092,0.4420684,-0.1498896,1.657632,NA,NA,NotTracked,Unknown,
0.9082031,-0.34375,0.2304688,0.5400391,0.6655273,0.703125,0,-3,-1,-1,-2,1,-2,-1,18,6,9,4,2,0,1,-6,-4.75,-4.75,-4.75,-1.875,-1.875,-1.875,3.411097,3.188741,4.682003,6.202796,3.907313,7.933901,0.02357314,-0.5010336,1.590371,0.3439059,-0.3936521,1.472088,0.2289791,0.3331949,1.682317,-0.02080466,-0.4991806,1.593708,0.3437906,-0.4326554,1.501844,0.2104974,-0.1142714,1.684891,0.192967,-0.4238174,1.667637,0.05362234,0.06681764,1.67917,0.1152514,-0.4118966,1.641356,0.01395961,-0.1931917,1.681924,0.4384627,-0.1646964,1.657144,NA,NA,NotTracked,Unknown,
0.9121094,-0.3549805,0.2246094,0.7236328,0.6225586,0.6166992,-1,-1,1,1,-1,-2,1,-1,13,7,-3,-4,-3,-2,0,2,-4,-4,-4,0,0,0,3.411915,3.18676,4.671018,6.256679,3.650661,7.853061,0.02413263,-0.5006377,1.590904,0.3694928,-0.4551938,1.489785,0.2291307,0.3332317,1.682335,-0.02009549,-0.4988293,1.593416,0.3294869,-0.441274,1.49387,0.211092,-0.1147374,1.684806,0.1948851,-0.4246373,1.667598,0.0532551,0.0661065,1.678853,0.117498,-0.4128348,1.640519,0.01407895,-0.1950656,1.681729,0.4337804,-0.1822114,1.655095,NA,NA,NotTracked,Unknown,
0.9189453,-0.3447266,0.2163086,0.9238281,0.4331055,0.4116211,0,-1,-1,-2,-2,1,-1,-2,18,2,3,0,-1,-2,-1,2,-2.3125,-2.3125,-2.3125,6.3125,6.3125,6.3125,3.412235,3.185388,4.666296,6.34344,3.423794,7.737999,0.02375786,-0.5008795,1.591351,0.3905986,-0.499543,1.529311,0.2293299,0.3332086,1.682418,-0.02100412,-0.5002897,1.593448,0.3517771,-0.4705549,1.54825,0.2129587,-0.1155699,1.684824,0.2005831,-0.4263197,1.667739,0.05264226,0.06562741,1.67892,0.1238555,-0.4153478,1.639583,0.01390721,-0.1966991,1.681712,0.4293782,-0.1952897,1.652437,NA,NA,NotTracked,Unknown,
0.9082031,-0.3574219,0.2104492,1.054199,0.4580078,0.06542969,-1,-1,-2,-2,-1,-1,-1,0,0,0,-1,1,-1,2,1,1,4.375,4.375,4.375,1.0625,1.0625,1.0625,3.410067,3.186617,4.670846,6.519856,3.232123,7.572343,0.02473731,-0.5001953,1.590954,0.4075217,-0.5041227,1.56005,0.2294106,0.3332786,1.682401,-0.01927273,-0.4986483,1.594483,0.3654298,-0.4890929,1.565428,0.2150185,-0.1157868,1.68504,0.2049247,-0.4268765,1.668358,0.05236134,0.06547852,1.678845,0.1283233,-0.4164056,1.639707,0.01388106,-0.1973659,1.681547,0.4279507,-0.1990944,1.652169,NA,NA,NotTracked,NotTracked,
0.9121094,-0.3525391,0.2358398,0.9350586,0.3911133,0.2612305,-2,-2,-2,-2,0,-1,-1,1,-2,0,-3,-3,-3,4,9,-23,1.5625,1.5625,1.5625,22.9375,22.9375,22.9375,3.422395,3.182587,4.666516,6.552616,3.186295,7.566141,0.02405887,-0.5005596,1.591229,0.4076354,-0.5059667,1.570973,0.2294243,0.3333888,1.68232,-0.02072457,-0.5006992,1.59334,0.3671283,-0.496239,1.565727,0.2155302,-0.1157758,1.68506,0.2062781,-0.4268811,1.668609,0.05214079,0.06529768,1.678678,0.1296582,-0.4165285,1.639759,0.01379203,-0.1980043,1.681494,0.4280806,-0.2003196,1.654062,NA,NA,NotTracked,NotTracked,
0.9145508,-0.3491211,0.2260742,0.8334961,0.40625,0.3959961,-1,-1,1,0,-1,-1,-2,-1,-1,3,1,6,-3,14,0,5,-1.4375,-1.4375,-1.4375,2.125,2.125,2.125,3.424058,3.179031,4.663588,6.513835,3.197599,7.643306,0.02434348,-0.4999594,1.592914,0.4042408,-0.4990109,1.569214,0.2293973,0.3334722,1.682103,-0.02061162,-0.4981431,1.594831,0.3638018,-0.4703503,1.570318,0.2157812,-0.1157085,1.685106,0.2066814,-0.4266666,1.668819,0.05180246,0.06529631,1.678575,0.1300634,-0.4163628,1.639971,0.01376779,-0.1982946,1.681459,0.4296787,-0.2016241,1.657683,NA,NA,NotTracked,NotTracked,
0.9101563,-0.3476563,0.2324219,0.7954102,0.347168,0.3920898,-1,0,-2,-1,-3,0,-1,-2,-16,-5,0,-2,1,0,-1,5,-3,-3,-3,-10.1875,-10.1875,-10.1875,3.42585,3.178253,4.656186,6.428968,3.237122,7.713367,0.02417514,-0.5015401,1.592635,0.3988122,-0.496768,1.564621,0.2290998,0.332789,1.681628,-0.02050938,-0.4993181,1.593855,0.3621237,-0.4802537,1.563569,0.2158695,-0.1161473,1.685138,0.2067239,-0.4269181,1.668915,0.05115646,0.06452993,1.678441,0.1301026,-0.416701,1.640125,0.0135344,-0.1989042,1.681439,0.4306176,-0.2021202,1.660459,NA,NA,NotTracked,NotTracked,
0.9174805,-0.3476563,0.2192383,0.828125,0.3408203,0.3193359,-1,-2,-1,0,-1,-2,-1,0,4,-2,-2,0,-1,-2,0,3,-3.75,-3.75,-3.75,-10.875,-10.875,-10.875,3.419872,3.179471,4.655768,6.372689,3.269271,7.755999,0.02421178,-0.5006969,1.592971,0.3929603,-0.4916963,1.560863,0.2289655,0.3326392,1.681513,-0.02082105,-0.4989035,1.593793,0.3550754,-0.4740017,1.549614,0.215928,-0.1162833,1.685254,0.2067989,-0.4269751,1.669054,0.05067454,0.06424264,1.678491,0.1301768,-0.4168173,1.640387,0.0134914,-0.1993429,1.681495,0.430622,-0.2018709,1.661947,NA,NA,NotTracked,NotTracked,
0.9140625,-0.3535156,0.2177734,0.8686523,0.3359375,0.3100586,-2,-2,-1,-2,0,0,-3,0,-2,0,-1,1,0,-1,-2,-9,0.125,0.125,0.125,5.5,5.5,5.5,3.412636,3.181011,4.661157,6.332436,3.281768,7.800658,0.02539732,-0.4990468,1.59224,0.3885929,-0.487498,1.559964,0.2287538,0.332943,1.681247,-0.01921901,-0.4996137,1.594699,0.3500204,-0.4727831,1.543378,0.2158838,-0.1160433,1.685318,0.2066246,-0.4266442,1.669144,0.0498877,0.06468632,1.678566,0.1299643,-0.4165114,1.640504,0.01336891,-0.1992176,1.681414,0.4300649,-0.2000994,1.662712,NA,NA,NotTracked,NotTracked,
0.9125977,-0.3476563,0.2294922,0.8583984,0.362793,0.3046875,0,-2,-1,-1,0,-1,-1,0,-3,2,-2,-2,-2,-1,0,0,2.375,2.375,2.375,5.125,5.125,5.125,3.407147,3.181508,4.672139,6.305651,3.284163,7.845424,0.02376643,-0.4991064,1.594066,0.3861778,-0.4861303,1.56062,0.2285221,0.3336669,1.680838,-0.02075046,-0.4969202,1.595114,0.3479468,-0.4691054,1.545268,0.2157773,-0.1155149,1.685321,0.206344,-0.4259345,1.669459,0.04956043,0.06539792,1.67805,0.1296463,-0.4158177,1.64093,0.01322649,-0.199074,1.681376,0.429361,-0.1985302,1.663139,NA,NA,NotTracked,NotTracked,
