ALX,ALY,ALZ,ARX,ARY,ARZ,EMG0L,EMG1L,EMG2L,EMG3L,EMG4L,EMG5L,EMG6L,EMG7L,EMG0R,EMG1R,EMG2R,EMG3R,EMG4R,EMG5R,EMG6R,EMG7R,GLX,GLY,GLZ,GRX,GRY,GRZ,ORL,OPL,OYL,ORR,OPR,OYR,LHNX,LHNY,LHNZ,RHNX,RHNY,RHNZ,HX,HY,HZ,LTX,LTY,LTZ,RTX,RTY,RTZ,SpineMidX,SpineMidY,SpineMidZ,SpineBaseX,SpineBaseY,SpineBaseZ,ShoulderLeftX,ShoulderLeftY,ShoulderLeftZ,ShoulderRightX,ShoulderRightY,ShoulderRightZ,ElbowLeftX,ElbowLeftY,ElbowLeftZ,ElbowRightX,ElbowRightY,ElbowRightZ,Myo_Pose_left,Myo_Pose_Right,Kinect_pose_left,Kinect_pose_right
0.8959961,-0.4287109,0.1816406,0.8618164,0.4204102,0.2089844,2,0,-1,-1,-2,-2,-3,-11,0,1,0,4,-10,3,-3,0,-1.0625,-1.0625,-1.0625,-6.625,-6.625,-6.625,3.136915,3.226796,5.017635,6.807781,3.273416,9.077858,-0.08997633,-0.4024076,1.603922,0.2512662,-0.4056525,1.544098,0.1266172,0.4052907,1.738081,-0.04325299,-0.396292,1.601737,0.2234113,-0.382153,1.580583,0.1085417,-0.06251623,1.734706,0.09610643,-0.392706,1.714677,-0.0588598,0.1335767,1.71657,0.009264689,-0.3833361,1.68487,-0.1009024,-0.1305905,1.718496,0.3110967,-0.1197368,1.68298,NA,NA,Unknown,Closed,
0.8974609,-0.4077148,0.1699219,0.859375,0.4282227,0.1962891,-2,-1,0,1,0,0,-1,1,3,-8,0,-1,6,-1,6,5,-5,-5,-5,1.3125,1.3125,1.3125,3.151671,3.216191,5.005359,6.82297,3.257736,9.062746,-0.08956489,-0.403404,1.606166,0.2530052,-0.4084449,1.545067,0.1266201,0.4053372,1.737896,-0.0427936,-0.379658,1.610046,0.2274359,-0.3828197,1.585125,0.1082795,-0.06249387,1.734513,0.09583107,-0.3926944,1.714534,-0.05899898,0.1335823,1.716483,0.00900003,-0.383285,1.684744,-0.100973,-0.1306553,1.718587,0.3110642,-0.1195778,1.682909,NA,NA,Unknown,Closed,
0.890625,-0.4082031,0.1542969,0.875,0.3535156,0.2094727,3,0,-3,-1,-3,-1,-1,5,-1,-4,-5,-29,-14,0,-2,-3,4.6875,4.6875,4.6875,11.3125,11.3125,11.3125,3.151831,3.210869,5.004669,6.830859,3.238902,9.056475,-0.0893056,-0.4056715,1.608508,0.2566082,-0.4116127,1.549155,0.1266024,0.4053926,1.737796,-0.04287836,-0.38303,1.607901,0.2291362,-0.3837718,1.586943,0.1081477,-0.06248344,1.734376,0.09576634,-0.3927359,1.714472,-0.05909991,0.1335951,1.716499,0.008954627,-0.383313,1.68472,-0.1010279,-0.1310046,1.718792,0.3109668,-0.1195907,1.682922,NA,NA,Unknown,Unknown,
0.9013672,-0.4052734,0.1757813,0.847168,0.5541992,0.1899414,-1,-2,-3,-2,0,-3,-4,10,1,-5,-4,-4,-1,-4,-8,0,-3.625,-3.625,-3.625,2.5,2.5,2.5,3.144854,3.205644,5.011911,6.876409,3.235278,9.037125,-0.08974791,-0.4059375,1.60945,0.2575448,-0.4133951,1.556143,0.1265976,0.4055356,1.737297,-0.04259236,-0.3937469,1.597961,0.2296695,-0.3805954,1.589841,0.1079954,-0.06249391,1.734089,0.0957365,-0.3927596,1.714305,-0.05927907,0.133636,1.716372,0.008946723,-0.3833291,1.68453,-0.101135,-0.1312422,1.71874,0.3108048,-0.1200042,1.682582,NA,NA,Unknown,Unknown,
0.902832,-0.3789063,0.1474609,0.9091797,0.1640625,0.2216797,-8,-4,-3,-3,-2,-5,-8,-9,-1,1,3,1,-2,-2,5,3,0.4375,0.4375,0.4375,0.8125,0.8125,0.8125,3.14177,3.201736,5.023561,6.836605,3.206319,9.02932,-0.08955514,-0.4041927,1.609814,0.2607628,-0.4157185,1.563164,0.1265929,0.4055215,1.736874,-0.04243332,-0.3815685,1.608436,0.2277914,-0.3852305,1.58826,0.1079783,-0.06252173,1.733885,0.09584355,-0.392826,1.714064,-0.05942567,0.13357,1.716244,0.009082235,-0.383388,1.684239,-0.1011379,-0.1316274,1.718795,0.3106776,-0.1201497,1.682436,NA,NA,Unknown,Unknown,
0.9082031,-0.4013672,0.168457,0.8989258,0.3652344,0.2001953,-9,-5,-2,0,-3,-1,-1,-1,-2,3,1,1,-3,-1,-1,-5,5.125,5.125,5.125,-22.4375,-22.4375,-22.4375,3.136374,3.203111,5.032235,6.87762,3.18812,9.005327,-0.08995877,-0.404377,1.609495,0.2633933,-0.4169879,1.567182,0.1265824,0.4055723,1.736501,-0.0421583,-0.3804979,1.608039,0.2250323,-0.3905864,1.584878,0.1080849,-0.06250429,1.733586,0.09614585,-0.3928849,1.713738,-0.05949932,0.1335186,1.716109,0.00937426,-0.3834535,1.683979,-0.101329,-0.1325993,1.718765,0.3107179,-0.1211732,1.681863,NA,NA,Unknown,Unknown,
0.9008789,-0.4121094,0.184082,0.8847656,0.4365234,0.1933594,0,-4,-1,2,0,-2,-2,-6,-2,-5,-3,-1,5,0,-2,7,3.3125,3.3125,3.3125,2.75,2.75,2.75,3.139173,3.204929,5.033738,6.881608,3.184385,9.001864,-0.08948545,-0.4040315,1.607668,0.2642798,-0.4178407,1.567017,0.1264867,0.4056435,1.735954,-0.04251802,-0.3841745,1.604965,0.2261733,-0.3902317,1.58492,0.108157,-0.06253839,1.733029,0.09653466,-0.3929976,1.713192,-0.0596655,0.1334242,1.715816,0.00983147,-0.3836053,1.683423,-0.1015278,-0.1327871,1.718597,0.3107814,-0.1225774,1.681208,NA,NA,Unknown,Unknown,
0.8979492,-0.4033203,0.1606445,0.8935547,0.425293,0.1889648,0,-2,-3,-6,-4,-3,5,7,-22,-3,5,4,3,-1,-2,-21,5,5,5,-10.625,-10.625,-10.625,3.147722,3.211282,5.042075,6.864673,3.198634,8.999239,-0.08976095,-0.403945,1.607262,0.2647676,-0.4182822,1.565659,0.1265009,0.4056084,1.735564,-0.04251643,-0.3836052,1.605942,0.2261179,-0.3919103,1.584625,0.1082839,-0.06260824,1.732659,0.09679709,-0.3931282,1.712874,-0.05971059,0.1333237,1.715593,0.01012252,-0.3837758,1.683018,-0.1014456,-0.1332223,1.71862,0.3110036,-0.123141,1.680942,NA,NA,NotTracked,Unknown,
0.9692383,-0.4008789,0.1435547,0.9038086,0.3632813,0.2412109,2,0,-3,-1,-2,-1,4,-5,-1,-1,1,6,-1,2,-3,2,64.375,64.375,64.375,-5.6875,-5.6875,-5.6875,3.197438,3.2442,5.055027,6.78861,3.265396,8.998176,-0.08939545,-0.399021,1.596475,0.2613695,-0.4135693,1.553872,0.1266317,0.405579,1.734909,-0.04264587,-0.3840633,1.604794,0.2262418,-0.3900718,1.583614,0.1084852,-0.06259964,1.732209,0.09700443,-0.3931546,1.71257,-0.05977027,0.1333127,1.715324,0.01029276,-0.3838196,1.682747,-0.1014636,-0.1332182,1.718628,0.311233,-0.1231475,1.68086,NA,NA,Unknown,Unknown,
0.9365234,-0.578125,0.3374023,0.7910156,0.597168,0.2265625,-13,-12,-14,4,-7,-4,-9,-22,-15,-18,-28,-13,-6,-6,-16,-3,-12.4375,-12.4375,-12.4375,-71.3125,-71.3125,-71.3125,3.243422,3.335263,5.032391,6.767679,3.352413,8.993099,-0.0875788,-0.3865533,1.581525,0.2562045,-0.4026835,1.538199,0.1267484,0.4055663,1.734464,-0.03859264,-0.4089789,1.580154,0.2189101,-0.3985761,1.565677,0.1085871,-0.06268729,1.731752,0.09709479,-0.3932914,1.712231,-0.05996977,0.1332262,1.714989,0.01037868,-0.3840259,1.682484,-0.101878,-0.1328369,1.719219,0.3126833,-0.1221317,1.681025,NA,NA,Unknown,Closed,
1.038574,-0.3266602,0.1401367,0.9570313,0.5297852,0.3632813,1,4,-1,-17,7,1,-12,-1,3,-22,-6,4,-9,-2,0,28,138.375,138.375,138.375,-41.5625,-41.5625,-41.5625,3.401696,3.461764,5.048514,6.630736,3.533433,8.914972,-0.09213655,-0.3609417,1.555435,0.2524605,-0.3826799,1.511566,0.1269926,0.4055435,1.733826,-0.04763012,-0.3740255,1.580143,0.2062673,-0.3923761,1.530409,0.1086704,-0.06272963,1.731427,0.09707043,-0.3933693,1.712016,-0.0600355,0.1333257,1.714873,0.01036876,-0.3841643,1.682379,-0.1027483,-0.1316402,1.721251,0.3139454,-0.1211688,1.681962,NA,NA,Closed,Closed,
0.9047852,-0.6928711,0.5092773,0.5698242,0.7944336,0.4760742,1,-2,-6,-9,-9,-22,-19,-6,5,-4,-3,18,8,-2,81,4,-26.3125,-26.3125,-26.3125,32,32,32,3.404666,3.644005,5.080489,6.674651,3.774786,8.89198,-0.08451647,-0.3189521,1.516173,0.2330358,-0.3393527,1.493976,0.1271088,0.405465,1.732832,-0.04593414,-0.3167647,1.494286,0.1958582,-0.3941726,1.551778,0.1085232,-0.06281276,1.730939,0.09682769,-0.393413,1.711909,-0.05984818,0.1334886,1.714531,0.01021156,-0.3841437,1.682266,-0.1049654,-0.1204397,1.731326,0.3180312,-0.1139891,1.687537,NA,NA,Closed,Closed,
0.2539063,-0.7275391,0.456543,0.3383789,0.7607422,0.3618164,-2,-5,-30,-10,-8,-17,-7,-20,-2,-15,-11,-9,-31,6,-28,24,-9.3125,-9.3125,-9.3125,9.3125,9.3125,9.3125,3.375189,3.997236,5.096508,6.737829,4.029744,8.867383,-0.08656579,-0.2470121,1.464818,0.2303413,-0.2796279,1.437088,0.12714,0.4055012,1.731619,-0.0400928,-0.2399564,1.46972,0.1794589,-0.2893027,1.44745,0.1082783,-0.06274221,1.73073,0.09592949,-0.3931446,1.712238,-0.05967908,0.133997,1.714473,0.009522041,-0.3836192,1.682611,-0.104207,-0.1010164,1.737456,0.3218991,-0.1033323,1.690197,NA,NA,Unknown,Closed,
0.3510742,-0.7299805,0.3486328,0.4648438,0.6572266,0.3857422,-6,7,16,18,8,21,4,-7,9,-6,-18,-20,20,-2,-19,27,1.5625,1.5625,1.5625,13.5625,13.5625,13.5625,3.354875,4.210922,5.115755,6.762586,4.221205,8.84491,-0.08511414,-0.2009254,1.434053,0.2246338,-0.2373767,1.405625,0.1270294,0.4055157,1.731012,-0.04002744,-0.1974113,1.422536,0.1726438,-0.2459256,1.412667,0.1081981,-0.06263641,1.730665,0.09535639,-0.3926664,1.712371,-0.05961859,0.1343965,1.714608,0.00905701,-0.3829661,1.682858,-0.1006884,-0.09075632,1.736922,0.322232,-0.09644348,1.689016,NA,NA,Unknown,Unknown,
0.6572266,-0.7363281,0.4296875,0.5268555,0.703125,0.4013672,-3,1,-8,-20,-12,-18,6,-15,1,-2,-7,-3,0,1,15,4,-0.375,-0.375,-0.375,6.3125,6.3125,6.3125,3.346544,4.3516,5.133669,6.769772,4.366986,8.821976,-0.08652928,-0.175908,1.421689,0.219633,-0.2090038,1.386219,0.1270413,0.4055085,1.730969,-0.06475776,-0.1949141,1.3904,0.167308,-0.2176797,1.396,0.1081626,-0.06258499,1.730704,0.0947445,-0.3922231,1.712815,-0.05947262,0.1346908,1.715029,0.008555299,-0.3824504,1.683372,-0.100358,-0.08472587,1.733779,0.3225455,-0.09341527,1.68497,NA,NA,Unknown,Unknown,
0.5209961,-0.8046875,0.5136719,0.2202148,0.840332,0.4287109,-25,-7,-26,-28,-16,-10,-17,-20,0,-2,3,0,11,3,-1,-8,-12.6875,-12.6875,-12.6875,12.0625,12.0625,12.0625,3.33569,4.418073,5.145271,6.805239,4.487554,8.820844,-0.08751674,-0.1503118,1.417105,0.2182162,-0.1859205,1.378897,0.1270349,0.4054966,1.730982,-0.04368081,-0.1427453,1.422722,0.1687248,-0.1949321,1.389737,0.1081701,-0.06246492,1.73086,0.09441012,-0.3918384,1.713356,-0.05927632,0.1349564,1.715358,0.008339278,-0.3820027,1.683951,-0.1162715,-0.08362152,1.713868,0.3580146,-0.09587211,1.660361,NA,NA,Closed,Unknown,
0.2226563,-0.7797852,0.4536133,0.1704102,0.8217773,0.4316406,-5,-3,-7,-41,-11,-13,-3,4,1,-12,-1,5,-8,-6,-2,1,-4.25,-4.25,-4.25,6.4375,6.4375,6.4375,3.323646,4.489646,5.147385,6.808677,4.551274,8.819059,-0.0896329,-0.1350145,1.417851,0.2171354,-0.1697384,1.375605,0.1270542,0.4054963,1.731038,-0.04556016,-0.1285963,1.4148,0.1659377,-0.18036,1.398857,0.1080748,-0.06230356,1.731114,0.09422187,-0.3915868,1.713642,-0.05907586,0.1354708,1.716121,0.008195174,-0.3817281,1.684318,-0.1195374,-0.08166356,1.716258,0.3589481,-0.09611308,1.65647,NA,NA,Closed,Unknown,
0.2680664,-0.7705078,0.4633789,0.2202148,0.8505859,0.4360352,-6,-4,8,16,15,16,10,-3,10,-5,-8,2,8,8,-3,0,-10.8125,-10.8125,-10.8125,5.75,5.75,5.75,3.326331,4.524355,5.152648,6.808274,4.588295,8.816964,-0.09045129,-0.1333119,1.417357,0.2166922,-0.1612192,1.373799,0.1271507,0.4055426,1.731259,-0.04747887,-0.1259137,1.419046,0.1662531,-0.1688805,1.396875,0.1080637,-0.06215291,1.731267,0.09402964,-0.3912855,1.713937,-0.05885761,0.1359078,1.716673,0.008058379,-0.3813765,1.684677,-0.120518,-0.08069881,1.716048,0.3605302,-0.09508725,1.656087,NA,NA,Closed,Unknown,
0.2900391,-0.8530273,0.5019531,0.1958008,0.9038086,0.3979492,-6,-1,-13,-30,-8,-14,-18,-19,11,14,14,23,9,-6,-22,8,2.75,2.75,2.75,2.875,2.875,2.875,3.321261,4.524282,5.152037,6.808151,4.619811,8.814993,-0.09024368,-0.1343709,1.415815,0.2162585,-0.1546829,1.372283,0.1271961,0.4055129,1.731387,-0.04618791,-0.1293573,1.416753,0.1651899,-0.1621439,1.38525,0.1080825,-0.0620187,1.73158,0.09394518,-0.3909839,1.714296,-0.05857912,0.1363681,1.717064,0.007999199,-0.3810956,1.685094,-0.1198158,-0.08471115,1.70022,0.361973,-0.09453109,1.656276,NA,NA,Closed,Closed,
0.2773438,-0.8696289,0.472168,0.1879883,0.8383789,0.4174805,3,-6,-42,-28,-12,-1,-2,-21,8,9,-5,-10,0,6,12,12,4.25,4.25,4.25,6.3125,6.3125,6.3125,3.318017,4.530723,5.154709,6.804296,4.625885,8.812658,-0.09102958,-0.1333671,1.414737,0.2151973,-0.1511167,1.372165,0.1272253,0.4055907,1.731658,-0.0471098,-0.1278485,1.416511,0.1636823,-0.1618163,1.385914,0.1080712,-0.06188934,1.731782,0.09387548,-0.390726,1.714571,-0.05862044,0.1365618,1.717468,0.007945473,-0.3808435,1.685447,-0.1205919,-0.08399325,1.699342,0.3636687,-0.09442899,1.6559,NA,NA,Closed,Unknown,
0.2514648,-0.8222656,0.4824219,0.2270508,0.8515625,0.4414063,21,8,-1,18,8,9,5,-9,-7,-1,-1,-2,4,-5,-6,-10,-0.3125,-0.3125,-0.3125,6.25,6.25,6.25,3.312687,4.537406,5.153966,6.806203,4.598903,8.80948,-0.09184017,-0.1336837,1.41363,0.2150654,-0.1542429,1.370966,0.1272186,0.4055519,1.731737,-0.04803922,-0.1259079,1.417248,0.1655143,-0.1641123,1.386253,0.1080048,-0.061791,1.732026,0.09383437,-0.390511,1.714954,-0.0586235,0.1365938,1.717534,0.007933521,-0.3806489,1.685808,-0.1233954,-0.07979454,1.706834,0.3639331,-0.09380805,1.654881,NA,NA,Closed,Unknown,
0.3037109,-0.831543,0.4594727,0.2290039,0.7861328,0.4023438,-4,-1,-25,-19,-3,-9,1,-5,-2,-7,-8,1,-2,-21,2,-9,2.25,2.25,2.25,-6.125,-6.125,-6.125,3.31389,4.524154,5.157485,6.79783,4.556165,8.802686,-0.09175441,-0.1381504,1.413756,0.2175061,-0.1624454,1.371848,0.1271914,0.4055393,1.731763,-0.04814889,-0.1298603,1.416777,0.1651936,-0.1801035,1.384,0.1080164,-0.06178707,1.7321,0.0938265,-0.3904726,1.715107,-0.05858262,0.136622,1.717592,0.007961323,-0.3806176,1.685915,-0.1244367,-0.0802305,1.707686,0.3638194,-0.0934066,1.654758,NA,NA,Closed,Unknown,
0.262207,-0.7661133,0.4667969,0.237793,0.7719727,0.3828125,-45,-4,9,-6,-1,6,6,9,-6,-9,-8,2,35,5,-45,-1,0.375,0.375,0.375,2.6875,2.6875,2.6875,3.318028,4.476542,5.149354,6.804225,4.464485,8.79667,-0.09100049,-0.1515738,1.415437,0.220476,-0.1809775,1.37473,0.1272046,0.4055456,1.731736,-0.04799914,-0.1434138,1.415666,0.1716564,-0.1926311,1.385437,0.1079933,-0.06177187,1.732138,0.09381435,-0.3904531,1.715158,-0.05869237,0.1366334,1.71765,0.007962042,-0.3806059,1.685943,-0.1249238,-0.07995595,1.709776,0.3643543,-0.0920722,1.656416,NA,NA,Closed,Unknown,
0.3203125,-0.7387695,0.4599609,0.2651367,0.7973633,0.371582,15,7,17,7,1,-1,-2,4,4,11,15,16,-20,-2,-27,1,9.5,9.5,9.5,-15.4375,-15.4375,-15.4375,3.33302,4.376503,5.134343,6.799702,4.302378,8.802063,-0.08832745,-0.1890857,1.422612,0.2239263,-0.2245697,1.384737,0.1272077,0.4055294,1.73178,-0.05342431,-0.1730363,1.40537,0.1738643,-0.2332079,1.4044,0.1079651,-0.06177316,1.732186,0.09374209,-0.3904699,1.715125,-0.05868587,0.1366032,1.717627,0.007902999,-0.3806221,1.685907,-0.1237776,-0.08153696,1.712708,0.3621555,-0.09304877,1.656729,NA,NA,Closed,Unknown,
0.4472656,-0.7402344,0.4208984,0.5869141,0.7578125,0.4301758,-10,-4,-5,3,-4,-6,0,8,-9,-2,-4,-8,19,-18,-48,-1,-12,-12,-12,-6.0625,-6.0625,-6.0625,3.347832,4.207336,5.114026,6.777286,4.092113,8.808292,-0.08407877,-0.2441253,1.44768,0.2329507,-0.2812284,1.418712,0.1272839,0.4055439,1.731952,-0.05107349,-0.2323567,1.41279,0.1824728,-0.3095712,1.433077,0.1078419,-0.0617875,1.732242,0.09352208,-0.3906147,1.714992,-0.05856969,0.1364424,1.717522,0.00777538,-0.3806704,1.685842,-0.1058833,-0.08748961,1.721363,0.3328886,-0.09117416,1.668656,NA,NA,Unknown,Unknown,
0.3764648,-0.7705078,0.3481445,0.7275391,0.800293,0.3505859,-4,3,-10,2,4,2,9,-8,5,1,-5,-3,12,-5,81,16,44.0625,44.0625,44.0625,-18.5625,-18.5625,-18.5625,3.377594,4.022726,5.083653,6.752704,3.809391,8.807362,-0.08097396,-0.3031655,1.48395,0.2424657,-0.3280321,1.45299,0.1274604,0.4055844,1.732462,-0.04346953,-0.2960321,1.450132,0.2112856,-0.3299229,1.400571,0.1078243,-0.06192768,1.732281,0.09353156,-0.3912989,1.714629,-0.05856446,0.1362662,1.717521,0.007820942,-0.3813229,1.685469,-0.1038938,-0.09097665,1.721561,0.3278772,-0.09257217,1.668881,NA,NA,Closed,Unknown,
0.8041992,-0.8217773,0.4140625,0.8115234,0.6469727,0.2470703,1,0,110,17,3,7,4,12,4,-5,-9,-31,-34,4,-22,-2,-49.4375,-49.4375,-49.4375,38.4375,38.4375,38.4375,3.347352,3.798681,5.085429,6.743191,3.620537,8.826115,-0.0680762,-0.3476937,1.537037,0.2523192,-0.3608813,1.483413,0.127603,0.4056347,1.732823,-0.01180619,-0.3408023,1.594929,0.2754021,-0.3683703,1.44403,0.1079669,-0.06224933,1.732103,0.0941419,-0.3923782,1.713499,-0.05850232,0.1359477,1.717352,0.00829439,-0.3827879,1.684243,-0.1005849,-0.09995274,1.720731,0.3210517,-0.1019244,1.668867,NA,NA,Closed,Unknown,
0.7578125,-0.2333984,0.4824219,0.8935547,0.6113281,0.2197266,3,8,67,-5,4,1,8,22,-16,-10,4,7,6,4,-5,-2,20.125,20.125,20.125,24.9375,24.9375,24.9375,3.434733,3.614661,5.049681,6.752889,3.445379,8.820637,-0.08264647,-0.3704747,1.551124,0.2620092,-0.3813745,1.510999,0.1277076,0.4056317,1.73315,-0.03720472,-0.380551,1.524344,0.2827312,-0.3930004,1.4727,0.1086264,-0.06279683,1.731811,0.0953471,-0.393349,1.712554,-0.0582873,0.1353487,1.717157,0.009310283,-0.3841878,1.683272,-0.0968051,-0.1119551,1.717005,0.31756,-0.1099846,1.669141,NA,NA,Closed,Unknown,
0.9951172,-0.828125,0.2363281,0.8930664,0.4936523,0.2768555,-3,-6,-35,4,-1,-1,4,-8,-9,-14,-4,9,8,2,9,-25,6.5625,6.5625,6.5625,-0.9375,-0.9375,-0.9375,3.335994,3.463662,5.084157,6.755051,3.37632,8.807889,-0.08429985,-0.3818769,1.569548,0.2700269,-0.391391,1.530642,0.1276996,0.4055901,1.733196,-0.03982295,-0.3967614,1.543231,0.289018,-0.3819457,1.50015,0.1090997,-0.06312236,1.731635,0.09666436,-0.3940426,1.711972,-0.05791947,0.1343331,1.716636,0.01053967,-0.3850937,1.682724,-0.09503789,-0.1184192,1.715548,0.3154185,-0.1153714,1.670404,NA,NA,Closed,Unknown,
0.84375,-0.6196289,0.2246094,0.8037109,0.5317383,0.2578125,6,4,-47,-22,-2,11,9,7,-5,1,-6,-27,-37,-8,-3,-22,-25.9375,-25.9375,-25.9375,-17.375,-17.375,-17.375,3.321979,3.398769,5.092027,6.768717,3.358479,8.774808,-0.08619513,-0.3828528,1.577873,0.2748138,-0.3954371,1.540436,0.1277291,0.4055591,1.733176,-0.04267227,-0.3972845,1.549579,0.3042371,-0.4033047,1.510154,0.1096375,-0.0634964,1.731346,0.09746027,-0.3944883,1.71167,-0.05781173,0.133732,1.716316,0.0112535,-0.3856863,1.682505,-0.09498116,-0.1200486,1.715577,0.3149415,-0.1186864,1.672012,NA,NA,Unknown,Unknown,
0.8046875,-0.5537109,0.3041992,0.8164063,0.4467773,0.2880859,-20,-3,20,13,3,2,-13,-45,-1,-3,-2,-16,16,-2,2,1,-22.0625,-22.0625,-22.0625,-1.0625,-1.0625,-1.0625,3.293412,3.389957,5.110168,6.763079,3.360397,8.767631,-0.08668137,-0.3822455,1.576185,0.2778886,-0.3978032,1.541967,0.1278577,0.4055212,1.733116,-0.04260853,-0.3971394,1.549644,0.3009861,-0.3710817,1.517777,0.110254,-0.06373035,1.73141,0.09836277,-0.3946893,1.711778,-0.05791654,0.1335159,1.716248,0.01207321,-0.3859696,1.68258,-0.09504214,-0.1216591,1.715978,0.3150735,-0.1212259,1.673626,NA,NA,Unknown,Closed,
0.7949219,-0.4736328,0.2773438,0.8305664,0.4462891,0.2817383,4,-3,-62,-12,-5,-12,-1,27,-3,-4,0,5,-4,1,-1,-1,-10.0625,-10.0625,-10.0625,9.875,9.875,9.875,3.2917,3.406014,5.104246,6.768933,3.368185,8.7666,-0.08577137,-0.3811597,1.574889,0.2787481,-0.3974718,1.540457,0.12812,0.4054356,1.732891,-0.04319652,-0.3944975,1.543871,0.3178579,-0.4276927,1.515222,0.1106981,-0.06392001,1.731421,0.09913506,-0.394924,1.711786,-0.05800065,0.1331441,1.716041,0.0128143,-0.3862863,1.682531,-0.09526055,-0.1218212,1.715949,0.315348,-0.1217129,1.674518,NA,NA,Unknown,Unknown,
0.8393555,-0.4423828,0.2319336,0.8408203,0.4257813,0.2324219,-3,-11,-44,-13,0,2,-8,-17,1,-1,2,2,1,4,16,-2,-7.5625,-7.5625,-7.5625,0.8125,0.8125,0.8125,3.281725,3.415119,5.100873,6.774255,3.358737,8.756119,-0.08541519,-0.3806485,1.573049,0.2785883,-0.3974314,1.539648,0.1284136,0.4054487,1.732795,-0.04248969,-0.3950162,1.544733,0.3024534,-0.374073,1.514654,0.1111663,-0.06411793,1.731358,0.09955798,-0.3950738,1.711728,-0.05783099,0.1329259,1.715739,0.01322136,-0.3864323,1.682459,-0.09537167,-0.122688,1.715495,0.315448,-0.12265,1.67512,NA,NA,Closed,Unknown,
0.8544922,-0.4624023,0.2182617,0.7880859,0.3896484,0.1948242,5,2,-46,-9,1,-1,-3,86,-5,-2,1,1,-2,8,-1,-6,7.3125,7.3125,7.3125,-14.8125,-14.8125,-14.8125,3.268696,3.407987,5.116046,6.774118,3.323414,8.726325,-0.0865001,-0.381014,1.57606,0.2802305,-0.4001358,1.541401,0.1287933,0.4054278,1.732713,-0.0423873,-0.3893599,1.558926,0.3008962,-0.4050685,1.509754,0.1116966,-0.06433979,1.731225,0.0999698,-0.3952628,1.711642,-0.05770614,0.1327688,1.715501,0.01361449,-0.3866194,1.682295,-0.09538925,-0.122946,1.715423,0.3156876,-0.1233805,1.675456,NA,NA,Closed,Unknown,
0.8276367,-0.4399414,0.1962891,0.8735352,0.3935547,0.1821289,-3,2,8,-1,2,-2,-13,-22,-2,1,0,2,5,2,6,-3,35.9375,35.9375,35.9375,-36.0625,-36.0625,-36.0625,3.249816,3.37781,5.181101,6.81458,3.271523,8.629921,-0.09213191,-0.3858309,1.579937,0.2856689,-0.4098583,1.546157,0.1290552,0.4054188,1.732715,-0.0599428,-0.3929565,1.5346,0.3246719,-0.4315355,1.536412,0.1119312,-0.06441136,1.731236,0.1001301,-0.3952923,1.711628,-0.05750459,0.1326808,1.715368,0.01374169,-0.3866306,1.682248,-0.09585994,-0.1248912,1.715745,0.3158961,-0.1249601,1.676655,NA,NA,Closed,Unknown,
0.8588867,-0.4365234,0.2607422,0.9692383,0.3271484,0.2421875,40,3,-1,1,-7,2,-16,57,-5,-1,-1,0,1,3,21,-33,58.8125,58.8125,58.8125,-36.6875,-36.6875,-36.6875,3.215807,3.291455,5.355018,6.799887,3.209616,8.562962,-0.1063335,-0.3915934,1.587384,0.2927143,-0.4205687,1.548979,0.1295152,0.4054922,1.732893,-0.09013798,-0.4020181,1.537176,0.2955083,-0.4360084,1.502212,0.1120511,-0.06446602,1.731191,0.1001666,-0.3953165,1.711654,-0.05746393,0.1326331,1.715215,0.01377007,-0.3866124,1.682253,-0.0967475,-0.1275083,1.71713,0.3162894,-0.1267032,1.678271,NA,NA,Unknown,Closed,
0.8564453,-0.3598633,0.1342773,0.9213867,0.4609375,0.1933594,-38,-8,-4,-5,-5,-5,-13,-30,-13,-6,-5,-5,-2,-4,-19,26,23.4375,23.4375,23.4375,-28.875,-28.875,-28.875,3.18429,3.234111,5.478359,6.812772,3.156993,8.501505,-0.1220086,-0.4006764,1.608659,0.3069564,-0.4315834,1.554639,0.1296282,0.4054477,1.732798,-0.06411032,-0.371191,1.630316,0.3369855,-0.4321828,1.546667,0.1120111,-0.06453224,1.73114,0.1000103,-0.3954456,1.711801,-0.0575868,0.1323915,1.714934,0.01372104,-0.3866152,1.682371,-0.09773412,-0.1312263,1.718539,0.3166531,-0.1296027,1.680747,NA,NA,NotTracked,Unknown,
1.010742,-0.2314453,0.1533203,0.8823242,0.06835938,0.2299805,-14,45,15,1,2,1,2,-1,4,1,2,2,3,3,-13,12,-48.25,-48.25,-48.25,21.6875,21.6875,21.6875,3.0341,3.12811,5.602028,6.754233,3.077468,8.522579,-0.1337661,-0.4064283,1.6304,0.317431,-0.4369594,1.573068,0.1296482,0.4055352,1.732832,-0.06441674,-0.3780678,1.630235,0.3548241,-0.4586949,1.567,0.112046,-0.06455033,1.731154,0.09998033,-0.3955151,1.712174,-0.05763868,0.1323474,1.71486,0.0137747,-0.3865083,1.682791,-0.09817803,-0.1319814,1.720215,0.3170676,-0.1306946,1.682536,NA,NA,NotTracked,NotTracked,
0.8984375,-0.3842773,0.2216797,0.9179688,0.378418,0.2211914,-14,-40,27,0,-2,-4,0,-3,1,1,1,0,-3,-13,2,10,-74.4375,-74.4375,-74.4375,58.0625,58.0625,58.0625,2.920431,3.047775,5.602248,6.758573,3.023288,8.631048,-0.1216167,-0.4135858,1.652311,0.3065374,-0.4427436,1.599831,0.1295504,0.4056263,1.732599,-0.07159607,-0.4209523,1.634264,0.3427619,-0.4565192,1.568111,0.1120457,-0.06464187,1.731052,0.09983194,-0.3956617,1.712319,-0.05779585,0.1322379,1.714619,0.0137105,-0.3865035,1.682942,-0.09944578,-0.1344025,1.722233,0.3175516,-0.132519,1.685128,NA,NA,NotTracked,NotTracked,
0.9599609,-0.3188477,0.1577148,0.953125,0.4619141,0.1420898,-4,-25,-10,0,-1,-9,-29,-25,5,1,-3,-3,-3,3,5,11,-30.4375,-30.4375,-30.4375,57.625,57.625,57.625,3.014649,3.002115,5.433244,6.681785,2.983655,8.841515,-0.1069007,-0.422013,1.657222,0.2937156,-0.4471289,1.612095,0.1294373,0.4056765,1.732326,-0.06382644,-0.4068348,1.624482,0.3393955,-0.4643298,1.600833,0.1120903,-0.06473511,1.73073,0.09980665,-0.3957145,1.712272,-0.05808703,0.1318961,1.713945,0.01370872,-0.3864973,1.682917,-0.09904584,-0.1377105,1.723911,0.3166273,-0.1332678,1.688686,NA,NA,NotTracked,NotTracked,
0.9545898,-0.3632813,0.04296875,0.9467773,0.2045898,0.1318359,-2,8,-6,-5,-3,-2,-6,-13,1,-1,-1,0,-3,-4,1,0,2.3125,2.3125,2.3125,33.3125,33.3125,33.3125,3.113195,2.994226,5.312025,6.568056,2.986473,8.992781,-0.09253327,-0.4190301,1.653049,0.2818629,-0.4408248,1.616489,0.1291608,0.4056439,1.731747,-0.05554089,-0.4297994,1.608765,0.3172573,-0.4674313,1.609462,0.1120175,-0.06489223,1.730018,0.09979948,-0.3957562,1.712046,-0.05829536,0.1313631,1.713388,0.01369779,-0.3864979,1.682673,-0.09773718,-0.1379434,1.725165,0.3154934,-0.1322757,1.692232,NA,NA,NotTracked,NotTracked,
0.8945313,-0.3740234,-0.08398438,0.8925781,0.4892578,0.06933594,7,37,2,-1,-3,0,6,18,-4,-5,-3,-2,1,14,-3,-12,-53.1875,-53.1875,-53.1875,34.75,34.75,34.75,3.115863,2.991922,5.24851,6.695364,2.981964,8.95933,-0.0903869,-0.4225083,1.652906,0.2802901,-0.4428799,1.618554,0.1287315,0.4056715,1.7312,-0.05132057,-0.4087203,1.608079,0.3179234,-0.4481359,1.6192,0.1119514,-0.06494197,1.729655,0.0998466,-0.395756,1.711862,-0.05870473,0.1309509,1.712942,0.01373131,-0.3864973,1.682495,-0.09556123,-0.1387095,1.726317,0.3150744,-0.1316039,1.693836,NA,NA,NotTracked,NotTracked,
0.9584961,-0.1743164,0.1811523,0.9399414,0.1992188,0.2236328,1,-15,-1,-2,-1,2,-2,-13,-4,-3,-1,0,0,13,0,-5,-34.375,-34.375,-34.375,4.25,4.25,4.25,3.040095,2.973212,5.259266,6.637495,2.985356,9.011477,-0.09132725,-0.4225725,1.65304,0.2803326,-0.4430716,1.616955,0.1283942,0.4056487,1.730588,-0.05279643,-0.4154737,1.609759,0.3187966,-0.4508094,1.613678,0.1118974,-0.06503599,1.729346,0.09981611,-0.3957781,1.711748,-0.05892214,0.1307,1.71266,0.01370465,-0.3865027,1.682372,-0.09530848,-0.1392139,1.72689,0.3148603,-0.1312343,1.69491,NA,NA,NotTracked,NotTracked,
0.9360352,-0.3745117,0.168457,0.9423828,0.2661133,0.06494141,11,-5,2,0,-4,-3,9,8,0,0,-1,-2,-2,-8,0,2,-10.125,-10.125,-10.125,-1.8125,-1.8125,-1.8125,3.053356,2.980952,5.201077,6.67093,2.986004,8.984875,-0.09046101,-0.4218315,1.651255,0.2792025,-0.4433964,1.615821,0.1280437,0.4055822,1.729702,-0.05247623,-0.4135182,1.609178,0.3185022,-0.449511,1.62034,0.1117253,-0.06526788,1.728635,0.09980143,-0.3958139,1.711275,-0.0591411,0.1304536,1.711897,0.01369328,-0.3865333,1.681941,-0.09518235,-0.1392536,1.726863,0.3146952,-0.1311483,1.695094,NA,NA,NotTracked,NotTracked,
0.9550781,-0.2587891,0.03759766,0.9326172,0.2216797,0.2070313,-1,18,1,0,-1,-3,4,2,-2,-1,-1,-1,-5,-1,-10,-2,-5.625,-5.625,-5.625,16.0625,16.0625,16.0625,3.047321,2.9821,5.207692,6.673779,2.986573,8.998844,-0.09033096,-0.4229764,1.651472,0.2788396,-0.4434803,1.615732,0.1278926,0.4055182,1.729383,-0.0507338,-0.4186881,1.606663,0.3182201,-0.447575,1.61667,0.1116677,-0.06538339,1.72833,0.09968796,-0.3958452,1.71104,-0.05924915,0.1302574,1.71165,0.01358019,-0.3865833,1.681687,-0.09499062,-0.1387081,1.726709,0.3145995,-0.1309191,1.695504,NA,NA,NotTracked,NotTracked,
