ALX,ALY,ALZ,ARX,ARY,ARZ,EMG0L,EMG1L,EMG2L,EMG3L,EMG4L,EMG5L,EMG6L,EMG7L,EMG0R,EMG1R,EMG2R,EMG3R,EMG4R,EMG5R,EMG6R,EMG7R,GLX,GLY,GLZ,GRX,GRY,GRZ,ORL,OPL,OYL,ORR,OPR,OYR,LHNX,LHNY,LHNZ,RHNX,RHNY,RHNZ,HX,HY,HZ,LTX,LTY,LTZ,RTX,RTY,RTZ,SpineMidX,SpineMidY,SpineMidZ,SpineBaseX,SpineBaseY,SpineBaseZ,ShoulderLeftX,ShoulderLeftY,ShoulderLeftZ,ShoulderRightX,ShoulderRightY,ShoulderRightZ,ElbowLeftX,ElbowLeftY,ElbowLeftZ,ElbowRightX,ElbowRightY,ElbowRightZ,Myo_Pose_left,Myo_Pose_Right,Kinect_pose_left,Kinect_pose_right
0.9228516,-0.3510742,0.1655273,0.9013672,0.293457,0.2299805,1,-6,-4,-1,-1,1,0,0,-2,2,1,-1,1,1,-8,6,2.25,2.25,2.25,1.4375,1.4375,1.4375,3.238903,3.131606,5.145511,6.603185,3.130106,9.157746,-0.09851304,-0.4119118,1.633844,0.267498,-0.4246481,1.590256,0.1244622,0.4054271,1.733121,-0.1494069,-0.4180906,1.637424,0.3192426,-0.444202,1.585181,0.1053562,-0.06552196,1.729422,0.09325802,-0.3951598,1.712328,-0.06775514,0.1319316,1.721381,0.007386407,-0.3857317,1.681924,-0.1060719,-0.1435064,1.73328,0.3123565,-0.1300644,1.701099,NA,NA,NotTracked,NotTracked,
0.9189453,-0.3564453,0.1723633,0.9023438,0.328125,0.2265625,-2,-5,-2,-1,1,4,4,3,-1,0,1,-3,2,-2,-8,1,-2.4375,-2.4375,-2.4375,-7.125,-7.125,-7.125,3.247409,3.138522,5.13718,6.60405,3.135127,9.15715,-0.09841605,-0.4112174,1.632884,0.2665792,-0.4242573,1.589154,0.1244109,0.4054074,1.732925,-0.1495373,-0.4181382,1.636951,0.3161794,-0.4447451,1.576811,0.1052492,-0.06554117,1.729192,0.09314619,-0.3952044,1.712031,-0.06779191,0.1319477,1.721362,0.007270145,-0.3857599,1.681616,-0.1060571,-0.1432031,1.733268,0.3123058,-0.1301554,1.700973,NA,NA,NotTracked,NotTracked,
0.9140625,-0.3432617,0.1801758,0.9121094,0.331543,0.2182617,5,-1,-1,-2,1,-3,-1,5,0,-3,-5,-3,-6,1,-1,2,4.4375,4.4375,4.4375,-4.5,-4.5,-4.5,3.257959,3.14266,5.134088,6.601261,3.137305,9.150194,-0.09877218,-0.4118739,1.634741,0.2662711,-0.4241396,1.589615,0.1243394,0.4054311,1.732873,-0.1502684,-0.4187964,1.639247,0.3142798,-0.4476445,1.571071,0.1052282,-0.06554303,1.729151,0.09306061,-0.3951871,1.711964,-0.06792075,0.1319909,1.721436,0.00718689,-0.3857591,1.681582,-0.1060508,-0.1431999,1.733327,0.3122539,-0.130123,1.700823,NA,NA,NotTracked,NotTracked,
0.9272461,-0.362793,0.1791992,0.8725586,0.3803711,0.2407227,6,0,-2,-1,-22,-38,-3,2,5,2,1,12,2,-4,-8,-10,5,5,5,-28.3125,-28.3125,-28.3125,3.257239,3.143692,5.139455,6.597468,3.161246,9.104134,-0.09878803,-0.4110004,1.633187,0.2662777,-0.4236131,1.588174,0.124239,0.4054244,1.732752,-0.1501605,-0.4183828,1.637389,0.3160012,-0.4448663,1.574935,0.1050288,-0.06543925,1.729048,0.09282599,-0.3951095,1.711834,-0.06819252,0.1322764,1.721619,0.0069506,-0.3856422,1.681369,-0.1060646,-0.1431981,1.733397,0.3122075,-0.130003,1.700665,NA,NA,NotTracked,NotTracked,
0.9775391,-0.3681641,0.1918945,1.02832,0.3847656,0.2177734,-2,-1,-2,-6,9,41,-1,-4,17,7,-11,10,9,0,-3,7,19.4375,19.4375,19.4375,-105.6875,-105.6875,-105.6875,3.301695,3.175395,5.155384,6.575845,3.212405,8.976965,-0.09816346,-0.4085628,1.62845,0.2666545,-0.4211042,1.58393,0.124114,0.4054234,1.732572,-0.1466887,-0.4097746,1.62625,0.3179442,-0.4431662,1.566385,0.1049382,-0.06542062,1.728903,0.0927362,-0.3951206,1.711693,-0.06828259,0.1322455,1.72161,0.006859124,-0.38566,1.681229,-0.1060928,-0.1432642,1.733568,0.3120905,-0.1300595,1.700671,NA,NA,NotTracked,NotTracked,
1.111816,-0.4116211,0.2358398,1.051758,0.2802734,0.3491211,4,0,-4,6,-104,-86,-10,6,0,-1,-2,6,-8,-2,-8,-27,98.4375,98.4375,98.4375,-34.625,-34.625,-34.625,3.382165,3.258928,5.175324,6.5002,3.317306,8.905723,-0.09599624,-0.3958063,1.618074,0.2669781,-0.4102325,1.573027,0.1240669,0.4054705,1.732366,-0.1469789,-0.4101444,1.609643,0.3137792,-0.4299125,1.538333,0.1049388,-0.06538548,1.728727,0.09275499,-0.395108,1.71159,-0.06854877,0.1324206,1.721656,0.00687414,-0.3856435,1.681056,-0.1067059,-0.1418233,1.735496,0.3122154,-0.1303847,1.701094,NA,NA,NotTracked,NotTracked,
0.894043,-0.440918,0.4907227,0.6235352,0.7211914,0.550293,1,2,7,10,60,25,-12,-4,-1,-6,9,9,16,7,-12,-22,-8.1875,-8.1875,-8.1875,33.625,33.625,33.625,3.533974,3.496969,5.167904,6.557195,3.625206,8.889884,-0.1017417,-0.3546438,1.587049,0.2634791,-0.3793184,1.535642,0.1240713,0.40548,1.732322,-0.1267635,-0.3627018,1.536853,0.2957868,-0.3876334,1.492,0.1048746,-0.06536615,1.728608,0.09274375,-0.3951119,1.711569,-0.06857912,0.1327377,1.721532,0.006856027,-0.3856398,1.680993,-0.1058572,-0.1353416,1.743285,0.3132606,-0.1293672,1.704001,NA,NA,Closed,NotTracked,
0.3798828,-0.8671875,0.5488281,0.4355469,0.6982422,0.4047852,-4,-4,2,2,18,14,-3,-1,2,-13,-7,1,-13,-4,-14,15,-27.5,-27.5,-27.5,6.5,6.5,6.5,3.480273,3.749072,5.148041,6.607348,3.906139,8.86217,-0.08718903,-0.3123965,1.56328,0.241899,-0.33475,1.500751,0.1240514,0.405542,1.732282,-0.1469431,-0.3056387,1.546883,0.2517487,-0.32375,1.435794,0.1047383,-0.06532317,1.728558,0.09255132,-0.3950692,1.711557,-0.06842545,0.1330971,1.721403,0.006678252,-0.3855498,1.680849,-0.104124,-0.1180956,1.750898,0.3158174,-0.1202318,1.707887,NA,NA,Unknown,Closed,
0.3134766,-0.6240234,0.3896484,0.6313477,0.7382813,0.4584961,-3,4,2,2,16,30,-8,-10,-20,-14,-8,-11,-1,-6,1,9,-5.75,-5.75,-5.75,22.375,22.375,22.375,3.484264,3.98878,5.141027,6.657692,4.160111,8.852674,-0.103448,-0.2638051,1.482728,0.2357818,-0.2760156,1.445393,0.1240407,0.4055507,1.732274,-0.1469497,-0.27584,1.478706,0.2689315,-0.2786846,1.403414,0.1045915,-0.06515054,1.728727,0.09212897,-0.3947727,1.711902,-0.06790621,0.1338035,1.721146,0.006396248,-0.3851848,1.681104,-0.1014046,-0.1102062,1.748761,0.3157091,-0.1097452,1.705448,NA,NA,Closed,Closed,
0.7089844,-0.706543,0.4614258,0.40625,0.8242188,0.4267578,-4,-1,-1,-1,27,-6,14,-11,-1,6,28,3,-17,0,-11,12,8.5625,8.5625,8.5625,9.375,9.375,9.375,3.460166,4.202345,5.144069,6.66785,4.470906,8.838707,-0.1027629,-0.225829,1.457124,0.2263963,-0.2224299,1.409739,0.1240484,0.4055313,1.732338,-0.1483048,-0.2406489,1.449154,0.2633236,-0.2210464,1.376682,0.1045358,-0.06498729,1.728924,0.09199384,-0.3944615,1.712094,-0.06762197,0.1340549,1.721238,0.006378919,-0.3848937,1.681255,-0.09913224,-0.1051962,1.744428,0.3140538,-0.1018018,1.700901,NA,NA,Closed,Unknown,
0.4936523,-0.8037109,0.5058594,0.1049805,0.7524414,0.4624023,-8,-3,33,23,10,17,3,-7,7,-4,-2,-3,19,13,17,-5,-23.4375,-23.4375,-23.4375,4.375,4.375,4.375,3.431927,4.349599,5.149013,6.674316,4.663875,8.846619,-0.1024356,-0.181177,1.437449,0.2247662,-0.1723842,1.394498,0.124157,0.4056503,1.73292,-0.1429721,-0.1774794,1.442167,0.264456,-0.1736981,1.3675,0.1045315,-0.06484186,1.729121,0.09189644,-0.3942277,1.712254,-0.06714715,0.1342758,1.721143,0.006310794,-0.3846907,1.681489,-0.09790964,-0.08990426,1.741923,0.3136897,-0.09704304,1.699593,NA,NA,Closed,Unknown,
0.2231445,-0.8129883,0.472168,0.05517578,0.7172852,0.4912109,-5,5,40,-3,6,29,1,-19,-15,12,12,0,-12,4,-9,-10,0.1875,0.1875,0.1875,4.375,4.375,4.375,3.408657,4.512866,5.141627,6.676023,4.785812,8.854537,-0.1005293,-0.1391773,1.433104,0.2197371,-0.1385979,1.388768,0.1242917,0.4057162,1.733531,-0.1396421,-0.1470025,1.417065,0.2526037,-0.149938,1.358917,0.1045357,-0.06458483,1.729458,0.09189527,-0.3937769,1.712621,-0.06662536,0.1344971,1.721028,0.006334969,-0.3842127,1.681872,-0.1042172,-0.08569411,1.736112,0.3523076,-0.09425343,1.674928,NA,NA,Closed,Unknown,
0.2358398,-0.730957,0.5004883,0.1074219,0.824707,0.515625,7,9,42,-1,7,9,16,-12,-10,18,20,9,-1,1,-28,-12,6.875,6.875,6.875,0.0625,0.0625,0.0625,3.419413,4.642249,5.120934,6.66445,4.859456,8.85611,-0.09746224,-0.1194773,1.429172,0.2184579,-0.1209128,1.387215,0.1244278,0.4057851,1.734338,-0.137343,-0.1313302,1.407,0.2529079,-0.1253085,1.362333,0.1046399,-0.06426479,1.729974,0.09193084,-0.3933685,1.712959,-0.06625233,0.1347313,1.721018,0.006386257,-0.3837685,1.682271,-0.1144937,-0.08271393,1.739676,0.3600659,-0.09532862,1.671219,NA,NA,Unknown,Unknown,
0.2333984,-0.8183594,0.5258789,-0.006347656,0.7758789,0.4926758,-4,1,-1,7,8,-13,-6,-7,-10,-11,-2,-2,1,-4,12,25,-7.625,-7.625,-7.625,-2,-2,-2,3.416751,4.676455,5.113748,6.649061,4.874999,8.865635,-0.09560913,-0.1127082,1.429041,0.2168918,-0.111061,1.386577,0.1244693,0.4059257,1.735028,-0.1367651,-0.1245631,1.408429,0.2527264,-0.1075905,1.364128,0.1046173,-0.06409279,1.730191,0.09182721,-0.3931966,1.712997,-0.06556742,0.1350352,1.721088,0.006253651,-0.3835198,1.682467,-0.1116485,-0.08207259,1.744067,0.3641629,-0.09641948,1.663298,NA,NA,Unknown,Closed,
0.2021484,-0.8457031,0.5341797,0.03710938,0.8608398,0.5229492,19,-1,-11,1,-6,-4,13,22,-16,-10,-5,-7,-6,2,14,-8,3,3,3,-0.1875,-0.1875,-0.1875,3.418453,4.678948,5.106386,6.65414,4.861706,8.868852,-0.09304899,-0.115393,1.429936,0.2091877,-0.1106291,1.383733,0.1245721,0.4059617,1.735468,-0.1341649,-0.1319855,1.407553,0.2300243,-0.1213411,1.353909,0.1046655,-0.06399925,1.730324,0.09179755,-0.3930457,1.713061,-0.06528471,0.1351969,1.721123,0.006220039,-0.3833313,1.682594,-0.123523,-0.08013843,1.737524,0.3338681,-0.09316435,1.672436,NA,NA,Closed,Unknown,
0.1845703,-0.8569336,0.5336914,0.07177734,0.8242188,0.512207,2,-1,8,16,5,5,-22,-18,-7,4,6,-1,-61,-4,10,8,4.4375,4.4375,4.4375,1.9375,1.9375,1.9375,3.421301,4.663914,5.090727,6.653131,4.836353,8.865622,-0.08995719,-0.1194983,1.429126,0.2166955,-0.1173489,1.386374,0.1247209,0.4059421,1.735817,-0.131354,-0.1329237,1.409237,0.2495038,-0.1181802,1.361007,0.1047043,-0.06394661,1.730376,0.09175151,-0.3929369,1.713012,-0.06485301,0.135278,1.720891,0.006162424,-0.3831778,1.682539,-0.1155842,-0.08864535,1.694173,0.3705161,-0.1013695,1.657809,NA,NA,Closed,Unknown,
0.1577148,-0.8256836,0.4750977,-0.08642578,0.7182617,0.4667969,11,3,-13,-19,-9,-10,-2,6,-1,6,2,-16,26,-9,-1,6,-9.0625,-9.0625,-9.0625,2.5625,2.5625,2.5625,3.414991,4.64725,5.087041,6.654698,4.788695,8.861687,-0.08976112,-0.1286642,1.427551,0.2158097,-0.129126,1.38414,0.1248223,0.4059166,1.735862,-0.1273313,-0.1435574,1.4116,0.2499123,-0.1237688,1.360598,0.1047117,-0.06391634,1.730426,0.09174094,-0.3929107,1.713053,-0.06469695,0.1353915,1.720765,0.006151072,-0.3831495,1.682593,-0.1229576,-0.08201613,1.721428,0.3693703,-0.0968979,1.66525,NA,NA,Closed,Unknown,
0.1342773,-0.6660156,0.4165039,0.199707,0.6865234,0.3852539,2,26,17,9,8,-1,10,18,-3,7,22,13,12,-1,-86,8,-10,-10,-10,2.875,2.875,2.875,3.399659,4.549242,5.088633,6.665133,4.615355,8.864788,-0.09234088,-0.1671864,1.425962,0.2149026,-0.174292,1.382965,0.1248575,0.4059344,1.735824,-0.1310753,-0.1917847,1.4256,0.2512331,-0.1687974,1.3526,0.1047335,-0.06383508,1.730452,0.0916449,-0.3927082,1.713015,-0.06453736,0.135493,1.720324,0.006040755,-0.3828874,1.682575,-0.1097706,-0.0844149,1.727072,0.3616521,-0.09544723,1.665445,NA,NA,Closed,Unknown,
0.4755859,-0.6298828,0.5053711,0.5556641,0.7695313,0.5488281,-13,0,65,-3,-12,-15,-25,-33,5,13,5,-22,-68,-25,-33,11,1,1,1,-13.75,-13.75,-13.75,3.400381,4.353654,5.098382,6.644213,4.292732,8.888682,-0.09489457,-0.2314985,1.44325,0.2158417,-0.2367893,1.406811,0.1248781,0.4059352,1.735803,-0.135152,-0.2720244,1.464375,0.2474542,-0.2359229,1.361444,0.1047481,-0.06380749,1.730366,0.09139718,-0.3926567,1.7125,-0.0643154,0.1355489,1.71962,0.005965816,-0.3827948,1.6822,-0.1023047,-0.08603691,1.723974,0.3578476,-0.0967991,1.6665,NA,NA,Closed,Unknown,
0.8061523,-0.7963867,0.5405273,0.4135742,0.8461914,0.4267578,7,-4,-1,-6,0,-5,-2,10,1,-2,-4,13,29,7,5,-3,21,21,21,27.375,27.375,27.375,3.398815,4.123643,5.116577,6.652118,4.090757,8.919636,-0.09573477,-0.286862,1.476131,0.2186875,-0.2865827,1.435852,0.1249747,0.4058871,1.735669,-0.1290431,-0.3314883,1.473917,0.2410723,-0.2866619,1.387949,0.1046995,-0.06386262,1.730284,0.09108403,-0.3930582,1.712009,-0.06419601,0.1351405,1.719046,0.00581698,-0.3830877,1.681809,-0.1011958,-0.09151404,1.722914,0.3129183,-0.09772412,1.679076,NA,NA,Closed,Unknown,
0.5302734,-0.7363281,0.4204102,0.8774414,0.7104492,0.347168,-5,-3,42,3,19,44,-6,-22,3,3,-1,-13,-10,-2,61,4,14.3125,14.3125,14.3125,-34.9375,-34.9375,-34.9375,3.404086,3.954213,5.112387,6.636325,3.864308,8.936382,-0.09144276,-0.3221123,1.5179,0.2267649,-0.3322266,1.46723,0.1249759,0.4058812,1.735595,-0.1106351,-0.3119268,1.477671,0.1918051,-0.3363654,1.55825,0.1046388,-0.06401706,1.729969,0.09101078,-0.3936167,1.711107,-0.06431194,0.1346551,1.718303,0.005672996,-0.3835047,1.68104,-0.1003346,-0.0996342,1.720988,0.3119518,-0.09875964,1.678813,NA,NA,Closed,Unknown,
0.8623047,-0.6367188,0.4443359,0.8789063,0.6621094,0.4248047,2,7,-57,1,-6,-9,1,-12,-15,-18,-7,0,-1,-2,-22,-19,-2.625,-2.625,-2.625,-0.3125,-0.3125,-0.3125,3.404593,3.723731,5.107718,6.613299,3.637762,8.945533,-0.08148687,-0.3479835,1.551328,0.2305757,-0.3610477,1.5123,0.1249644,0.4058875,1.735422,-0.1250847,-0.3345997,1.515284,0.1892982,-0.3485987,1.572773,0.1046418,-0.06424472,1.729503,0.09102692,-0.3944183,1.709921,-0.06450746,0.1339186,1.717435,0.005476747,-0.3843486,1.679823,-0.1001542,-0.1087314,1.716625,0.309418,-0.1044721,1.6761,NA,NA,Closed,Unknown,
0.7900391,-0.6079102,0.3496094,0.777832,0.6323242,0.3164063,-1,-2,-1,-26,-14,-9,-2,-6,0,6,9,-3,33,2,18,0,-6.8125,-6.8125,-6.8125,-4.25,-4.25,-4.25,3.406136,3.622417,5.107772,6.601439,3.55214,8.937677,-0.09830423,-0.3546519,1.54538,0.2489621,-0.3745877,1.508958,0.1249073,0.4058605,1.735219,-0.1391106,-0.3752171,1.537722,0.2056354,-0.3858567,1.514091,0.1046184,-0.06455192,1.729089,0.0910503,-0.3949071,1.70938,-0.0645304,0.1332135,1.716707,0.005405674,-0.3850541,1.679116,-0.1007365,-0.1131939,1.714388,0.3076781,-0.1111058,1.675052,NA,NA,Closed,Unknown,
0.8222656,-0.5654297,0.3510742,0.753418,0.5268555,0.3779297,33,-7,-20,-9,-13,-25,-10,12,-1,-1,-8,-8,2,-9,-15,-7,1.3125,1.3125,1.3125,1.4375,1.4375,1.4375,3.404513,3.563747,5.112023,6.590237,3.515893,8.92857,-0.1012649,-0.361875,1.554845,0.2544041,-0.3828763,1.518254,0.1248501,0.4059179,1.734882,-0.1409881,-0.3779803,1.550517,0.2126244,-0.3902295,1.526606,0.1046513,-0.06472599,1.728605,0.09133776,-0.3951711,1.708802,-0.06476486,0.1328616,1.716227,0.005560695,-0.3853337,1.678593,-0.1011631,-0.1163327,1.713582,0.3067742,-0.1145469,1.674955,NA,NA,Closed,Unknown,
0.7431641,-0.5537109,0.3881836,0.762207,0.4907227,0.3525391,-38,-1,55,-18,-9,-10,-21,9,-10,4,8,-9,5,-11,-17,-69,-8.3125,-8.3125,-8.3125,-1.1875,-1.1875,-1.1875,3.406046,3.542358,5.113714,6.578463,3.504942,8.924491,-0.1013912,-0.3642849,1.556363,0.2562487,-0.3857791,1.521001,0.1249746,0.4059237,1.734295,-0.1230587,-0.3548516,1.533636,0.2068853,-0.4043198,1.510534,0.1047097,-0.06491361,1.728125,0.09149858,-0.3954152,1.708488,-0.06506657,0.1325565,1.715521,0.005684261,-0.3855791,1.678251,-0.1010802,-0.1184551,1.713346,0.3067147,-0.1163832,1.675012,NA,NA,Unknown,Unknown,
0.7695313,-0.5302734,0.3378906,0.8295898,0.4638672,0.3188477,15,-4,-43,-23,-14,-7,-9,-64,-3,-6,-7,-14,17,-5,1,-11,8.625,8.625,8.625,-6.8125,-6.8125,-6.8125,3.411097,3.540811,5.112884,6.5732,3.495767,8.915011,-0.1005435,-0.3649363,1.556014,0.2571751,-0.3871778,1.521247,0.1250355,0.4058441,1.733692,-0.1419936,-0.3841268,1.5534,0.218715,-0.3882513,1.536424,0.1048947,-0.06517739,1.727371,0.09204397,-0.3957326,1.70775,-0.06527413,0.1321109,1.714559,0.00615379,-0.3859872,1.677423,-0.1007606,-0.119645,1.712933,0.3062192,-0.1186108,1.674939,NA,NA,Closed,Unknown,
0.8330078,-0.5107422,0.3051758,0.8139648,0.4545898,0.315918,-5,3,75,41,8,-3,4,-4,7,-1,8,-1,-41,-6,-6,17,-2.625,-2.625,-2.625,-1.4375,-1.4375,-1.4375,3.417355,3.537997,5.104263,6.570664,3.489659,8.91439,-0.09878918,-0.3654627,1.554046,0.2575839,-0.3888108,1.520558,0.1250753,0.4058422,1.73336,-0.1401911,-0.3842937,1.549602,0.2083503,-0.4056275,1.509516,0.105134,-0.06539048,1.726646,0.09246434,-0.3960011,1.707071,-0.06546946,0.1319501,1.713654,0.006478797,-0.3864122,1.676564,-0.1009726,-0.1202793,1.712401,0.3059299,-0.1200022,1.674799,NA,NA,Closed,Unknown,
0.7954102,-0.5126953,0.3276367,0.7919922,0.4663086,0.3256836,6,0,54,24,12,-3,4,-5,-1,-1,11,-21,-8,0,-6,1,-1.375,-1.375,-1.375,-1.6875,-1.6875,-1.6875,3.415038,3.546712,5.110056,6.577004,3.487288,8.913675,-0.09958614,-0.3659565,1.55379,0.2581783,-0.3889407,1.521856,0.1251085,0.4058684,1.733007,-0.1401514,-0.3829056,1.547654,0.2215957,-0.3872911,1.542096,0.1051773,-0.06545373,1.726319,0.09267753,-0.3961301,1.706755,-0.06554045,0.1318096,1.712923,0.006627437,-0.3865484,1.676273,-0.1008733,-0.1209673,1.711977,0.305872,-0.1209056,1.674788,NA,NA,Closed,Unknown,
0.7866211,-0.4833984,0.3364258,0.8012695,0.4580078,0.3168945,8,5,-10,5,9,8,-2,-9,1,3,2,22,-1,-3,2,11,0.1875,0.1875,0.1875,-7.1875,-7.1875,-7.1875,3.415489,3.547742,5.110794,6.577441,3.479669,8.909981,-0.1011337,-0.3664116,1.554289,0.2594838,-0.3895466,1.522509,0.1250333,0.4058927,1.73271,-0.1409003,-0.3827933,1.547907,0.2171891,-0.3945814,1.536623,0.1052725,-0.0655286,1.726023,0.09298965,-0.3962371,1.706435,-0.06559017,0.1316676,1.712497,0.006892841,-0.3867657,1.675929,-0.1008806,-0.1210051,1.711941,0.3059788,-0.12139,1.674922,NA,NA,Closed,Unknown,
0.7705078,-0.4941406,0.3505859,0.8139648,0.5029297,0.3369141,-3,1,25,-5,-2,19,8,-9,1,4,6,-1,6,5,-5,-26,-5.75,-5.75,-5.75,-3.625,-3.625,-3.625,3.418143,3.543802,5.112445,6.581517,3.470942,8.905474,-0.1010832,-0.366967,1.55587,0.2610121,-0.3911621,1.523883,0.1249772,0.4058846,1.732383,-0.1435078,-0.3911237,1.554385,0.2212697,-0.3928453,1.542915,0.1053468,-0.06559951,1.725642,0.09326758,-0.3962943,1.706005,-0.06567489,0.1316863,1.712184,0.007126367,-0.3868523,1.675437,-0.1010586,-0.1218674,1.711664,0.3061009,-0.1219596,1.675201,NA,NA,Closed,Unknown,
0.7763672,-0.4868164,0.3266602,0.8056641,0.5073242,0.293457,4,9,45,1,2,20,0,-8,-5,-1,0,11,8,-1,0,-14,-0.25,-0.25,-0.25,-7.4375,-7.4375,-7.4375,3.423654,3.54241,5.109347,6.579969,3.455284,8.898494,-0.1005207,-0.3673902,1.556502,0.2620696,-0.3918493,1.524528,0.1248949,0.4058843,1.731874,-0.1235929,-0.3599112,1.532242,0.2205688,-0.3936958,1.540965,0.1053942,-0.06564773,1.725235,0.0934487,-0.3963042,1.705677,-0.06578654,0.1315671,1.711819,0.007237096,-0.3868755,1.675156,-0.1012041,-0.1223281,1.711746,0.3060665,-0.1235309,1.675319,NA,NA,Closed,Unknown,
0.8125,-0.4951172,0.3183594,0.784668,0.4516602,0.2783203,-1,1,1,1,6,9,4,4,0,-2,-4,-6,-3,0,5,7,0.625,0.625,0.625,-2.25,-2.25,-2.25,3.422059,3.540401,5.113269,6.577687,3.435183,8.890065,-0.1006667,-0.3677348,1.555222,0.2645947,-0.3947029,1.524597,0.1247441,0.4058905,1.731323,-0.1410763,-0.3876138,1.549342,0.2135057,-0.4123494,1.513828,0.1054932,-0.06571465,1.724916,0.09364022,-0.3964495,1.705386,-0.06585534,0.1315335,1.711625,0.007398207,-0.3871176,1.674932,-0.1012795,-0.1226834,1.711746,0.306256,-0.1240061,1.67521,NA,NA,Closed,Unknown,
0.7797852,-0.4833984,0.3310547,0.7841797,0.465332,0.2939453,-6,-6,-18,-4,-4,-2,-2,-4,5,22,10,1,-1,0,2,-6,0.875,0.875,0.875,-2.4375,-2.4375,-2.4375,3.420806,3.531396,5.114235,6.603088,3.407286,8.859621,-0.1008061,-0.3700272,1.557352,0.2673555,-0.3992937,1.526702,0.124534,0.4059388,1.730894,-0.1433591,-0.3890712,1.556143,0.2178553,-0.4157993,1.511094,0.1055799,-0.06574254,1.724701,0.09387995,-0.3965401,1.705209,-0.06594963,0.1314327,1.711443,0.007623278,-0.3872682,1.674727,-0.1014219,-0.1234768,1.712013,0.3065951,-0.1245601,1.675444,NA,NA,Closed,Unknown,
0.793457,-0.5341797,0.3261719,0.8105469,0.3051758,0.3027344,-9,0,-12,-4,-2,-3,-10,-4,-1,-1,1,-1,1,4,4,-15,19.875,19.875,19.875,5.5,5.5,5.5,3.390496,3.498943,5.168657,6.598913,3.347492,8.842392,-0.09975952,-0.375654,1.557625,0.271709,-0.4073942,1.531269,0.1243292,0.4059799,1.730586,-0.1164574,-0.3855361,1.520323,0.2249416,-0.4209224,1.508423,0.1056182,-0.06577604,1.724627,0.09405069,-0.3966085,1.705189,-0.06596608,0.1313747,1.7113,0.007802033,-0.3873865,1.674742,-0.1013798,-0.1246507,1.712639,0.3071547,-0.1255441,1.676252,NA,NA,Closed,Closed,
0.7543945,-0.4863281,0.3295898,0.8549805,0.3598633,0.3100586,-9,2,-8,4,-1,-5,-15,-15,-14,-6,-6,-7,-3,-2,-26,-19,61.5625,61.5625,61.5625,29.9375,29.9375,29.9375,3.397026,3.472759,5.230985,6.642357,3.238529,8.851238,-0.1055158,-0.387083,1.561206,0.2772882,-0.4180722,1.53672,0.1240831,0.4059296,1.730286,-0.08251026,-0.3896894,1.516265,0.2402287,-0.4287354,1.499643,0.105709,-0.06581806,1.724497,0.09419408,-0.3966409,1.705128,-0.06596085,0.1313853,1.711272,0.007945159,-0.3874423,1.674755,-0.1013115,-0.1267277,1.713361,0.3076557,-0.1274358,1.677155,NA,NA,Unknown,Closed,
0.8232422,-0.1816406,0.2514648,0.9228516,0.3671875,0.1391602,-1,15,0,-11,-3,-5,-25,2,2,-1,-2,-4,-1,9,16,12,-68.4375,-68.4375,-68.4375,83.5625,83.5625,83.5625,3.414276,3.351991,5.249928,6.716384,3.143682,8.884917,-0.1012556,-0.4049937,1.587654,0.2780482,-0.4292797,1.562161,0.1238281,0.405964,1.729999,-0.08044887,-0.4177645,1.547143,0.2415786,-0.4130683,1.582389,0.1058127,-0.06588937,1.724308,0.09452489,-0.3967384,1.705008,-0.06597526,0.1312656,1.711266,0.008385863,-0.3875896,1.674635,-0.1010402,-0.1304361,1.713529,0.3079543,-0.1287955,1.677842,NA,NA,Unknown,Closed,
0.9609375,-0.3935547,0.2158203,0.9516602,0.2939453,0.2602539,-16,2,2,3,6,7,-3,43,-18,-2,-1,-5,-7,-4,-1,-17,-170.4375,-170.4375,-170.4375,19.9375,19.9375,19.9375,3.219105,3.199222,5.172925,6.753737,3.086562,8.915734,-0.08918291,-0.4220479,1.612218,0.2742736,-0.4386082,1.580914,0.1236275,0.4059851,1.729892,-0.04710115,-0.4531717,1.598222,0.2292596,-0.4177806,1.574178,0.1059336,-0.06592165,1.724231,0.09491514,-0.3968119,1.704882,-0.06589315,0.1310579,1.711215,0.008821439,-0.3876868,1.674524,-0.1010149,-0.1334294,1.713169,0.3079701,-0.1313266,1.679073,NA,NA,Unknown,NotTracked,
0.9814453,-0.4936523,0.1206055,0.9819336,0.2900391,0.2329102,-4,-15,-1,-2,-4,-2,-11,-6,2,-3,0,-3,-3,-3,-18,-2,-3.8125,-3.8125,-3.8125,9.375,9.375,9.375,3.093416,3.098029,5.09429,6.686528,3.026039,9.01105,-0.08297471,-0.4231664,1.623667,0.2701958,-0.4384116,1.591903,0.1234335,0.4060104,1.729789,-0.03987099,-0.4389369,1.592495,0.2239465,-0.4165686,1.570525,0.1060128,-0.06594965,1.724032,0.09521878,-0.3968276,1.704671,-0.06572443,0.1307612,1.710933,0.009096771,-0.38766,1.674331,-0.09967217,-0.1350494,1.713604,0.3080385,-0.1320055,1.680989,NA,NA,NotTracked,NotTracked,
0.9658203,-0.371582,0.06689453,0.8637695,0.3720703,0.08007813,-1,-8,-6,0,3,2,-5,-7,0,-1,3,22,9,-4,-13,1,21.625,21.625,21.625,2.0625,2.0625,2.0625,3.112839,3.081841,5.095755,6.650624,3.01959,9.07057,-0.08002979,-0.4222182,1.626148,0.2662251,-0.4384262,1.599164,0.1233368,0.4061024,1.729573,-0.03811036,-0.4281071,1.592485,0.2219462,-0.4313458,1.568054,0.1060046,-0.06588689,1.723753,0.09528364,-0.3966793,1.70453,-0.06555031,0.1305465,1.710707,0.009138713,-0.3875427,1.674328,-0.09797724,-0.1359015,1.714676,0.3078605,-0.1318221,1.683999,NA,NA,NotTracked,NotTracked,
0.8964844,-0.3876953,0.04736328,0.9570313,0.2651367,0.2250977,0,-4,1,1,3,-1,-1,4,-2,-2,-1,-1,-3,1,1,-1,5.9375,5.9375,5.9375,3.5,3.5,3.5,3.074231,3.089316,5.157833,6.697068,3.010441,9.020532,-0.08100174,-0.4226913,1.624615,0.2653993,-0.4383989,1.600311,0.1232554,0.4061138,1.728992,-0.03829457,-0.427717,1.592384,0.2235986,-0.4225193,1.570019,0.1060642,-0.06585152,1.723508,0.09540708,-0.3965835,1.704405,-0.06532532,0.1300972,1.710229,0.009209873,-0.3874849,1.674286,-0.09737262,-0.1365913,1.715411,0.3077111,-0.1313687,1.686184,NA,NA,NotTracked,NotTracked,
0.9316406,-0.2958984,0.1889648,0.9223633,0.2250977,0.2441406,-12,6,-3,0,-3,0,-7,-10,-2,-2,0,-8,-2,0,5,-3,-6.25,-6.25,-6.25,16.5625,16.5625,16.5625,3.084757,3.082266,5.142039,6.661336,3.01721,9.060533,-0.08058889,-0.4209465,1.62578,0.2667142,-0.436545,1.600883,0.1232875,0.406222,1.7284,-0.03880656,-0.4283469,1.592643,0.222996,-0.4148898,1.571043,0.1061132,-0.0658325,1.723431,0.09546541,-0.3965235,1.704409,-0.06511369,0.1299865,1.710069,0.009264333,-0.3874516,1.674286,-0.09735785,-0.1359106,1.716017,0.307805,-0.1313,1.687347,NA,NA,NotTracked,NotTracked,
0.9287109,-0.309082,0.140625,0.9179688,0.2797852,0.1005859,8,24,2,-1,-2,0,3,6,1,0,-3,-2,0,-13,-9,2,-7.875,-7.875,-7.875,0.0625,0.0625,0.0625,3.098461,3.080802,5.12074,6.676791,3.016479,9.058954,-0.07970283,-0.4198577,1.62623,0.2655949,-0.4371866,1.601961,0.1234021,0.4062008,1.726925,-0.03794596,-0.4284335,1.592638,0.2212025,-0.438844,1.567609,0.1061342,-0.06580337,1.723353,0.09556141,-0.3964255,1.704422,-0.06504796,0.1297863,1.709989,0.009345508,-0.3873816,1.674292,-0.09664572,-0.1368964,1.716491,0.3077049,-0.1312625,1.688632,NA,NA,NotTracked,NotTracked,
0.9287109,-0.3232422,0.1147461,0.940918,0.2607422,0.2099609,0,-19,-3,-2,-2,0,4,5,3,1,0,-4,-4,-2,7,14,-2.0625,-2.0625,-2.0625,4.8125,4.8125,4.8125,3.097227,3.086497,5.121352,6.696508,3.013354,9.045829,-0.08016017,-0.4199208,1.626773,0.2658934,-0.4367518,1.602379,0.123518,0.406042,1.726173,-0.03603948,-0.4159327,1.593976,0.2219424,-0.4296129,1.569167,0.1061471,-0.0658102,1.723291,0.09568882,-0.396354,1.704456,-0.06491064,0.129715,1.70997,0.009426313,-0.3873524,1.674324,-0.09613955,-0.1373294,1.717152,0.3074523,-0.1315946,1.689369,NA,NA,NotTracked,NotTracked,
0.9399414,-0.3232422,0.1459961,0.925293,0.265625,0.1772461,1,-9,-3,-1,-3,-1,0,4,0,-1,-2,1,-1,-2,0,5,-2.4375,-2.4375,-2.4375,2.6875,2.6875,2.6875,3.09917,3.08714,5.116232,6.690673,3.010463,9.051335,-0.08044419,-0.4195162,1.627245,0.2661476,-0.437582,1.602067,0.1235922,0.4059952,1.725776,-0.03613402,-0.4362825,1.5936,0.2227159,-0.4163653,1.571622,0.1062379,-0.0658409,1.723184,0.09576435,-0.3962922,1.704451,-0.06475581,0.1295794,1.709878,0.009480326,-0.3873166,1.674347,-0.09572151,-0.1375752,1.717551,0.3073615,-0.131576,1.689996,NA,NA,NotTracked,NotTracked,
0.9365234,-0.3256836,0.1259766,0.9311523,0.2548828,0.1391602,-3,-2,-3,-1,0,-1,2,-4,3,-1,-3,-3,0,3,1,1,0.1875,0.1875,0.1875,-5.75,-5.75,-5.75,3.106114,3.088737,5.110197,6.696657,3.010492,9.041481,-0.08037011,-0.4191357,1.626779,0.2655551,-0.4368652,1.601027,0.1236389,0.4059978,1.725346,-0.03767461,-0.4276642,1.593434,0.2218078,-0.4267534,1.568909,0.1062426,-0.0658277,1.723155,0.09581061,-0.3962162,1.704481,-0.0647237,0.1295281,1.709873,0.009530637,-0.3872349,1.67438,-0.09557419,-0.1378229,1.717888,0.3072916,-0.1314312,1.690109,NA,NA,NotTracked,NotTracked,
