ALX,ALY,ALZ,ARX,ARY,ARZ,EMG0L,EMG1L,EMG2L,EMG3L,EMG4L,EMG5L,EMG6L,EMG7L,EMG0R,EMG1R,EMG2R,EMG3R,EMG4R,EMG5R,EMG6R,EMG7R,GLX,GLY,GLZ,GRX,GRY,GRZ,ORL,OPL,OYL,ORR,OPR,OYR,LHNX,LHNY,LHNZ,RHNX,RHNY,RHNZ,HX,HY,HZ,LTX,LTY,LTZ,RTX,RTY,RTZ,SpineMidX,SpineMidY,SpineMidZ,SpineBaseX,SpineBaseY,SpineBaseZ,ShoulderLeftX,ShoulderLeftY,ShoulderLeftZ,ShoulderRightX,ShoulderRightY,ShoulderRightZ,ElbowLeftX,ElbowLeftY,ElbowLeftZ,ElbowRightX,ElbowRightY,ElbowRightZ,Myo_Pose_left,Myo_Pose_Right,Kinect_pose_left,Kinect_pose_right
0.1455078,-0.9345703,0.3955078,0.1240234,0.8999023,0.5869141,12,-5,-15,24,54,18,-47,-3,-2,-13,-7,0,2,-1,4,9,-13,-13,-13,-20.75,-20.75,-20.75,3.125101,4.812448,1.156526,6.622355,4.760978,9.7872,0.210336,-0.09506095,1.521006,0.3526506,-0.1648009,1.277083,0.2319982,0.3941959,1.691612,0.1991843,-0.1021858,1.457846,0.348576,-0.1084814,1.27175,0.2199601,-0.07366014,1.678072,0.2130865,-0.3973662,1.661099,0.05198789,0.1170092,1.661099,0.1260339,-0.3882964,1.630473,-0.03051365,-0.09182324,1.614872,0.4377418,-0.1104457,1.618433,NA,NA,Unknown,Unknown,
0.1328125,-0.9355469,0.3881836,-0.1000977,0.8500977,0.6357422,2,5,10,-6,-13,-20,16,15,16,3,-2,-5,-16,-3,-9,-6,-9.0625,-9.0625,-9.0625,-19.625,-19.625,-19.625,3.10951,4.822096,1.130695,6.596668,5.260098,9.795464,0.2104291,-0.09579558,1.523287,0.350892,-0.03361987,1.275475,0.2322452,0.3941774,1.691965,0.2523668,-0.1489603,1.540917,0.3470781,0.03482586,1.2896,0.2196,-0.07322069,1.678519,0.2123123,-0.396533,1.661506,0.05199774,0.1171599,1.661236,0.1252944,-0.3875389,1.630676,-0.02855721,-0.09150168,1.60899,0.4393934,-0.1298232,1.502556,NA,NA,Unknown,Lasso,
0.1162109,-0.9428711,0.3696289,-0.3364258,0.6953125,0.496582,3,12,-29,14,15,13,-55,-23,-1,-13,-16,-10,-10,-1,-6,6,-10.25,-10.25,-10.25,-17.6875,-17.6875,-17.6875,3.093701,4.836732,1.122192,6.56123,5.722451,9.798059,0.2103442,-0.09679526,1.524175,0.3491717,0.08587345,1.285422,0.232803,0.3941954,1.692445,0.2427043,-0.1490408,1.53624,0.3494878,0.1514909,1.2992,0.2194457,-0.07304198,1.678854,0.2119315,-0.3962814,1.661772,0.05242987,0.1171287,1.660753,0.1248502,-0.387329,1.631031,-0.02723052,-0.09136122,1.605588,0.4237671,-0.09768345,1.530764,NA,NA,Unknown,Lasso,
0.1142578,-0.9038086,0.3745117,-0.4370117,0.6259766,0.5288086,3,5,29,-5,-5,-10,-17,-20,-15,-17,4,14,0,3,4,-3,-6.8125,-6.8125,-6.8125,-17.125,-17.125,-17.125,3.080582,4.851048,1.120933,6.532468,6.105675,9.8078,0.2079228,-0.09983699,1.527576,0.3519394,0.1679331,1.319851,0.2329845,0.3941948,1.692636,0.2423492,-0.1516167,1.537426,0.3473841,0.209155,1.323786,0.2188689,-0.07305663,1.680399,0.2113509,-0.3952769,1.662289,0.05246716,0.1173455,1.661019,0.1240956,-0.3861694,1.631791,-0.02604954,-0.09111369,1.60342,0.4247167,-0.08025645,1.489777,NA,NA,Unknown,Unknown,
0.08935547,-0.9165039,0.3383789,-0.6298828,0.4101563,0.4018555,2,-2,15,-4,-12,-12,5,25,-6,-8,-13,20,-46,-10,11,-4,-5.125,-5.125,-5.125,-17.6875,-17.6875,-17.6875,3.069824,4.856757,1.125465,6.476282,6.510315,9.817322,0.2048986,-0.1003323,1.52796,0.3530379,0.2198541,1.354432,0.2329284,0.3943111,1.69323,0.235794,-0.1532105,1.534936,0.349027,0.2027464,1.435667,0.2187525,-0.07280716,1.681508,0.2112927,-0.3939574,1.662975,0.05440928,0.117118,1.660003,0.1236368,-0.3846739,1.63299,-0.02555316,-0.09075493,1.602173,0.4139,-0.05504926,1.461798,NA,NA,Unknown,Unknown,
0.1030273,-0.9536133,0.3515625,-0.6875,0.390625,0.3540039,24,16,21,-5,-1,-9,3,13,-7,0,6,-5,4,0,-19,11,-7,-7,-7,-30.8125,-30.8125,-30.8125,3.056819,4.849442,1.12516,6.443665,6.725842,9.821777,0.2084017,-0.09723299,1.526809,0.3512801,0.2528062,1.385785,0.2327009,0.3944506,1.693735,0.2335379,-0.1502598,1.533661,0.3478559,0.2170858,1.449889,0.2187948,-0.07232886,1.681754,0.210977,-0.3928864,1.662983,0.05574819,0.1173877,1.660247,0.1229682,-0.3834415,1.633371,-0.02602375,-0.08952568,1.601129,0.4070389,-0.04613776,1.453054,NA,NA,Unknown,Unknown,
0.07128906,-0.9731445,0.3227539,-0.7758789,0.2724609,0.246582,27,10,-9,5,-8,6,-36,-6,0,-7,-8,4,21,0,-27,1,-4.625,-4.625,-4.625,-32.3125,-32.3125,-32.3125,3.047043,4.848082,1.125052,6.36543,6.868801,9.807534,0.2119685,-0.09446947,1.523726,0.3484834,0.268312,1.406208,0.2323205,0.3945104,1.69408,0.2308261,-0.1474049,1.527759,0.3441308,0.216856,1.4484,0.2186296,-0.07210867,1.68208,0.2106612,-0.391818,1.662789,0.05553833,0.1178803,1.661045,0.1223487,-0.3824686,1.63354,-0.02620894,-0.08864224,1.600033,0.3893974,-0.03642794,1.445333,NA,NA,Unknown,Unknown,
0.07324219,-0.9780273,0.293457,-0.878418,0.2436523,0.2133789,-29,3,-34,-4,-19,-24,-89,-1,12,7,2,-6,40,-1,3,-2,-9.75,-9.75,-9.75,-30.625,-30.625,-30.625,3.030316,4.864253,1.129339,6.196483,6.969289,9.700321,0.2134096,-0.09700741,1.520386,0.3467418,0.2756991,1.415782,0.231663,0.3946738,1.694464,0.2352045,-0.1504141,1.526517,0.3422151,0.2127755,1.460714,0.2184724,-0.07209697,1.682313,0.210506,-0.3916951,1.662656,0.05682112,0.1178792,1.660791,0.121897,-0.3823447,1.633721,-0.02639093,-0.08805624,1.599742,0.3880197,0.002312338,1.424549,NA,NA,Unknown,Unknown,
0.06347656,-0.9545898,0.3100586,-0.9291992,0.1835938,0.2392578,16,1,-97,-31,-40,-6,4,10,-6,-7,-11,0,-23,4,-8,-12,-13.3125,-13.3125,-13.3125,-30.375,-30.375,-30.375,3.008198,4.879935,1.126843,6.007199,6.995551,9.558078,0.2130057,-0.09765235,1.519941,0.3425334,0.3086523,1.425991,0.2308637,0.3948493,1.694945,0.236917,-0.1506279,1.525903,0.3127313,0.2930138,1.430839,0.2183379,-0.07210054,1.682545,0.2104163,-0.3915684,1.662635,0.0572688,0.1185189,1.661267,0.1215201,-0.3822262,1.634113,-0.02622944,-0.08694348,1.598584,0.3794399,0.01850513,1.41559,NA,NA,Unknown,Lasso,
0.06054688,-0.9682617,0.3120117,-0.9179688,0.1757813,0.2612305,58,13,20,18,25,37,127,9,-1,-8,-6,-9,20,3,-10,-8,-17.125,-17.125,-17.125,-33.4375,-33.4375,-33.4375,2.980757,4.887391,1.119768,5.769093,7.005451,9.376267,0.2114026,-0.09677348,1.519613,0.3430277,0.3054198,1.428049,0.2304782,0.3949481,1.695233,0.2391647,-0.1505086,1.524831,0.3191555,0.2978077,1.449583,0.2181492,-0.0720557,1.682761,0.2103073,-0.3913494,1.662595,0.05735302,0.1188487,1.661519,0.1212029,-0.3821048,1.634497,-0.02608206,-0.08580967,1.59531,0.3727161,0.01257813,1.418515,NA,NA,Unknown,Unknown,
0.06835938,-0.965332,0.3457031,-0.8959961,0.1982422,0.2148438,10,8,20,-36,-34,21,50,12,3,-2,6,27,-12,6,-6,16,-8.75,-8.75,-8.75,-24.9375,-24.9375,-24.9375,2.958993,4.893854,1.11067,5.69463,7.000953,9.337752,0.2110545,-0.09486651,1.518446,0.3412135,0.3005499,1.429132,0.2302039,0.3948975,1.695625,0.2399931,-0.1502068,1.520734,0.3169271,0.2768378,1.444778,0.218028,-0.07193763,1.682941,0.210189,-0.39091,1.662497,0.05822138,0.1192568,1.661255,0.1209628,-0.3818247,1.634781,-0.02648381,-0.08420803,1.592365,0.3663425,0.008087032,1.41929,NA,NA,Unknown,Lasso,
0.06591797,-0.9780273,0.3295898,-0.9643555,0.1645508,0.2495117,1,-2,-11,-8,-17,-14,15,5,-13,-3,1,10,-12,1,4,0,0.9375,0.9375,0.9375,-13.5625,-13.5625,-13.5625,2.958466,4.906296,1.110299,5.703349,6.979708,9.374386,0.2228025,-0.1029682,1.492241,0.3367554,0.2984097,1.430978,0.2300767,0.3949634,1.69598,0.2058473,-0.1636176,1.520221,0.3064966,0.2884032,1.44375,0.2178822,-0.07187523,1.683213,0.2100131,-0.3907421,1.662626,0.05876561,0.1196486,1.661472,0.1205503,-0.3817548,1.635495,-0.0258267,-0.08322892,1.590194,0.3513865,0.002611003,1.422623,NA,NA,Unknown,Lasso,
0.03320313,-0.996582,0.2641602,-1.103516,0.1870117,0.2885742,-16,-1,27,-65,-31,-8,-3,-7,-6,-10,-8,-24,1,0,-4,5,1.625,1.625,1.625,-8.625,-8.625,-8.625,2.958399,4.927095,1.118335,5.726588,6.935132,9.413436,0.2220471,-0.09750835,1.487227,0.3342144,0.2926346,1.428812,0.2299391,0.3950388,1.696317,0.2061616,-0.1612245,1.521689,0.3069505,0.2822148,1.448098,0.21767,-0.0718013,1.683506,0.2098037,-0.3904867,1.66281,0.05909987,0.119784,1.66159,0.1202065,-0.3815923,1.636098,-0.02534484,-0.08293879,1.589522,0.3439671,-0.01409704,1.434744,NA,NA,Unknown,Lasso,
0.09375,-0.9321289,0.3198242,-1.012207,0.1738281,0.3666992,-28,-12,56,-40,-52,-77,-22,-73,22,-6,-8,5,10,-2,-14,3,-2,-2,-2,2.5,2.5,2.5,2.952532,4.918722,1.118645,5.740314,6.929369,9.425337,0.2246958,-0.08633299,1.476862,0.3332222,0.2919285,1.427183,0.2298835,0.3949987,1.696494,0.200893,-0.1633125,1.524238,0.3042041,0.2805198,1.442747,0.2174072,-0.07163599,1.683802,0.2095135,-0.3899913,1.663018,0.05855788,0.1200103,1.662368,0.1199268,-0.3812042,1.636589,-0.02527701,-0.08252421,1.588752,0.3435861,-0.01458862,1.435368,NA,NA,Unknown,Lasso,
0.005371094,-0.96875,0.2558594,-0.9785156,0.1225586,0.3183594,2,-1,36,-4,-3,21,83,37,-3,-5,-3,3,18,-9,-71,-23,5.625,5.625,5.625,-3.75,-3.75,-3.75,2.960365,4.922633,1.131801,5.75331,6.935262,9.44215,0.2270465,-0.07563134,1.467393,0.3325636,0.2932605,1.428968,0.2298725,0.3948981,1.696828,0.2086505,-0.1308598,1.52275,0.3089964,0.2770169,1.451371,0.2172736,-0.07150117,1.684029,0.2092944,-0.3895558,1.663211,0.05831518,0.1201843,1.66276,0.1196754,-0.3807753,1.637127,-0.02481415,-0.08249862,1.588655,0.3433688,-0.014984,1.435902,NA,NA,Unknown,Lasso,
0.02587891,-0.9677734,0.2661133,-0.953125,0.1655273,0.3164063,6,6,9,18,39,59,-18,-14,5,1,2,14,-22,-8,-13,-13,-1.3125,-1.3125,-1.3125,-0.75,-0.75,-0.75,2.954797,4.929519,1.132871,5.779246,6.941492,9.472707,0.2335675,-0.08653866,1.515707,0.3312659,0.2932874,1.430384,0.2298456,0.3949006,1.69729,0.2377627,-0.1117708,1.463743,0.3041453,0.2762058,1.44277,0.2171227,-0.0714159,1.684416,0.2091474,-0.3892768,1.663574,0.05810233,0.1202344,1.663315,0.1195414,-0.3805886,1.637571,-0.0248487,-0.08226302,1.588332,0.3432985,-0.0149987,1.436119,NA,NA,Unknown,Lasso,
0.03369141,-0.9658203,0.2822266,-0.9370117,0.1782227,0.3056641,-13,-9,-15,-3,-16,-29,-17,-8,7,-5,5,23,6,-4,-5,-5,-6.125,-6.125,-6.125,2.625,2.625,2.625,2.944082,4.932953,1.133315,5.821247,6.937449,9.513775,0.242346,-0.08447706,1.512633,0.3292191,0.2786416,1.427596,0.2298999,0.3946795,1.697859,0.1636454,-0.07378913,1.457911,0.3222661,0.2742619,1.4509,0.2170165,-0.07140549,1.684774,0.2090823,-0.3891383,1.663809,0.05786271,0.1203371,1.663866,0.1194476,-0.3804721,1.638101,-0.02432624,-0.08228406,1.588259,0.3441274,-0.01473243,1.436004,NA,NA,Unknown,Lasso,
0.03369141,-0.9868164,0.2724609,-0.9677734,0.1582031,0.2963867,1,2,27,3,-27,-28,-40,-16,4,-5,-3,-11,22,2,-18,3,-3.5,-3.5,-3.5,0.875,0.875,0.875,2.940092,4.931579,1.132077,5.84661,6.939403,9.54481,0.240884,-0.08562865,1.514578,0.3291303,0.2672681,1.426215,0.2299711,0.3945038,1.698393,0.228074,-0.0817969,1.436953,0.3071154,0.2387971,1.449,0.2169212,-0.07132418,1.685092,0.2090344,-0.3888191,1.664071,0.05767909,0.1204815,1.664521,0.1194393,-0.3802118,1.638512,-0.02400962,-0.08216345,1.588324,0.3441237,-0.01478746,1.436168,NA,NA,Unknown,Unknown,
0.03369141,-1.006836,0.2382813,-0.9746094,0.1665039,0.293457,-24,6,60,4,2,5,14,-5,9,-1,-3,-44,-19,-10,-3,7,-9.4375,-9.4375,-9.4375,-0.5,-0.5,-0.5,2.925512,4.932103,1.132058,5.856341,6.942056,9.554424,0.2385628,-0.08550583,1.515347,0.328292,0.2631966,1.425335,0.2298736,0.3944611,1.699268,0.2276452,-0.09762673,1.453586,0.3130563,0.2218414,1.4498,0.2168369,-0.07123988,1.685414,0.2090112,-0.3886299,1.664249,0.05755916,0.1204988,1.664982,0.1194078,-0.3800792,1.638871,-0.02384409,-0.08211565,1.588312,0.342323,-0.01877791,1.439639,NA,NA,Unknown,Unknown,
0.02539063,-1.019531,0.2475586,-0.9594727,0.1806641,0.2856445,1,-3,4,-34,-11,-14,-19,-27,-10,-5,-4,-9,-1,2,-24,-4,-11.1875,-11.1875,-11.1875,-2.8125,-2.8125,-2.8125,2.911736,4.931326,1.13114,5.916964,6.935672,9.62157,0.237713,-0.08682406,1.515687,0.3249449,0.2602489,1.423656,0.2296991,0.3943383,1.700025,0.1594742,-0.07081269,1.460637,0.3081876,0.21018,1.4415,0.2167386,-0.07118993,1.685768,0.2089754,-0.388439,1.664489,0.05751261,0.1205198,1.665323,0.1194384,-0.3799963,1.639311,-0.02341654,-0.0820922,1.588025,0.3370118,-0.02341455,1.444136,NA,NA,Unknown,Lasso,
0.01708984,-0.9609375,0.3071289,-0.9389648,0.1621094,0.2998047,42,28,24,-1,35,93,92,30,-10,-3,5,-5,11,3,2,-11,-3.9375,-3.9375,-3.9375,-5.5,-5.5,-5.5,2.897454,4.925032,1.114756,6.117244,6.906941,9.849256,0.2360658,-0.08880815,1.516794,0.312999,0.2591075,1.417929,0.2294296,0.3941036,1.700846,0.1590149,-0.07096563,1.461005,0.2856871,0.2773716,1.452,0.2167771,-0.07121162,1.686033,0.2090256,-0.388408,1.664612,0.05748695,0.1204537,1.665627,0.1197039,-0.3799947,1.639851,-0.02242,-0.08223698,1.587278,0.3306246,-0.01391394,1.437333,NA,NA,Unknown,Lasso,
0.02539063,-0.9956055,0.3076172,-0.9111328,0.2353516,0.2675781,13,-6,-21,-7,5,-29,-13,-4,-17,4,6,29,5,16,7,9,4.25,4.25,4.25,-19.4375,-19.4375,-19.4375,2.904724,4.920044,1.09823,6.371396,6.837791,0.1578189,0.2295,-0.09467919,1.521333,0.2790487,0.305148,1.42198,0.2282922,0.3938549,1.700886,0.2381874,-0.09793576,1.453896,0.2750433,0.3456622,1.461,0.2169724,-0.07135165,1.686383,0.2092637,-0.388671,1.664896,0.05898103,0.1185288,1.665644,0.1207686,-0.3807299,1.64156,-0.02197654,-0.0832899,1.585892,0.329574,-0.01662046,1.43837,NA,NA,Unknown,Lasso,
0.06933594,-1.029785,0.2734375,-0.8686523,0.3950195,0.2080078,-21,6,11,-9,8,-25,-63,-25,2,4,6,22,26,2,23,-3,3.375,3.375,3.375,-3.9375,-3.9375,-3.9375,2.910748,4.913152,1.081704,6.662661,6.711786,0.4831042,0.2274731,-0.09412318,1.52474,0.2339132,0.2975773,1.428891,0.2265718,0.3984553,1.701298,0.1604087,-0.06466921,1.48215,0.2179464,0.3131224,1.5334,0.216895,-0.07257941,1.686613,0.2097877,-0.3920728,1.66542,0.06034537,0.1166329,1.665464,0.1216369,-0.3849619,1.643923,-0.02130474,-0.08437029,1.584095,0.3283008,-0.01372399,1.43626,NA,NA,Unknown,Lasso,
0.07177734,-1.025391,0.2666016,-0.7841797,0.5615234,0.2792969,39,-15,123,-5,-6,-4,45,40,1,-5,-13,-18,1,2,8,8,0.6875,0.6875,0.6875,-12.5625,-12.5625,-12.5625,2.914075,4.902914,1.064611,6.917052,6.496294,0.805784,0.2398409,-0.09325478,1.509027,0.1884874,0.3003825,1.449485,0.2284356,0.4054568,1.707231,0.2433276,-0.0712757,1.440071,0.2249818,0.3204754,1.5185,0.215354,-0.07544496,1.687352,0.2099858,-0.3961233,1.666271,0.05851693,0.1171034,1.666623,0.1221318,-0.3891785,1.646108,-0.02054488,-0.08437862,1.583617,0.3308277,-0.02051293,1.440554,NA,NA,Unknown,Unknown,
0.01953125,-1.025879,0.2597656,-0.5864258,0.6396484,0.2089844,-24,-20,-128,6,4,2,83,-18,4,11,17,12,-4,8,13,11,-2.6875,-2.6875,-2.6875,-5.375,-5.375,-5.375,2.912552,4.891805,1.034043,7.040184,6.329441,0.9787499,0.2154533,-0.08498518,1.532946,0.1359569,0.2562215,1.432266,0.2301803,0.4056521,1.707217,0.2697874,-0.01944292,1.4122,0.0935679,0.2954952,1.393,0.2160178,-0.0787662,1.687487,0.2102898,-0.3978021,1.666637,0.05658894,0.1176407,1.667835,0.1224689,-0.3908143,1.645717,-0.0199291,-0.08441935,1.583669,0.3324369,-0.02739335,1.446744,NA,NA,Unknown,Unknown,
0.046875,-0.9985352,0.2441406,-0.6357422,0.7543945,0.1479492,-21,10,-7,-4,6,9,-4,19,-1,7,2,-3,-6,-8,-40,-96,-5.4375,-5.4375,-5.4375,5.375,5.375,5.375,2.90542,4.88863,1.017434,7.148426,6.163496,1.137613,0.2837629,-0.05670181,1.483564,0.1313692,0.1741412,1.413204,0.2341633,0.4010003,1.708204,0.3527071,-0.08336753,1.468778,0.1022277,0.1677782,1.372278,0.2168259,-0.07828984,1.687441,0.2115513,-0.3989835,1.666821,0.05531456,0.1126918,1.666593,0.1239728,-0.3924341,1.643518,-0.01880632,-0.08989494,1.581491,0.333829,-0.03343198,1.453137,NA,NA,Unknown,Unknown,
0.03271484,-0.9990234,0.1933594,-0.612793,0.8657227,0.09228516,-2,-25,-1,-49,-31,-80,-128,-101,3,1,6,3,-6,-7,-28,38,-9.875,-9.875,-9.875,23.4375,23.4375,23.4375,2.892586,4.887669,1.014521,7.267552,5.957366,1.295085,0.2518128,-0.09334728,1.507434,0.09018059,0.1511168,1.427884,0.2358056,0.3987726,1.708597,0.2660363,-0.1456558,1.526172,0.07203682,0.1294897,1.382279,0.2178426,-0.07700882,1.688254,0.2125211,-0.3973916,1.667645,0.05526781,0.1133121,1.66626,0.1249697,-0.3902511,1.642065,-0.01700557,-0.09017186,1.581815,0.342667,-0.04152644,1.46063,NA,NA,Unknown,Unknown,
0.1582031,-0.9892578,0.2592773,-0.4970703,0.9077148,0.07861328,33,13,43,15,20,26,63,34,-9,-1,-9,-15,-41,-8,10,-17,-17,-17,-17,25.125,25.125,25.125,2.870435,4.881744,1.023804,7.364243,5.807517,1.388155,0.2571238,-0.07617978,1.481657,0.07688711,0.1102732,1.430041,0.236451,0.3974348,1.708831,0.2617627,-0.1366681,1.527595,0.06464212,0.1566205,1.479083,0.2185328,-0.0765277,1.688827,0.2131937,-0.3966308,1.668095,0.05315022,0.1098479,1.664798,0.1258512,-0.389614,1.642268,-0.01514091,-0.09425843,1.578279,0.3410867,-0.04544261,1.465596,NA,NA,NotTracked,NotTracked,
0.1040039,-0.9858398,0.2524414,-0.3134766,0.9189453,0.07861328,-1,3,4,28,3,20,111,-5,-3,-18,-11,-20,20,-8,-6,35,-8.0625,-8.0625,-8.0625,9.125,9.125,9.125,2.858014,4.879096,1.028337,7.458496,5.660619,1.450591,0.2041202,-0.1072321,1.532743,0.07786079,0.0740171,1.43064,0.2367488,0.396939,1.709008,0.2325837,-0.1640756,1.534572,0.08321731,0.09803672,1.425125,0.2200375,-0.07406773,1.690037,0.2130853,-0.3939994,1.669051,0.05413309,0.1155327,1.667163,0.126313,-0.3864968,1.643669,-0.009693596,-0.08846996,1.576264,0.34105,-0.04602963,1.466474,NA,NA,Unknown,Unknown,
0.07617188,-0.9648438,0.2519531,-0.3393555,0.9560547,0.06445313,3,11,38,10,4,29,-6,24,-6,13,15,2,9,10,56,0,-4.4375,-4.4375,-4.4375,21.8125,21.8125,21.8125,2.855352,4.878354,1.027738,7.496649,5.567843,1.476198,0.2543954,-0.11064,1.507795,0.07383297,0.05138424,1.43171,0.2370125,0.3963998,1.709127,0.2771388,-0.1614495,1.524541,0.0941968,0.06980785,1.41044,0.2206519,-0.07282445,1.690769,0.213065,-0.3923558,1.669621,0.05553165,0.1186206,1.66836,0.1266848,-0.3848041,1.644354,-0.004938304,-0.0839834,1.571216,0.3409672,-0.04604905,1.466758,NA,NA,NotTracked,NotTracked,
0.1157227,-0.9975586,0.2241211,-0.2661133,0.9775391,0.01708984,42,-9,-23,12,10,-2,-11,15,7,-7,2,4,-4,-4,-9,10,2,2,2,17.9375,17.9375,17.9375,2.857908,4.870691,1.02312,7.537749,5.488865,1.511407,0.27166,-0.01807756,1.425851,0.07651741,0.03332611,1.43537,0.2370821,0.3958653,1.70941,0.2513703,0.01907531,1.40371,0.05333158,0.06061456,1.448273,0.220938,-0.07215253,1.691268,0.2130778,-0.3917264,1.669858,0.05572451,0.1203233,1.669051,0.1268543,-0.3842377,1.644511,-0.002409825,-0.08249268,1.570741,0.3411191,-0.0461734,1.46688,NA,NA,NotTracked,NotTracked,
0.1025391,-1.009277,0.2299805,-0.2578125,0.9897461,-0.05957031,16,-11,2,16,29,44,64,21,6,2,-8,-17,-12,-11,-38,16,0.875,0.875,0.875,7.375,7.375,7.375,2.859385,4.859956,1.013117,7.569263,5.432871,1.547997,0.2679411,-0.02345514,1.427907,0.07326791,0.02059574,1.440211,0.2370646,0.3956392,1.70965,0.2587836,0.01442351,1.403656,0.08707899,0.03928586,1.411628,0.2213148,-0.07153246,1.691673,0.2132847,-0.3908603,1.670184,0.05572003,0.1206917,1.669271,0.1272848,-0.3833305,1.644716,-0.001130992,-0.0821363,1.570115,0.3417785,-0.04650595,1.467322,NA,NA,NotTracked,NotTracked,
0.07177734,-1.004883,0.2524414,-0.2290039,0.9804688,-0.05371094,32,3,-9,4,-10,-4,46,28,4,2,10,60,49,-2,24,5,2.3125,2.3125,2.3125,3.1875,3.1875,3.1875,2.859823,4.850166,0.9981363,7.60018,5.370337,1.59063,0.2618851,-0.02917823,1.430227,0.06741775,0.007886897,1.447892,0.2370486,0.3955217,1.709785,0.2570883,-0.07837324,1.44425,0.08700262,0.02822622,1.4164,0.2214983,-0.07096894,1.691902,0.2133575,-0.389977,1.670388,0.0554631,0.1209715,1.669477,0.1275765,-0.3824196,1.644835,-0.0005715123,-0.08518337,1.566094,0.3426897,-0.04692272,1.468111,NA,NA,NotTracked,NotTracked,
0.07568359,-1.008301,0.2167969,-0.2197266,0.9785156,-0.09277344,7,-9,3,8,0,-17,28,33,-2,2,-4,-25,-9,-1,-3,3,-2.3125,-2.3125,-2.3125,7.0625,7.0625,7.0625,2.861485,4.83746,0.9837091,7.62226,5.333278,1.618051,0.2602783,-0.03516183,1.435073,0.06698308,-0.005673533,1.455848,0.2370656,0.3953801,1.709857,0.2578294,-0.08271578,1.446553,0.08193073,0.01494558,1.420756,0.2216295,-0.07066007,1.692076,0.2134961,-0.389544,1.670555,0.05524196,0.1209338,1.66959,0.1278572,-0.3819675,1.644867,-0.0006274929,-0.08645255,1.564379,0.3438419,-0.0481775,1.469642,NA,NA,NotTracked,NotTracked,
0.105957,-1.007813,0.237793,-0.1777344,1.003418,-0.1113281,-6,-1,-37,-4,-15,-7,59,-14,-4,0,-1,-15,11,-12,-26,-5,2.6875,2.6875,2.6875,8.375,8.375,8.375,2.867923,4.83044,0.9693426,7.646201,5.294447,1.649753,0.259633,-0.03795756,1.437077,0.04179201,-0.02734126,1.479121,0.2372496,0.3950412,1.709818,0.3018335,-0.0587162,1.407582,0.02280675,-0.01751532,1.441043,0.2217291,-0.07045358,1.692138,0.2134958,-0.3891422,1.670663,0.05496801,0.1210105,1.669735,0.1280166,-0.3815123,1.644871,-0.0004941687,-0.08660745,1.564109,0.3444631,-0.04950147,1.470039,NA,NA,NotTracked,NotTracked,
0.1337891,-0.9501953,0.2392578,-0.2060547,1.021973,-0.1279297,-3,-2,-9,-14,-46,-46,1,-50,5,-2,-10,-32,-2,-5,-11,1,12.1875,12.1875,12.1875,7.0625,7.0625,7.0625,2.880859,4.827088,0.9615243,7.663016,5.275567,1.671618,0.2275541,-0.03904811,1.447923,0.07230899,-0.03014354,1.472609,0.2375689,0.3948217,1.709728,0.2501638,-0.07459927,1.490778,0.06737399,-0.003754929,1.427222,0.2218754,-0.07019256,1.692158,0.21351,-0.3888181,1.670715,0.05479166,0.1210212,1.669856,0.1281503,-0.3810777,1.64471,-0.0002038554,-0.08672851,1.563674,0.3452904,-0.05065456,1.470788,NA,NA,NotTracked,NotTracked,
0.1005859,-1.016602,0.2460938,-0.1967773,0.965332,-0.04736328,5,-2,-21,-10,-12,-41,-76,-13,2,0,1,12,-16,-1,-5,2,3.125,3.125,3.125,-4.75,-4.75,-4.75,2.887188,4.82842,0.9624099,7.651983,5.269179,1.675352,0.2304084,-0.0390311,1.444817,0.07256806,-0.03283521,1.472998,0.2378184,0.3945179,1.709323,0.2545909,-0.06334482,1.395254,0.07183317,-0.001741918,1.426184,0.2219045,-0.07005005,1.692127,0.2135226,-0.388551,1.670699,0.05467907,0.1210221,1.66989,0.1282585,-0.380762,1.64458,0.0001352828,-0.08714093,1.563235,0.346143,-0.05156005,1.471543,NA,NA,NotTracked,NotTracked,
0.1186523,-0.9658203,0.2558594,-0.1645508,0.9375,-0.07080078,16,13,11,0,-3,17,-10,2,-3,-4,-2,-4,11,0,-3,0,0.8125,0.8125,0.8125,-2.0625,-2.0625,-2.0625,2.885049,4.825601,0.9593688,7.6452,5.266475,1.670812,0.2520602,-0.04163573,1.437625,0.07398883,-0.0321698,1.472583,0.2380202,0.3942663,1.708953,0.2635912,-0.08950352,1.447795,0.07340401,-0.0004786057,1.425813,0.222047,-0.06982284,1.692049,0.2135585,-0.3882348,1.670705,0.05457303,0.1210496,1.669936,0.1284043,-0.3803959,1.644501,0.0003487394,-0.08714996,1.562541,0.3464312,-0.05208332,1.471719,NA,NA,NotTracked,NotTracked,
0.1225586,-0.9453125,0.2773438,-0.05517578,0.769043,-0.0546875,4,0,34,7,8,5,-9,-10,-4,1,2,9,15,-20,-15,-6,3.8125,3.8125,3.8125,-23.9375,-23.9375,-23.9375,2.888831,4.815388,0.958699,7.613501,5.250218,1.640982,0.2173841,-0.03996681,1.448991,0.07067419,-0.03037884,1.468055,0.2382187,0.3942176,1.708597,0.1358999,-0.006065474,1.418703,0.07495539,-0.0009768351,1.424,0.222129,-0.06957204,1.691972,0.2135887,-0.3878933,1.670679,0.05449154,0.1210482,1.669936,0.1285246,-0.3800591,1.644375,0.0004438519,-0.08723986,1.562037,0.3453559,-0.0528381,1.472786,NA,NA,NotTracked,NotTracked,
0.1401367,-0.8203125,0.3359375,-0.01953125,0.7299805,0.06689453,-11,-7,8,-5,-5,-4,7,-1,0,-2,1,7,3,-3,-11,-3,14.9375,14.9375,14.9375,-3.6875,-3.6875,-3.6875,2.912578,4.794038,0.9545177,7.578229,5.199356,1.591794,0.237748,-0.04596803,1.435659,0.06843443,-0.02659293,1.450593,0.2384085,0.3941372,1.708427,0.1959753,-0.01451535,1.406391,0.07577095,0.002655734,1.453111,0.2222168,-0.06945253,1.691877,0.2135818,-0.3877768,1.670674,0.05499964,0.1209751,1.669888,0.1285477,-0.3798715,1.644226,0.0006851053,-0.08745322,1.56204,0.3462189,-0.05595445,1.476605,NA,NA,NotTracked,NotTracked,
0.1411133,-0.9492188,0.265625,-0.2211914,0.9414063,0.02392578,-13,-10,21,-9,-8,-16,-35,0,-1,-4,-3,0,-7,5,3,-5,19.3125,19.3125,19.3125,-69.1875,-69.1875,-69.1875,2.93515,4.728388,0.9677458,7.517153,5.059244,1.543584,0.1772949,-0.05535984,1.439208,0.06795711,-0.05442778,1.444777,0.2384725,0.3940541,1.708198,0.2329905,-0.09508262,1.4455,0.09742953,-0.1081095,1.493556,0.2222803,-0.06909803,1.691635,0.2133881,-0.3870714,1.67054,0.05496818,0.1209664,1.669891,0.1284769,-0.3792197,1.643944,0.002434399,-0.09000712,1.56441,0.3411382,-0.0773061,1.488396,NA,NA,NotTracked,NotTracked,
0.2119141,-0.7314453,0.1767578,0.08251953,0.9506836,-0.02734375,-5,-5,0,-2,0,2,0,-7,-1,0,3,6,-2,0,3,3,17.375,17.375,17.375,-21.125,-21.125,-21.125,2.964736,4.618789,1.023176,7.424072,4.804347,1.43594,0.1945652,-0.1060304,1.445118,0.06575582,-0.0941195,1.427714,0.2386648,0.393975,1.707556,0.2169788,-0.172268,1.457036,0.09130906,-0.1116384,1.439778,0.2223499,-0.06899401,1.691312,0.2133115,-0.3871115,1.670472,0.05729987,0.1198928,1.669524,0.1283562,-0.3792356,1.644055,0.0002706221,-0.0865941,1.579858,0.3407296,-0.1048953,1.494194,NA,NA,NotTracked,NotTracked,
0.3457031,-0.8217773,0.2592773,0.3701172,0.9970703,0.1123047,-1,-1,8,0,1,0,1,6,-1,4,0,-7,-8,-4,-31,-3,39.1875,39.1875,39.1875,-48.375,-48.375,-48.375,2.995947,4.330118,1.143312,7.378926,4.573705,1.336572,0.127841,-0.1480305,1.433773,0.09692112,-0.1484602,1.416782,0.2388857,0.3939874,1.706902,0.1401145,-0.1788883,1.4775,0.09205667,-0.1781379,1.425111,0.2222842,-0.06894276,1.690342,0.2129459,-0.3878779,1.668868,0.05794676,0.1195308,1.669234,0.1279547,-0.3796832,1.643047,-0.007625706,-0.09114753,1.601592,0.3702108,-0.06988335,1.492885,NA,NA,NotTracked,NotTracked,
0.456543,-0.8657227,0.2949219,0.4291992,0.9897461,0.1132813,-3,0,1,-1,-1,-5,-13,-7,-3,-2,-2,-2,4,-1,13,2,38.8125,38.8125,38.8125,-68.9375,-68.9375,-68.9375,2.996593,4.16149,1.223189,7.310835,4.357499,1.237241,0.07587534,-0.2252603,1.399284,0.115825,-0.2021924,1.407447,0.2389567,0.3940235,1.706694,0.1184794,-0.2383603,1.422273,0.1303302,-0.2242437,1.417,0.2223616,-0.06942002,1.68925,0.2130968,-0.3898651,1.666841,0.05831828,0.1189267,1.66907,0.1279192,-0.3813751,1.64133,-0.002523226,-0.09574382,1.613607,0.3693936,-0.07746373,1.504758,NA,NA,NotTracked,NotTracked,
0.6967773,-0.7866211,0.284668,0.5708008,0.8544922,0.2407227,2,-4,-4,-8,-1,1,0,0,4,0,0,0,-3,-2,-7,-9,62,62,62,-50.6875,-50.6875,-50.6875,3.038097,3.843554,1.447772,7.253876,4.092803,1.094323,0.08525346,-0.2856631,1.404464,0.1363384,-0.2571634,1.400981,0.2388256,0.3940444,1.706211,0.1295426,-0.3259379,1.435625,0.145213,-0.2975453,1.415692,0.2228223,-0.06987648,1.688617,0.2149189,-0.3918023,1.66634,0.05835454,0.1187386,1.669186,0.1303818,-0.3845037,1.640714,0.004019534,-0.09943615,1.625545,0.3679158,-0.08248455,1.515094,NA,NA,NotTracked,NotTracked,
