ALX,ALY,ALZ,ARX,ARY,ARZ,EMG0L,EMG1L,EMG2L,EMG3L,EMG4L,EMG5L,EMG6L,EMG7L,EMG0R,EMG1R,EMG2R,EMG3R,EMG4R,EMG5R,EMG6R,EMG7R,GLX,GLY,GLZ,GRX,GRY,GRZ,ORL,OPL,OYL,ORR,OPR,OYR,LHNX,LHNY,LHNZ,RHNX,RHNY,RHNZ,HX,HY,HZ,LTX,LTY,LTZ,RTX,RTY,RTZ,SpineMidX,SpineMidY,SpineMidZ,SpineBaseX,SpineBaseY,SpineBaseZ,ShoulderLeftX,ShoulderLeftY,ShoulderLeftZ,ShoulderRightX,ShoulderRightY,ShoulderRightZ,ElbowLeftX,ElbowLeftY,ElbowLeftZ,ElbowRightX,ElbowRightY,ElbowRightZ,Myo_Pose_left,Myo_Pose_Right,Kinect_pose_left,Kinect_pose_right
0.9487305,-0.331543,0.1191406,0.9111328,0.3212891,0.1425781,1,-3,-1,-1,-1,-1,0,-1,0,1,-2,-1,0,3,-1,0,3.8125,3.8125,3.8125,-2.0625,-2.0625,-2.0625,2.992978,3.053232,7.157437,6.744366,3.077611,3.647821,0.002332344,-0.395684,1.575934,0.3474672,-0.4298812,1.527248,0.2149497,0.4031035,1.65232,0.04059869,-0.4032387,1.534539,0.3012801,-0.4250283,1.500353,0.197549,-0.06056953,1.665169,0.188771,-0.3864343,1.645104,0.02257663,0.1342282,1.648967,0.1006086,-0.3765235,1.614385,-0.01612526,-0.1297584,1.657527,0.3973868,-0.1228516,1.624948,NA,NA,NotTracked,NotTracked,
0.9379883,-0.3071289,0.1015625,0.9169922,0.3095703,0.1459961,-3,2,0,0,-1,0,4,0,0,-1,-1,-1,0,-5,-1,0,5.1875,5.1875,5.1875,0.9375,0.9375,0.9375,3.002711,3.051445,7.157326,6.745348,3.076034,3.643054,0.002339626,-0.4070993,1.572506,0.346805,-0.4304311,1.52599,0.2149789,0.4031278,1.65222,0.03757593,-0.4025971,1.532564,0.3012495,-0.4251367,1.499007,0.197429,-0.06057347,1.664895,0.188641,-0.3863949,1.644831,0.02254835,0.1342251,1.648901,0.1004632,-0.376482,1.614214,-0.01605326,-0.1297348,1.65743,0.3972034,-0.1229971,1.624431,NA,NA,NotTracked,NotTracked,
0.9335938,-0.3237305,0.09472656,0.9111328,0.3149414,0.1630859,-3,-7,-4,-2,-1,-1,-2,-3,-1,0,0,-1,-3,-2,1,0,0.0625,0.0625,0.0625,-1.4375,-1.4375,-1.4375,3.002111,3.049975,7.160707,6.745086,3.076658,3.643467,0.001612957,-0.3949793,1.575217,0.3468437,-0.4314297,1.526018,0.2150558,0.4031844,1.65214,0.03992449,-0.3889061,1.535126,0.3009228,-0.4236994,1.4991,0.197353,-0.06058087,1.664641,0.1885609,-0.3864228,1.644584,0.02251395,0.1341854,1.648832,0.1003659,-0.3764758,1.613914,-0.01589051,-0.1302793,1.65741,0.3971087,-0.123079,1.624176,NA,NA,NotTracked,NotTracked,
0.9321289,-0.3125,0.1157227,0.9116211,0.3115234,0.1665039,-1,1,-2,-2,-2,-2,0,-1,0,-2,-1,-1,-1,-5,-1,4,-1.0625,-1.0625,-1.0625,0.0625,0.0625,0.0625,3.004133,3.050547,7.158126,6.744632,3.077179,3.643754,0.00203536,-0.3950556,1.575288,0.3472418,-0.4308976,1.526499,0.2151984,0.4031698,1.652275,0.04070883,-0.3874974,1.53647,0.3009761,-0.4247622,1.500257,0.1973792,-0.06068186,1.664523,0.188546,-0.3865736,1.644434,0.02254098,0.1341052,1.64881,0.1003528,-0.3766462,1.613741,-0.01589723,-0.1302981,1.657386,0.3970789,-0.1231514,1.624091,NA,NA,NotTracked,NotTracked,
0.9414063,-0.3242188,0.1157227,0.9262695,0.3144531,0.1552734,-2,2,-2,0,-1,-1,-3,-4,-1,-1,-2,0,2,0,0,0,-1.3125,-1.3125,-1.3125,-1.25,-1.25,-1.25,3.005099,3.050823,7.155763,6.737617,3.078718,3.648257,0.002071303,-0.3953912,1.574852,0.3472798,-0.4329988,1.526298,0.2152271,0.4031684,1.652288,0.0404483,-0.3962005,1.534767,0.3011017,-0.4251621,1.499959,0.1973991,-0.06075971,1.664453,0.1885455,-0.3866612,1.644353,0.02262761,0.1340221,1.648616,0.1003482,-0.3767375,1.613659,-0.01586053,-0.1302997,1.657319,0.3970674,-0.1232196,1.624059,NA,NA,NotTracked,NotTracked,
0.9389648,-0.3237305,0.1147461,0.9140625,0.3041992,0.1513672,-3,10,0,-1,-2,-2,-3,-3,2,0,-2,0,0,2,3,6,-0.5625,-0.5625,-0.5625,-1.3125,-1.3125,-1.3125,3.005084,3.050443,7.155782,6.734594,3.077664,3.648458,0.002239055,-0.3948442,1.575114,0.347127,-0.4339165,1.526223,0.2151487,0.4032795,1.652322,0.04088724,-0.3924952,1.534976,0.3010616,-0.4244075,1.499907,0.197452,-0.06075804,1.664317,0.188614,-0.3867224,1.644225,0.02263338,0.1339669,1.64852,0.1004044,-0.3767896,1.61355,-0.01563474,-0.1305291,1.657054,0.3970404,-0.1232321,1.623994,NA,NA,NotTracked,NotTracked,
0.9423828,-0.3164063,0.1069336,0.9057617,0.3129883,0.1743164,1,-5,-1,-2,-1,-3,-3,-3,-1,0,-2,-1,-2,-1,-3,-4,-1.3125,-1.3125,-1.3125,1.4375,1.4375,1.4375,3.004809,3.049837,7.155494,6.730738,3.076597,3.654652,0.001966613,-0.3953987,1.574593,0.3475154,-0.4331968,1.5262,0.2149197,0.4034815,1.652346,0.03930276,-0.3976493,1.534121,0.3011957,-0.4243503,1.500293,0.1975432,-0.0607559,1.664128,0.1886877,-0.386768,1.644117,0.02257626,0.1338001,1.648271,0.1004768,-0.3768698,1.613452,-0.0153544,-0.1303242,1.656537,0.397042,-0.1232624,1.623863,NA,NA,NotTracked,NotTracked,
0.9521484,-0.3203125,0.1069336,0.9121094,0.3100586,0.1469727,-3,-2,-2,-1,-1,-3,-5,-5,-1,-1,0,0,0,2,-2,1,-0.25,-0.25,-0.25,1.625,1.625,1.625,3.003209,3.047987,7.15344,6.730597,3.076476,3.657173,0.002364629,-0.3949068,1.575376,0.3473607,-0.4341931,1.526332,0.2142015,0.4038721,1.652384,0.04101377,-0.37166,1.539138,0.3009266,-0.4245273,1.500006,0.1975842,-0.06078163,1.663949,0.1887507,-0.3868316,1.644072,0.02264495,0.1334485,1.647738,0.1005386,-0.3769336,1.613409,-0.01510508,-0.1305598,1.656455,0.3970406,-0.1232634,1.62379,NA,NA,NotTracked,NotTracked,
0.9355469,-0.3149414,0.09472656,0.9125977,0.3310547,0.1162109,-2,-2,-1,-1,-2,-2,1,1,49,-2,-5,-1,-3,-6,-7,-2,0.25,0.25,0.25,-0.5625,-0.5625,-0.5625,3.006918,3.048164,7.149314,6.738532,3.083263,3.652097,0.004173712,-0.4097557,1.572363,0.3484237,-0.4338165,1.527053,0.2138181,0.4039393,1.652591,0.03834835,-0.4111165,1.531955,0.3013852,-0.4231237,1.500161,0.1977021,-0.06083025,1.663875,0.1889033,-0.3869871,1.644041,0.02262308,0.1330413,1.647478,0.1007083,-0.3771243,1.613419,-0.01471377,-0.1308249,1.656578,0.3970724,-0.1232818,1.623795,NA,NA,NotTracked,NotTracked,
0.9404297,-0.324707,0.1118164,1.054688,0.2885742,0.07958984,-1,0,2,0,0,-1,-1,1,-22,-3,0,-5,-29,-39,-8,3,-2.0625,-2.0625,-2.0625,-51.375,-51.375,-51.375,3.007443,3.049258,7.146853,6.677389,3.130393,3.647376,0.002816504,-0.3945827,1.57491,0.3497072,-0.4384447,1.520924,0.2134272,0.4041564,1.65276,0.04135565,-0.3862678,1.5372,0.3014108,-0.4283074,1.497747,0.197672,-0.06084016,1.663766,0.1889831,-0.3870649,1.643986,0.02234617,0.1328513,1.647508,0.1008195,-0.3772598,1.613353,-0.01457905,-0.130856,1.656491,0.3972506,-0.1233536,1.623853,NA,NA,NotTracked,NotTracked,
0.9433594,-0.3193359,0.105957,1.024414,0.7294922,0.2353516,-1,-1,0,-2,-3,-1,-2,-2,-6,20,20,-3,-30,-25,-49,-13,3,3,3,-45.5,-45.5,-45.5,3.012691,3.052455,7.146095,6.648636,3.279402,3.613618,0.002781351,-0.394273,1.574729,0.3450314,-0.4257221,1.496542,0.2131086,0.4043052,1.652858,0.03954772,-0.4008534,1.533636,0.347194,-0.4252612,1.443882,0.1976807,-0.06085595,1.663477,0.1890221,-0.3871318,1.643856,0.02228132,0.1327384,1.647403,0.1008625,-0.3773239,1.613164,-0.01449545,-0.1309345,1.656266,0.4005824,-0.122871,1.626002,NA,NA,NotTracked,NotTracked,
0.9375,-0.3105469,0.09716797,0.8979492,0.7148438,0.5742188,2,8,-2,-2,-1,-1,-1,-1,10,28,1,3,-2,-31,-15,5,4.1875,4.1875,4.1875,-102.5625,-102.5625,-102.5625,3.016026,3.054672,7.148785,6.51593,3.68916,3.51727,0.005466621,-0.4157886,1.569909,0.3326601,-0.3722848,1.443362,0.2128347,0.4044398,1.652897,0.04282865,-0.421436,1.529194,0.3440204,-0.3754744,1.386658,0.197445,-0.06077796,1.663289,0.1887638,-0.3870684,1.643744,0.02212501,0.1326337,1.647252,0.1003832,-0.3770732,1.61294,-0.01469693,-0.130818,1.655931,0.4055457,-0.1181542,1.630952,NA,NA,NotTracked,Lasso,
0.9145508,-0.3310547,0.1108398,0.4633789,0.8818359,0.6953125,1,2,0,-1,-1,-3,-3,0,-11,23,45,7,1,-6,-2,2,-5.5625,-5.5625,-5.5625,15,15,15,3.014613,3.053115,7.14725,6.525551,4.13562,3.447474,0.001594042,-0.4061334,1.571727,0.3182401,-0.2757564,1.379787,0.2125741,0.4045444,1.653088,0.03722132,-0.4127393,1.531144,0.3339142,-0.2806913,1.325645,0.1971025,-0.0608066,1.663153,0.1873469,-0.3870499,1.643707,0.02203897,0.1325443,1.647134,0.0989132,-0.3767962,1.612865,-0.01515038,-0.1294665,1.655782,0.412231,-0.1030656,1.635918,NA,NA,NotTracked,Closed,
0.9321289,-0.3227539,0.1259766,0.1494141,0.9506836,0.6264648,-2,0,-2,0,-1,-1,0,-1,1,-11,-8,-9,-3,2,-9,-1,-2.75,-2.75,-2.75,-33.9375,-33.9375,-33.9375,3.014143,3.055614,7.141456,6.527158,4.678033,3.399261,0.002262536,-0.4025425,1.57241,0.3057324,-0.150298,1.307753,0.2123509,0.4045482,1.653308,0.03815008,-0.4081193,1.531101,0.321562,-0.1745159,1.276222,0.1969675,-0.06084231,1.663138,0.18723,-0.3870602,1.643673,0.02204128,0.1322194,1.646912,0.09880616,-0.3768174,1.61279,-0.01504416,-0.1289769,1.655857,0.4199775,-0.08841872,1.629402,NA,NA,NotTracked,Closed,
0.940918,-0.3066406,0.1210938,-0.3188477,0.8588867,0.5532227,0,2,0,-2,-2,-2,0,-2,-4,-6,-14,-1,1,5,1,0,-4.5625,-4.5625,-4.5625,46.1875,46.1875,46.1875,3.019915,3.057468,7.129137,6.565974,5.454816,3.40766,0.004905761,-0.4125823,1.568876,0.2225661,0.02605178,1.170404,0.2121381,0.404566,1.653652,0.04107006,-0.4143474,1.530165,0.2038569,-0.0009208322,1.133986,0.1968357,-0.06075801,1.663247,0.1873141,-0.3868145,1.643795,0.02206426,0.1320188,1.646861,0.09887853,-0.3767348,1.613055,-0.01503653,-0.1286213,1.655726,0.4278232,-0.07712589,1.561179,NA,NA,NotTracked,Unknown,
0.9379883,-0.3037109,0.09033203,-0.534668,0.6870117,0.519043,0,5,-1,-1,-2,0,-1,1,2,6,4,-4,-2,5,3,1,-5.375,-5.375,-5.375,42.25,42.25,42.25,3.017288,3.059328,7.117671,6.667273,5.982818,3.484,0.004880047,-0.4089422,1.570334,0.3028985,0.1414017,1.332968,0.2120174,0.4045278,1.653889,0.04233638,-0.4049967,1.53042,0.3062732,0.1196521,1.290075,0.1965006,-0.06114487,1.663735,0.1871758,-0.3877935,1.644065,0.02217824,0.1318174,1.646835,0.09845123,-0.3781793,1.613449,-0.01480825,-0.1278066,1.655702,0.4159014,-0.06889372,1.492694,NA,NA,NotTracked,Lasso,
0.9487305,-0.300293,0.1108398,-0.5478516,0.5874023,0.3276367,-2,0,1,-2,-1,-2,-5,-3,-11,-3,-4,-1,2,9,0,-9,0.1875,0.1875,0.1875,36.625,36.625,36.625,3.015581,3.060912,7.1166,6.945728,6.490985,3.740071,0.006543081,-0.4227167,1.566475,0.3051853,0.2318875,1.377571,0.2115193,0.4044458,1.654069,0.04430415,-0.4421146,1.524769,0.3112645,0.2245433,1.330982,0.1965684,-0.06090149,1.664213,0.1869811,-0.3875678,1.644362,0.02258254,0.1318986,1.646849,0.09761833,-0.3777804,1.614127,-0.01371926,-0.1201528,1.655756,0.4192101,-0.05204166,1.469345,NA,NA,NotTracked,Lasso,
0.9316406,-0.3144531,0.1201172,-0.5620117,0.4213867,0.2275391,-1,-3,-2,-2,0,-2,0,2,-7,-7,-11,-6,-5,-4,4,-7,2.75,2.75,2.75,18.25,18.25,18.25,3.01684,3.061583,7.117996,7.278338,6.709718,4.090347,0.006491331,-0.4193259,1.570404,0.3039342,0.2728136,1.420242,0.2109283,0.4039257,1.654082,0.04677255,-0.4115216,1.532844,0.3331992,0.2709915,1.4228,0.1963942,-0.0608677,1.663604,0.1862875,-0.3877508,1.644636,0.02564246,0.1323952,1.647898,0.09586564,-0.3776787,1.614841,-0.01333576,-0.1186866,1.65597,0.4198953,-0.01194271,1.42769,NA,NA,NotTracked,Unknown,
0.9355469,-0.3144531,0.1123047,-0.6074219,0.3481445,0.1308594,-2,-1,-3,-1,1,-1,-3,-4,-3,1,0,3,6,-4,13,-9,7.3125,7.3125,7.3125,-8.0625,-8.0625,-8.0625,3.017462,3.06236,7.124785,7.599931,6.792837,4.451228,0.00656661,-0.4209609,1.570383,0.2932365,0.294371,1.44829,0.2102422,0.4034499,1.652778,0.04571243,-0.4099955,1.530971,0.2865787,0.2549056,1.466769,0.1962445,-0.06087882,1.66302,0.1860003,-0.38772,1.644731,0.02711518,0.1326379,1.648671,0.09508376,-0.3774644,1.615357,-0.01342844,-0.1174766,1.656667,0.4181467,0.01439836,1.409763,NA,NA,NotTracked,Unknown,
0.9418945,-0.34375,0.1157227,-0.7695313,0.3798828,-0.03125,-3,-9,-2,-2,0,-2,1,1,-4,5,0,-8,-7,1,6,1,7.625,7.625,7.625,-11.875,-11.875,-11.875,3.024443,3.069271,7.15225,7.774924,6.802995,4.665273,0.002061771,-0.3955713,1.577206,0.2745728,0.3094519,1.475704,0.2091849,0.4028056,1.650598,0.04147299,-0.3733041,1.540076,0.2166463,0.2993965,1.526367,0.1961465,-0.06088447,1.662708,0.1856364,-0.3876655,1.645075,0.02718343,0.1334706,1.646703,0.0942673,-0.37714,1.616334,-0.01347056,-0.1168367,1.65744,0.4174968,0.02520987,1.403625,NA,NA,NotTracked,Lasso,
0.9350586,-0.3447266,0.1049805,-0.8481445,0.4272461,-0.109375,-2,0,-3,-1,1,-1,3,0,0,-3,-6,-6,-3,4,10,-4,2.9375,2.9375,2.9375,-13,-13,-13,3.026523,3.071183,7.160533,7.809122,6.789784,4.72334,0.0015406,-0.3956397,1.577121,0.2654633,0.3093112,1.48361,0.2082557,0.4023414,1.648228,0.04092569,-0.4043599,1.534471,0.2135329,0.292936,1.528563,0.196073,-0.06097226,1.662365,0.185488,-0.3877415,1.645146,0.0277779,0.133224,1.647886,0.09405587,-0.3771531,1.616524,-0.01376226,-0.1162149,1.658274,0.416766,0.02912488,1.40088,NA,NA,NotTracked,Unknown,
0.9228516,-0.3588867,0.1103516,-0.9072266,0.5131836,-0.078125,1,-1,0,-1,-1,-2,0,-2,-1,-1,0,-3,-4,-1,5,6,-1.3125,-1.3125,-1.3125,14.5,14.5,14.5,3.02492,3.071856,7.160891,7.733927,6.783994,4.651932,0.001551344,-0.39538,1.577897,0.2631119,0.310912,1.48571,0.2077461,0.4019791,1.646695,0.04119063,-0.3859622,1.537292,0.2071841,0.2871296,1.527281,0.1960565,-0.06115555,1.661935,0.1854135,-0.3878429,1.645129,0.02792467,0.1330694,1.648788,0.09401725,-0.3772229,1.616538,-0.01417262,-0.1154354,1.658948,0.4155279,0.03040628,1.399284,NA,NA,NotTracked,Unknown,
0.934082,-0.3481445,0.1293945,-0.9145508,0.449707,-0.09570313,1,0,-3,-2,-3,-1,1,-1,14,-1,-3,-9,-5,-1,0,1,-4.625,-4.625,-4.625,7.8125,7.8125,7.8125,3.026624,3.074859,7.152084,7.722705,6.778297,4.633872,0.001761569,-0.3951934,1.577331,0.2610129,0.311947,1.488145,0.2074434,0.401616,1.645912,0.04119117,-0.3877037,1.537379,0.2112454,0.2871486,1.528376,0.1960184,-0.06122652,1.661838,0.1851972,-0.3880314,1.645373,0.02810846,0.1328835,1.649156,0.09371986,-0.3773882,1.616934,-0.01435859,-0.1154998,1.6592,0.4148208,0.03091656,1.398499,NA,NA,NotTracked,Closed,
0.934082,-0.3276367,0.1108398,-0.9082031,0.4228516,-0.078125,-3,-1,-1,-2,0,0,-2,-5,3,-3,2,6,6,1,-1,0,-4.6875,-4.6875,-4.6875,9.625,9.625,9.625,3.027451,3.075073,7.142024,7.72954,6.784763,4.624273,0.00157101,-0.395177,1.57675,0.2614703,0.314371,1.491546,0.2073544,0.4013588,1.645257,0.04050672,-0.3753295,1.539155,0.2065818,0.2836573,1.526175,0.1960086,-0.06131579,1.661673,0.1851364,-0.3881504,1.645417,0.02835755,0.1327839,1.649389,0.09364794,-0.3774987,1.617007,-0.01448376,-0.1152932,1.659353,0.4147947,0.03108198,1.398327,NA,NA,NotTracked,Unknown,
0.9541016,-0.3115234,0.1181641,-0.8964844,0.394043,-0.05273438,0,-4,0,-2,-2,-2,4,0,-1,1,2,1,0,-1,0,0,-3.6875,-3.6875,-3.6875,9.375,9.375,9.375,3.029105,3.072509,7.133917,7.715503,6.795341,4.593805,0.001492064,-0.3955104,1.576895,0.2612721,0.317313,1.495848,0.2074514,0.4013788,1.644992,0.04036201,-0.378045,1.538631,0.2105704,0.2836616,1.528988,0.1958838,-0.06160798,1.662332,0.1849884,-0.3881718,1.645629,0.02847432,0.1328658,1.649613,0.09353384,-0.3774626,1.61708,-0.0145662,-0.1151066,1.65943,0.4152787,0.03110929,1.398574,NA,NA,NotTracked,Unknown,
0.9262695,-0.3188477,0.1064453,-0.8417969,0.387207,-0.01904297,-1,2,2,-1,-2,0,4,1,4,-4,-4,-1,-1,2,-1,5,-6.4375,-6.4375,-6.4375,6.125,6.125,6.125,3.031302,3.071059,7.124711,7.698701,6.798995,4.56142,0.002241116,-0.3954415,1.575085,0.2605168,0.3206788,1.497322,0.2079082,0.401404,1.644602,0.04124865,-0.382155,1.537605,0.2093355,0.2810203,1.527475,0.1958018,-0.06158845,1.662025,0.1849154,-0.3881701,1.645656,0.02869346,0.1329769,1.649583,0.09342494,-0.3773743,1.617032,-0.01446501,-0.1149722,1.659379,0.4159758,0.03078204,1.398975,NA,NA,NotTracked,Unknown,
0.9179688,-0.3461914,0.1049805,-0.7446289,0.3984375,0.01953125,0,-3,-1,-3,0,0,5,5,-9,-2,-2,0,-1,-5,23,35,-4.25,-4.25,-4.25,3.1875,3.1875,3.1875,3.028988,3.071827,7.121301,7.655471,6.795205,4.504903,0.001343406,-0.395128,1.574382,0.2624121,0.3195836,1.495539,0.2086753,0.4013861,1.644107,0.03985662,-0.3805078,1.537622,0.2093626,0.2827329,1.526232,0.1958012,-0.06160386,1.661794,0.184861,-0.3881975,1.645663,0.02927236,0.1330264,1.649454,0.09334291,-0.3773381,1.616999,-0.01445368,-0.1147937,1.65929,0.4169782,0.02946086,1.399977,NA,NA,NotTracked,Closed,
0.9873047,-0.4052734,0.1069336,-0.7880859,0.362793,0.06005859,0,-1,1,-1,-9,-12,-7,-14,9,4,0,0,5,-1,-11,-10,38.8125,38.8125,38.8125,-11.9375,-11.9375,-11.9375,3.046315,3.094073,7.12293,7.475226,6.7546,4.313498,0.003291136,-0.4160655,1.564441,0.2653589,0.3140919,1.480659,0.2092921,0.4012339,1.64394,0.04079389,-0.4148479,1.526424,0.2105396,0.2846273,1.52701,0.1958202,-0.0616337,1.661645,0.1847956,-0.3882464,1.645705,0.03024433,0.1333953,1.649112,0.09326102,-0.3773175,1.616999,-0.01442089,-0.1145744,1.659311,0.4187431,0.02106415,1.404873,NA,NA,NotTracked,Lasso,
0.9628906,-0.3896484,0.1040039,-0.8632813,0.3310547,-0.02587891,1,0,-1,-4,2,-11,7,9,4,7,3,4,3,5,1,0,48.625,48.625,48.625,20.125,20.125,20.125,3.231581,3.214791,7.079349,7.265515,6.627412,4.066896,0.004775027,-0.4097941,1.53892,0.2763952,0.2743467,1.416617,0.2092455,0.4014603,1.644184,0.0528099,-0.4087347,1.523529,0.2757817,0.2562402,1.477375,0.1959184,-0.06168403,1.661347,0.1848178,-0.3883979,1.645575,0.03071952,0.1334597,1.648805,0.09326027,-0.3774633,1.61694,-0.01511759,-0.1122884,1.659668,0.4214827,-0.01511139,1.429754,NA,NA,NotTracked,Closed,
0.8046875,-0.5917969,0.21875,-0.8364258,0.5893555,0.07128906,-3,0,-2,1,-5,-10,-17,-2,-31,5,8,1,-10,4,1,-18,-24.625,-24.625,-24.625,-1.8125,-1.8125,-1.8125,3.244182,3.31585,7.047079,7.129625,6.221788,3.834806,0.006183467,-0.3988355,1.489639,0.2602091,0.2182855,1.359362,0.2089328,0.4046134,1.647221,0.04493896,-0.411142,1.513833,0.2250822,0.2343344,1.4285,0.1967631,-0.06124322,1.660218,0.1860099,-0.3890574,1.645189,0.03046697,0.1335934,1.648952,0.09490364,-0.3792208,1.617051,-0.01858888,-0.1017062,1.658572,0.4186279,-0.03480343,1.446898,NA,NA,Unknown,Closed,
0.6689453,-0.7553711,0.2783203,-0.6245117,0.7416992,0.199707,-4,-2,-1,1,-3,-9,-2,10,-45,-26,-11,-2,-2,-12,-15,-15,-51.5625,-51.5625,-51.5625,16.625,16.625,16.625,3.135062,3.635547,7.013799,7.085418,5.801906,3.737953,0.008031406,-0.3614664,1.428877,0.2380397,0.1383909,1.292563,0.2097733,0.4051991,1.652671,0.0570192,-0.3597469,1.420825,0.1951611,0.1346067,1.265125,0.1966428,-0.06211114,1.659757,0.1889827,-0.3938571,1.644042,0.02896361,0.1344617,1.649896,0.09860953,-0.3873587,1.618054,-0.02462993,-0.09512932,1.648875,0.4122903,-0.04453908,1.456058,NA,NA,Unknown,Closed,
0.6411133,-0.8041992,0.2836914,-0.4536133,1.041504,0.2680664,0,15,0,-4,-3,-3,-13,-8,17,2,2,2,1,14,5,13,-56.1875,-56.1875,-56.1875,38.5,38.5,38.5,2.984915,3.876931,7.02946,7.115547,5.413317,3.660606,0.013426,-0.327184,1.367432,0.2314944,0.0421764,1.235814,0.2122395,0.404946,1.657596,0.05032104,-0.3608046,1.403333,0.2436726,0.01867462,1.1958,0.1985041,-0.06236445,1.661548,0.1928437,-0.3931699,1.643614,0.02868029,0.1352253,1.648961,0.103531,-0.3875172,1.615499,-0.03099999,-0.08312692,1.62305,0.4180634,-0.03230805,1.485015,NA,NA,Unknown,Unknown,
0.6396484,-0.769043,0.2299805,-0.08447266,1.129395,0.2749023,14,2,2,2,1,-1,12,-2,-9,14,4,-2,0,3,6,4,-73,-73,-73,30.8125,30.8125,30.8125,2.911377,3.971683,7.037662,7.194451,4.962006,3.583593,0.01733214,-0.2947617,1.308795,0.2335767,-0.0492588,1.201551,0.2130102,0.4052471,1.662207,0.06167401,-0.2925669,1.306278,0.2521368,-0.06560587,1.1572,0.1991585,-0.0618898,1.66352,0.1944201,-0.3914703,1.643356,0.02875254,0.1355212,1.649415,0.1054355,-0.3862627,1.614833,-0.0326077,-0.07936938,1.595064,0.4109792,-0.03698167,1.479295,NA,NA,Unknown,Unknown,
0.6166992,-0.7119141,0.184082,0.3071289,1.066406,0.2143555,10,-1,5,-3,2,1,26,6,5,-6,-6,1,-8,5,3,16,-69.5,-69.5,-69.5,36.5625,36.5625,36.5625,2.730917,4.097248,7.056762,7.265992,4.678707,3.537054,0.01753321,-0.2683134,1.264161,0.2414766,-0.1234773,1.188754,0.2139173,0.4054733,1.667236,0.06344252,-0.2757688,1.2609,0.2643515,-0.1394198,1.143474,0.1999151,-0.06178361,1.664999,0.1948114,-0.3911283,1.643239,0.02909867,0.1355771,1.649193,0.1060524,-0.3859645,1.614407,-0.03102859,-0.07429951,1.571985,0.412525,-0.04353314,1.482082,NA,NA,Unknown,Unknown,
0.6142578,-0.6542969,0.1396484,0.4223633,1.016602,0.1123047,-15,21,0,-6,-1,3,-5,-23,6,-6,-2,2,3,3,0,-18,-82.125,-82.125,-82.125,29.5,29.5,29.5,2.599816,4.126921,7.075471,7.377122,4.414743,3.462544,0.01643925,-0.2515261,1.234172,0.2542977,-0.1750377,1.181142,0.2145772,0.4060962,1.671435,0.06124042,-0.2544077,1.237063,0.2847916,-0.1874146,1.139778,0.2003826,-0.06167438,1.666259,0.1950565,-0.3910463,1.643091,0.0294855,0.1349236,1.647573,0.1068403,-0.3856176,1.613627,-0.03849617,-0.06061989,1.478757,0.4072827,-0.02674667,1.446878,NA,NA,Unknown,Closed,
0.6416016,-0.6523438,0.04931641,0.5571289,0.9331055,-0.02929688,13,-36,-4,2,-2,-3,-23,-27,13,-1,2,3,6,13,1,-11,-29.6875,-29.6875,-29.6875,-41.125,-41.125,-41.125,2.486869,4.118409,7.119109,7.38832,4.29625,3.356763,0.01268083,-0.2465226,1.21635,0.2699969,-0.2084563,1.178173,0.2149819,0.4066026,1.674657,0.05723899,-0.2529598,1.216706,0.2941467,-0.1986779,1.147946,0.2004385,-0.06166059,1.666996,0.1949289,-0.3910725,1.643011,0.0306608,0.1343664,1.644031,0.1068624,-0.3854254,1.613315,-0.03732825,-0.05841246,1.477474,0.3933685,-0.03088463,1.429066,NA,NA,Closed,Unknown,
0.6577148,-0.6982422,-0.04541016,0.5786133,0.8222656,-0.01123047,-50,-26,-1,-2,-1,-3,-7,-26,7,-3,-3,-2,-5,4,-13,17,-7,-7,-7,-42.1875,-42.1875,-42.1875,2.444823,4.095097,7.155337,7.353457,4.229951,3.277923,0.008617781,-0.2470659,1.209384,0.2852421,-0.2272394,1.176,0.2152855,0.4071006,1.677272,0.05115319,-0.2506517,1.209684,0.3174654,-0.2264682,1.143724,0.2005993,-0.06165072,1.667407,0.194845,-0.3911472,1.642843,0.03181354,0.1344378,1.641147,0.1068771,-0.3851932,1.612851,-0.03320085,-0.05657315,1.469001,0.3878952,-0.03097408,1.430615,NA,NA,Closed,Unknown,
0.6264648,-0.7133789,-0.09277344,0.4702148,0.9165039,0.105957,-2,-5,-17,-2,-4,-1,1,8,-47,-5,1,1,-2,1,8,-17,13.625,13.625,13.625,-0.5625,-0.5625,-0.5625,2.44672,4.074878,7.18124,7.346805,4.21997,3.260185,0.005332069,-0.2517472,1.20724,0.2897848,-0.2318088,1.174263,0.2154144,0.4072435,1.678081,0.05123048,-0.2606994,1.210492,0.3149576,-0.2247796,1.144388,0.2006628,-0.06170471,1.667596,0.1946816,-0.3913747,1.642688,0.03133525,0.1348287,1.638127,0.106828,-0.3851919,1.612632,-0.03098041,-0.05529046,1.464524,0.3823093,-0.03485221,1.422973,NA,NA,Closed,Open,
0.5576172,-0.8325195,-0.01416016,0.3657227,0.9116211,0.1381836,11,3,1,-1,-7,-9,-43,-8,6,2,1,3,4,1,8,10,-4.5,-4.5,-4.5,-5.375,-5.375,-5.375,2.44525,4.054458,7.188377,7.319741,4.249473,3.270537,0.002492332,-0.2561266,1.210008,0.2887509,-0.2288347,1.174261,0.2154564,0.4073085,1.678457,0.04818036,-0.2648368,1.209398,0.3150663,-0.2235748,1.144259,0.2006588,-0.06170739,1.667609,0.1946177,-0.3915699,1.642354,0.03153469,0.1346837,1.63615,0.1068412,-0.3851269,1.612077,-0.03072777,-0.05527821,1.463564,0.3809016,-0.03976218,1.412207,NA,NA,Closed,Unknown,
0.5581055,-0.8774414,-0.0078125,0.3920898,0.8847656,0.1313477,10,3,-4,-2,-1,-1,22,5,-19,-6,2,2,-9,-3,-7,11,1.625,1.625,1.625,-7.625,-7.625,-7.625,2.441847,4.041829,7.189737,7.304734,4.266953,3.275564,-0.0005818991,-0.2608382,1.212797,0.287194,-0.2262802,1.171824,0.2154364,0.407326,1.678555,0.04506724,-0.2683978,1.21513,0.2389082,-0.2376266,1.188284,0.2006734,-0.06170364,1.667594,0.1945643,-0.3917445,1.641961,0.03150307,0.1344561,1.634839,0.1068285,-0.3851459,1.611573,-0.03099717,-0.05568722,1.464081,0.3810177,-0.04158149,1.407756,NA,NA,Closed,Unknown,
0.5834961,-0.8525391,-0.04736328,0.3891602,0.8847656,0.1113281,23,5,24,0,-1,-1,2,24,2,-6,0,-2,-1,-9,1,-13,-7.25,-7.25,-7.25,-6.0625,-6.0625,-6.0625,2.431917,4.032341,7.198374,7.294878,4.271665,3.279052,-0.002609559,-0.2628678,1.212565,0.2861272,-0.2240652,1.173151,0.2154039,0.4073912,1.678549,0.04166737,-0.269368,1.213801,0.2369158,-0.2367493,1.188188,0.2005868,-0.06168979,1.667474,0.1943133,-0.3918538,1.641481,0.03161084,0.1341035,1.6338,0.1066119,-0.384985,1.610981,-0.03137236,-0.05779443,1.461813,0.3809773,-0.04272915,1.405494,NA,NA,Unknown,Unknown,
0.5605469,-0.8383789,-0.03320313,0.4165039,0.8681641,0.128418,-22,-8,-33,-11,-2,-5,-32,-34,-6,3,2,2,1,-2,0,-4,-8.375,-8.375,-8.375,-0.0625,-0.0625,-0.0625,2.419333,4.033361,7.195753,7.290433,4.269214,3.28174,-0.003783527,-0.2640332,1.213165,0.2858325,-0.2267826,1.172784,0.2152677,0.4074982,1.678489,0.04057658,-0.2720467,1.219544,0.2371946,-0.2379414,1.187164,0.2005084,-0.06170315,1.667375,0.1940755,-0.3920242,1.641111,0.03133694,0.133763,1.633154,0.1064378,-0.3849345,1.610547,-0.03207245,-0.05868662,1.462238,0.3811962,-0.04322551,1.405171,NA,NA,Unknown,Unknown,
0.5234375,-0.8579102,-0.06347656,0.4321289,0.8603516,0.1289063,-17,32,-28,-9,-6,-10,-16,-19,-5,-2,1,0,-1,-6,-3,-9,0.125,0.125,0.125,-6,-6,-6,2.41594,4.037256,7.19671,7.274279,4.262013,3.279039,-0.005971201,-0.2640995,1.212895,0.2867628,-0.2283499,1.172959,0.215113,0.4076032,1.67847,0.03914574,-0.2774438,1.218413,0.2384332,-0.2364855,1.188054,0.2003704,-0.06175334,1.667155,0.1937322,-0.3921407,1.640736,0.03114719,0.1335203,1.632735,0.1061702,-0.3848476,1.610188,-0.03295754,-0.06026296,1.460411,0.3810904,-0.04515641,1.403426,NA,NA,Unknown,Unknown,
0.5527344,-0.828125,-0.06494141,0.440918,0.8354492,0.1577148,8,-5,-32,-8,-5,-4,-5,22,-1,0,-1,-2,-3,-2,0,-2,-3.375,-3.375,-3.375,-11.25,-11.25,-11.25,2.410018,4.035865,7.202246,7.257397,4.249516,3.275446,-0.009524891,-0.2654456,1.214231,0.2871858,-0.2323729,1.174963,0.2148843,0.4078171,1.67838,0.03774883,-0.2769692,1.219826,0.2360287,-0.2402477,1.192448,0.2000798,-0.06180694,1.666957,0.1932036,-0.3923446,1.640456,0.03098149,0.1332871,1.632475,0.1057021,-0.384906,1.609915,-0.03336902,-0.06114499,1.459729,0.3809903,-0.04732515,1.402955,NA,NA,Unknown,Unknown,
0.5834961,-0.8041992,-0.04736328,0.4755859,0.7241211,0.07861328,5,-1,8,2,3,5,15,0,-1,-2,0,1,-1,-2,1,0,-2.1875,-2.1875,-2.1875,-24,-24,-24,2.397653,4.02458,7.210967,7.22383,4.219806,3.26703,-0.01276571,-0.2695667,1.215373,0.2886434,-0.2382663,1.178176,0.214498,0.4080445,1.678198,0.03302483,-0.2794657,1.221284,0.2382879,-0.2438604,1.191126,0.1997167,-0.06176387,1.666621,0.1926315,-0.3923562,1.640163,0.03047227,0.1331931,1.631929,0.1050585,-0.3845982,1.60946,-0.03419104,-0.06141413,1.462429,0.3813657,-0.0505437,1.402115,NA,NA,Closed,Unknown,
