ALX,ALY,ALZ,ARX,ARY,ARZ,EMG0L,EMG1L,EMG2L,EMG3L,EMG4L,EMG5L,EMG6L,EMG7L,EMG0R,EMG1R,EMG2R,EMG3R,EMG4R,EMG5R,EMG6R,EMG7R,GLX,GLY,GLZ,GRX,GRY,GRZ,ORL,OPL,OYL,ORR,OPR,OYR,LHNX,LHNY,LHNZ,RHNX,RHNY,RHNZ,HX,HY,HZ,LTX,LTY,LTZ,RTX,RTY,RTZ,SpineMidX,SpineMidY,SpineMidZ,SpineBaseX,SpineBaseY,SpineBaseZ,ShoulderLeftX,ShoulderLeftY,ShoulderLeftZ,ShoulderRightX,ShoulderRightY,ShoulderRightZ,ElbowLeftX,ElbowLeftY,ElbowLeftZ,ElbowRightX,ElbowRightY,ElbowRightZ,Myo_Pose_left,Myo_Pose_Right,Kinect_pose_left,Kinect_pose_right
0.9233398,-0.3652344,0.1333008,-0.8876953,0.4370117,-0.07324219,-1,0,-2,-1,-1,-1,-1,-2,1,-2,-1,-3,-4,3,2,-14,0.875,0.875,0.875,5.1875,5.1875,5.1875,3.072454,3.11885,7.358572,7.683966,6.769612,4.460205,-0.005512998,-0.419228,1.595872,0.2833702,0.3458444,1.460664,0.2177611,0.3988864,1.6778,-0.05199512,-0.4219092,1.61152,0.2526592,0.3596471,1.526627,0.1969361,-0.05684439,1.699529,0.181688,-0.3804973,1.678363,0.04034553,0.1393257,1.687763,0.090999,-0.3684457,1.649114,-0.02020894,-0.1131641,1.69623,0.3984542,0.04356843,1.437388,NA,NA,NotTracked,Open,
0.9233398,-0.3564453,0.1333008,-0.8867188,0.4321289,-0.07324219,0,0,-1,-1,0,0,1,0,-1,-1,0,-4,-3,1,9,-7,1,1,1,3.3125,3.3125,3.3125,3.072366,3.119436,7.359251,7.7236,6.783001,4.497082,-0.005535379,-0.4225716,1.596293,0.2828701,0.3507863,1.46516,0.218008,0.3980041,1.675816,-0.05502994,-0.4369995,1.610072,0.2492513,0.3624644,1.533,0.196822,-0.05693451,1.699437,0.1815811,-0.3804281,1.678325,0.0413148,0.1397159,1.688597,0.09088879,-0.3682429,1.648977,-0.02021876,-0.1140519,1.696086,0.397937,0.04678176,1.436478,NA,NA,NotTracked,Open,
0.9238281,-0.3535156,0.1357422,-0.8671875,0.4291992,-0.08642578,-2,0,-2,-1,-1,-1,-1,0,3,-8,-8,-5,4,4,1,-3,-0.4375,-0.4375,-0.4375,4.6875,4.6875,4.6875,3.072011,3.121991,7.358387,7.775516,6.792266,4.539743,-0.005934503,-0.4253574,1.595371,0.2830805,0.348869,1.46749,0.2184839,0.3973735,1.674295,-0.05464134,-0.4366473,1.608316,0.2419194,0.3590599,1.534765,0.1968738,-0.0570133,1.699487,0.1814792,-0.3803634,1.678306,0.04096217,0.139752,1.688652,0.09083588,-0.36809,1.648936,-0.02022716,-0.1148195,1.696051,0.3970176,0.05070696,1.435975,NA,NA,NotTracked,Unknown,
0.921875,-0.3505859,0.1298828,-0.8925781,0.3818359,-0.06787109,-1,-2,-2,1,-2,-1,-2,0,2,-4,-4,-5,-3,14,18,3,-0.4375,-0.4375,-0.4375,1.4375,1.4375,1.4375,3.071628,3.121488,7.358764,7.778398,6.798407,4.545801,-0.005854039,-0.4220563,1.596687,0.2883183,0.3302141,1.469916,0.2186621,0.3969737,1.673467,-0.05432763,-0.4295,1.610975,0.2199224,0.31672,1.53386,0.1971258,-0.056979,1.699814,0.181372,-0.3801595,1.678369,0.04055506,0.1398962,1.689034,0.09078336,-0.3677469,1.648905,-0.02042142,-0.1155709,1.696192,0.3967264,0.0539903,1.435389,NA,NA,NotTracked,Open,
0.9160156,-0.3413086,0.1303711,-0.8881836,0.4272461,-0.0546875,0,-4,1,-3,-1,-1,-1,-1,8,32,11,2,2,10,21,-6,-1.625,-1.625,-1.625,-4.4375,-4.4375,-4.4375,3.070998,3.120632,7.358522,7.770216,6.8021,4.536884,-0.005748577,-0.4224352,1.597768,0.2881342,0.3315344,1.470586,0.218727,0.3966092,1.672948,-0.05223484,-0.4292756,1.605863,0.2195658,0.3191898,1.535153,0.1972088,-0.05701308,1.70008,0.1812201,-0.3800469,1.678512,0.04118022,0.1401006,1.689524,0.09065969,-0.3675386,1.649089,-0.02042351,-0.1163517,1.696471,0.3966354,0.05486961,1.435223,NA,NA,NotTracked,Open,
0.9301758,-0.3535156,0.1401367,-0.9599609,0.449707,-0.07324219,-1,-3,-2,-1,-1,-1,-1,-2,53,3,3,2,-4,16,21,17,-0.3125,-0.3125,-0.3125,0.375,0.375,0.375,3.068515,3.120392,7.361136,7.746729,6.793444,4.51353,-0.006186103,-0.4255563,1.597407,0.2879989,0.3336224,1.467106,0.219006,0.3961216,1.672038,-0.05504211,-0.4378472,1.609353,0.2724475,0.2993087,1.519333,0.1972926,-0.0570483,1.700256,0.1811437,-0.3800366,1.678547,0.04177142,0.140236,1.690054,0.09061527,-0.3674917,1.649071,-0.02074021,-0.1167953,1.696355,0.3963562,0.05516762,1.435167,NA,NA,NotTracked,Open,
0.921875,-0.3574219,0.1347656,-0.9165039,0.4111328,-0.07128906,-3,-1,-2,-2,-1,-1,0,-1,19,7,4,-2,7,-2,12,-6,1.25,1.25,1.25,-1.8125,-1.8125,-1.8125,3.069259,3.120892,7.36112,7.753359,6.792723,4.524338,-0.006128966,-0.4231543,1.598293,0.2894812,0.3237665,1.469648,0.2192334,0.395743,1.671548,-0.05384234,-0.4275956,1.610786,0.2322232,0.30922,1.5392,0.1974005,-0.05716474,1.700742,0.1810234,-0.3800225,1.678759,0.04107315,0.140091,1.690622,0.09052892,-0.3674385,1.649196,-0.02122081,-0.1116757,1.698214,0.3958074,0.05612421,1.434945,NA,NA,NotTracked,Open,
0.921875,-0.3588867,0.1313477,-0.9389648,0.4238281,-0.09179688,-2,-2,0,-2,0,-2,0,-3,17,-2,-12,-1,3,6,5,6,0.8125,0.8125,0.8125,1.4375,1.4375,1.4375,3.068643,3.123149,7.36349,7.802219,6.801684,4.572262,-0.005946596,-0.4226429,1.598544,0.2817535,0.3457777,1.472364,0.2194353,0.3952602,1.670889,-0.05402406,-0.4319103,1.60998,0.2412825,0.3550813,1.537489,0.197489,-0.05722926,1.701025,0.1809372,-0.3800152,1.678919,0.04042419,0.1399422,1.691022,0.09049679,-0.3674134,1.649307,-0.02155071,-0.1114785,1.69915,0.3948099,0.0571143,1.434561,NA,NA,NotTracked,Open,
0.9204102,-0.3549805,0.1425781,-0.8076172,0.4707031,-0.03320313,-2,-1,-2,-1,-1,-2,-1,-1,-23,-27,-31,-9,-7,8,5,-16,1,1,1,-3.625,-3.625,-3.625,3.069899,3.124521,7.365237,7.82012,6.796431,4.597851,-0.005740797,-0.4260758,1.599564,0.2819994,0.3464664,1.475964,0.219546,0.3950913,1.670552,-0.05378696,-0.4308859,1.609937,0.2450642,0.3447778,1.538722,0.1972381,-0.0576675,1.701084,0.1808007,-0.3800325,1.679131,0.04095189,0.1400973,1.691429,0.09041005,-0.3673948,1.649423,-0.0218257,-0.1088928,1.700378,0.3940203,0.05851281,1.433948,NA,NA,NotTracked,Open,
0.918457,-0.3579102,0.137207,-0.9077148,0.3706055,-0.1386719,-2,-1,-2,-2,0,-2,0,0,-8,5,1,0,-16,-25,6,14,3.5625,3.5625,3.5625,-6.875,-6.875,-6.875,3.07146,3.124979,7.368215,7.906443,6.798533,4.711674,-0.006473379,-0.4221126,1.599897,0.2780818,0.3466924,1.486482,0.219667,0.3947826,1.669982,-0.0538681,-0.4302074,1.610729,0.2428609,0.3452648,1.538886,0.1971814,-0.05785089,1.701264,0.1807192,-0.3800818,1.679314,0.04131847,0.1401457,1.691797,0.09037124,-0.3674145,1.64961,-0.02180688,-0.1119698,1.700182,0.3933822,0.05965137,1.433737,NA,NA,NotTracked,Unknown,
0.9125977,-0.3652344,0.1318359,-0.9892578,0.3881836,-0.2094727,0,0,-2,0,-1,-2,-1,0,15,1,1,1,13,-18,43,-6,-0.9375,-0.9375,-0.9375,15.4375,15.4375,15.4375,3.071315,3.124818,7.370474,7.957255,6.805756,4.742486,-0.006527751,-0.4256826,1.599676,0.277301,0.3481943,1.486274,0.2197736,0.3946271,1.669628,-0.055404,-0.442557,1.612471,0.2345622,0.3395391,1.541587,0.1971169,-0.05811251,1.701456,0.1807134,-0.3801199,1.679446,0.04165254,0.1401979,1.692055,0.09037616,-0.3674298,1.649717,-0.02163363,-0.1135651,1.70031,0.3930259,0.06046422,1.433808,NA,NA,NotTracked,Open,
0.9282227,-0.3657227,0.1367188,-0.8945313,0.4233398,-0.078125,-1,-1,-1,-1,0,-1,0,-1,12,-5,-3,4,21,5,3,9,-0.875,-0.875,-0.875,14.75,14.75,14.75,3.067034,3.12785,7.372434,7.849352,6.806859,4.592927,-0.005899189,-0.4254553,1.599656,0.2834249,0.3454513,1.474388,0.219813,0.3945684,1.669531,-0.05439717,-0.4354441,1.611876,0.2348798,0.3431125,1.54121,0.1972464,-0.05810094,1.701744,0.1806916,-0.3800931,1.679569,0.0420213,0.140302,1.6924,0.09036102,-0.367384,1.649844,-0.02161655,-0.1150717,1.70029,0.392689,0.061207,1.433682,NA,NA,NotTracked,Open,
0.9272461,-0.3574219,0.140625,-0.9233398,0.4199219,-0.04589844,-3,-1,0,-2,0,-2,-1,-1,28,1,2,0,-11,-5,-4,-9,0.625,0.625,0.625,5.25,5.25,5.25,3.067296,3.130893,7.373255,7.789467,6.811431,4.510937,-0.006459568,-0.4259882,1.598646,0.286079,0.353292,1.46674,0.2199413,0.3944304,1.669699,-0.05504365,-0.4455393,1.610643,0.2438443,0.3579729,1.541,0.1973694,-0.05799622,1.701963,0.1805796,-0.3799383,1.67966,0.0424498,0.1403998,1.692667,0.09028526,-0.367209,1.64988,-0.02168663,-0.1157352,1.700223,0.3923723,0.06281421,1.433281,NA,NA,NotTracked,Open,
0.9243164,-0.359375,0.1386719,-0.9106445,0.4169922,-0.0390625,-1,-2,-2,0,-1,0,-1,-1,14,20,21,7,26,4,6,2,-2.3125,-2.3125,-2.3125,4.125,4.125,4.125,3.067097,3.130451,7.372871,7.76393,6.818717,4.479679,-0.006023086,-0.42291,1.599463,0.294488,0.3306453,1.463915,0.2202415,0.3943455,1.66991,-0.05437703,-0.4356478,1.610672,0.2863579,0.2931313,1.5149,0.197399,-0.05800132,1.701964,0.1805607,-0.3798293,1.679699,0.04212143,0.1403161,1.692897,0.09026489,-0.3670981,1.649902,-0.02155964,-0.1129868,1.701436,0.3923236,0.06332871,1.433087,NA,NA,NotTracked,Open,
0.9189453,-0.3549805,0.1386719,-0.8222656,0.4208984,-0.01367188,0,-1,-2,0,-2,-1,0,0,10,-10,0,-8,-26,-4,-3,-4,0.4375,0.4375,0.4375,-11.6875,-11.6875,-11.6875,3.064999,3.12818,7.374344,7.786106,6.814649,4.517749,-0.006677369,-0.4214876,1.599838,0.2929786,0.332279,1.468524,0.2204981,0.3941732,1.669899,-0.05425964,-0.4300826,1.612453,0.2850912,0.2918901,1.51195,0.1974152,-0.05799603,1.701916,0.180536,-0.3797479,1.679835,0.04175602,0.1400846,1.692859,0.09025493,-0.3670437,1.64997,-0.02200399,-0.1113683,1.701416,0.3921056,0.06436121,1.432742,NA,NA,NotTracked,Open,
0.9179688,-0.362793,0.1318359,-0.9755859,0.3535156,-0.1713867,-1,-3,0,0,0,1,-1,-2,-20,-14,-10,-5,-24,-1,-54,-28,2.125,2.125,2.125,-20.5,-20.5,-20.5,3.06073,3.126583,7.379263,7.956703,6.833175,4.749379,-0.006525735,-0.4228562,1.599733,0.285857,0.3389968,1.483191,0.2207833,0.3941823,1.669639,-0.05497456,-0.4399311,1.610472,0.2328774,0.3212985,1.540667,0.1973971,-0.05805713,1.70206,0.1805086,-0.379752,1.679962,0.04210915,0.1401505,1.693005,0.09028544,-0.3670285,1.650107,-0.02195329,-0.1099956,1.701564,0.3893469,0.06129947,1.43335,NA,NA,NotTracked,Open,
0.9282227,-0.3608398,0.1337891,-0.8984375,0.3706055,-0.190918,-3,0,-1,-1,-2,-3,-2,-2,16,-2,0,-2,-7,0,13,-2,-1.4375,-1.4375,-1.4375,9.5,9.5,9.5,3.06097,3.122356,7.382595,8.011029,6.841539,4.806796,-0.006068781,-0.4224921,1.600274,0.2829642,0.3405117,1.489477,0.2211849,0.3938511,1.668749,-0.05437112,-0.4343194,1.610985,0.2286878,0.3233962,1.542051,0.1972921,-0.05820785,1.702038,0.1805524,-0.3798153,1.680108,0.04233368,0.14021,1.69311,0.090351,-0.3670839,1.650243,-0.02127282,-0.1092751,1.701932,0.3898094,0.06263858,1.433028,NA,NA,NotTracked,Open,
0.9199219,-0.3588867,0.1298828,-0.8046875,0.4165039,-0.06005859,-2,-2,0,0,-2,0,0,-1,-18,-2,2,1,6,-5,-38,-19,1.5625,1.5625,1.5625,2.3125,2.3125,2.3125,3.061119,3.124046,7.383615,7.931315,6.83539,4.707351,-0.006567447,-0.4257074,1.598974,0.2844619,0.3400883,1.481954,0.2213342,0.3937197,1.668509,-0.05399418,-0.4297522,1.610978,0.2296033,0.3243191,1.541885,0.197038,-0.0584434,1.702008,0.1805421,-0.3798284,1.680134,0.042515,0.1402694,1.693172,0.09034382,-0.3670893,1.650266,-0.02112694,-0.1118612,1.70158,0.3898676,0.06300605,1.432982,NA,NA,NotTracked,Open,
0.9140625,-0.3574219,0.1337891,-0.8920898,0.3828125,-0.09570313,-2,-2,-2,-1,-2,-1,-1,-2,0,3,0,0,0,31,6,-13,4.1875,4.1875,4.1875,5.375,5.375,5.375,3.062764,3.128717,7.387335,7.843946,6.836304,4.598812,-0.006481433,-0.4235913,1.598419,0.2859079,0.3422983,1.474383,0.2213665,0.3936922,1.668522,-0.054386,-0.4331682,1.610901,0.2209815,0.3250215,1.539048,0.1972025,-0.05833565,1.702205,0.1804989,-0.3797716,1.680235,0.04275142,0.1403781,1.693319,0.09031399,-0.3669713,1.650372,-0.02106607,-0.1098206,1.701764,0.3897801,0.06310798,1.433149,NA,NA,NotTracked,Open,
0.9204102,-0.362793,0.1342773,-0.7915039,0.3579102,-0.06005859,-3,-1,-3,0,0,0,-1,-2,21,-3,0,3,3,-3,-1,-2,-1.125,-1.125,-1.125,0.8125,0.8125,0.8125,3.064325,3.128819,7.388896,7.695392,6.814285,4.433735,-0.00633795,-0.4231996,1.60044,0.2937477,0.3254194,1.461377,0.2213518,0.3937905,1.669026,-0.05428538,-0.4315677,1.614016,0.2701496,0.32931,1.496733,0.1973173,-0.05836876,1.702248,0.1804486,-0.3797461,1.68029,0.04133582,0.1397811,1.69328,0.09028178,-0.3669474,1.65045,-0.02070803,-0.1130764,1.701539,0.3902777,0.06228189,1.433238,NA,NA,NotTracked,Open,
0.909668,-0.3608398,0.1328125,-0.6772461,0.4379883,0.03320313,-1,0,0,0,-2,-2,0,-1,9,-2,-6,0,-4,4,-5,-2,1.625,1.625,1.625,-12.125,-12.125,-12.125,3.065604,3.130166,7.389204,7.409552,6.678259,4.123024,-0.006659767,-0.422487,1.599463,0.2884834,0.3400617,1.42692,0.2208753,0.3936141,1.671088,-0.05371347,-0.4295928,1.612407,0.262031,0.3563459,1.47375,0.1973566,-0.05843065,1.702311,0.1804169,-0.3797656,1.68029,0.04159376,0.1397378,1.693385,0.09024762,-0.3669837,1.650436,-0.02051136,-0.1142387,1.701438,0.391392,0.05461594,1.435492,NA,NA,NotTracked,Open,
0.9125977,-0.3588867,0.1401367,-0.6176758,0.4711914,0.1879883,-2,-1,1,0,-1,1,-2,-1,5,-5,-6,-2,7,0,-5,-4,3.75,3.75,3.75,-19.5,-19.5,-19.5,3.068089,3.13396,7.391094,7.181909,6.485395,3.89122,-0.006120102,-0.4229627,1.598537,0.2928056,0.2957581,1.390985,0.2193041,0.3941436,1.67522,-0.05433038,-0.4349566,1.61201,0.2620286,0.3204546,1.414952,0.1975173,-0.05856773,1.702483,0.1804462,-0.3799751,1.680104,0.04278081,0.139969,1.69363,0.09024435,-0.3672488,1.650234,-0.02002844,-0.1161187,1.701395,0.3921985,0.03747146,1.441148,NA,NA,NotTracked,Open,
0.9418945,-0.3657227,0.1494141,-0.6054688,0.6542969,0.2211914,-1,-2,-2,0,-3,-2,-1,-1,28,4,4,3,9,-6,1,7,5.6875,5.6875,5.6875,-18.9375,-18.9375,-18.9375,3.079054,3.139093,7.389057,7.016371,6.221956,3.716739,-0.006156984,-0.4238199,1.598657,0.2958772,0.2342007,1.35466,0.2176075,0.3958148,1.679826,-0.05308922,-0.4224921,1.612694,0.2599316,0.2645421,1.379182,0.1974769,-0.05858979,1.702698,0.1803502,-0.3801177,1.680045,0.04297858,0.1399533,1.693735,0.09010044,-0.3675468,1.650209,-0.02002393,-0.1165466,1.70143,0.402758,-0.02925857,1.478817,NA,NA,NotTracked,Open,
0.925293,-0.3588867,0.1342773,-0.5673828,0.7910156,0.3671875,-1,-1,-3,-3,-1,-2,-1,-2,47,4,1,1,3,-5,3,6,5.5625,5.5625,5.5625,-28.9375,-28.9375,-28.9375,3.09101,3.141551,7.391637,6.865352,5.800948,3.560936,-0.005709318,-0.4233573,1.598902,0.3004415,0.1581148,1.31246,0.2171452,0.3977737,1.683138,-0.05334586,-0.4293751,1.612739,0.2644649,0.1960352,1.311133,0.196209,-0.05917673,1.703316,0.1802483,-0.3807829,1.680156,0.03124219,0.1372215,1.696464,0.09030264,-0.3689041,1.650355,-0.01991992,-0.1197424,1.70227,0.4027434,-0.06831022,1.511162,NA,NA,NotTracked,Unknown,
0.9140625,-0.3759766,0.1479492,-0.3623047,0.9746094,0.4541016,-2,-1,1,-1,-2,-1,-1,-1,7,1,0,3,15,-1,5,-6,1.6875,1.6875,1.6875,-19.0625,-19.0625,-19.0625,3.087465,3.138834,7.40063,6.803627,5.462356,3.486798,-0.005966363,-0.4268485,1.60045,0.309693,0.05851156,1.315168,0.2174224,0.3988425,1.685599,-0.05288375,-0.425683,1.613529,0.2742247,0.102867,1.284167,0.1944189,-0.06072985,1.704067,0.1801104,-0.382974,1.68041,0.02664247,0.1351709,1.697473,0.09129222,-0.3724788,1.650409,-0.02088909,-0.1237168,1.702566,0.397164,-0.06308577,1.521425,NA,NA,NotTracked,Unknown,
0.9008789,-0.3657227,0.1293945,-0.1455078,0.9858398,0.4975586,0,-1,0,0,1,-1,-1,0,-9,8,7,2,-3,1,-4,-2,-1.125,-1.125,-1.125,-10.1875,-10.1875,-10.1875,3.081795,3.132437,7.41007,6.766922,5.139399,3.442711,-0.007056306,-0.4276401,1.600894,0.315277,-0.02936317,1.287422,0.2171793,0.3994904,1.687113,-0.05481064,-0.4318091,1.6156,0.2805173,0.009709503,1.262625,0.1939448,-0.06066804,1.704209,0.1805264,-0.3827073,1.680454,0.02448816,0.1344652,1.697603,0.09221777,-0.3724242,1.650268,-0.02179805,-0.1261053,1.70231,0.382622,-0.09406956,1.550284,NA,NA,NotTracked,Unknown,
0.925293,-0.3735352,0.1508789,0.05957031,0.9550781,0.4599609,0,-2,1,0,-2,-2,-2,-2,30,-1,1,2,4,4,6,5,0.25,0.25,0.25,1.125,1.125,1.125,3.077359,3.129433,7.411152,6.762264,4.838558,3.412219,-0.007700245,-0.4274978,1.602173,0.3274098,-0.1194018,1.273909,0.2169391,0.40043,1.688808,-0.05623645,-0.4304372,1.621873,0.2911713,-0.08185599,1.254833,0.1936315,-0.06057522,1.704313,0.1808338,-0.3824913,1.680566,0.02324682,0.1342449,1.697589,0.09288195,-0.3722432,1.650097,-0.0225771,-0.1294405,1.702176,0.4086339,-0.08789599,1.606059,NA,NA,NotTracked,Unknown,
0.9101563,-0.3569336,0.1518555,0.2915039,0.8623047,0.4873047,1,-2,-1,0,-1,0,0,-2,-15,0,-1,0,8,2,2,2,-2.75,-2.75,-2.75,-7.875,-7.875,-7.875,3.076667,3.128345,7.402174,6.754058,4.479056,3.379494,-0.007835267,-0.4292001,1.599927,0.3425339,-0.190916,1.301724,0.2166034,0.4010989,1.689937,-0.05438297,-0.4311228,1.614106,0.2985323,-0.1617194,1.263412,0.1934063,-0.06048341,1.70428,0.1811838,-0.3822982,1.680568,0.02257859,0.1338928,1.697142,0.09358235,-0.3721783,1.649722,-0.02271194,-0.1294531,1.701921,0.4182236,-0.08683135,1.612163,NA,NA,NotTracked,Unknown,
0.921875,-0.3393555,0.1303711,0.5239258,0.9248047,0.4536133,-1,-1,-2,-2,-3,0,-1,-2,-18,4,2,1,-5,-7,4,0,-4.25,-4.25,-4.25,-14.5625,-14.5625,-14.5625,3.07783,3.127633,7.397016,6.755128,4.239559,3.354719,-0.007771635,-0.4290796,1.597438,0.3534378,-0.247582,1.335562,0.2164118,0.4013539,1.690375,-0.05477584,-0.4352628,1.612112,0.3122016,-0.2312977,1.289158,0.19332,-0.06039861,1.704159,0.1816741,-0.3820989,1.680544,0.02650421,0.1348771,1.695993,0.09441786,-0.3720842,1.649382,-0.02276717,-0.130769,1.700767,0.4119961,-0.09232373,1.624333,NA,NA,NotTracked,Unknown,
0.934082,-0.3359375,0.1259766,0.5761719,0.7744141,0.4584961,0,-1,-1,-1,-1,-1,0,0,28,3,0,0,-1,-4,-2,4,0.8125,0.8125,0.8125,0.6875,0.6875,0.6875,3.080227,3.125423,7.392441,6.741563,4.04151,3.342269,-0.007124659,-0.4295657,1.597636,0.3604766,-0.2975742,1.369036,0.2161818,0.4021058,1.691126,-0.05379946,-0.4322937,1.612448,0.3243216,-0.2833519,1.329382,0.1933675,-0.06031261,1.704,0.1823132,-0.3820646,1.680478,0.02475292,0.1339259,1.694943,0.09542146,-0.3722878,1.649165,-0.02275163,-0.1309152,1.700011,0.4031396,-0.09595011,1.6401,NA,NA,NotTracked,Unknown,
0.9106445,-0.3530273,0.1240234,0.6186523,0.7133789,0.3632813,-2,0,0,-3,-1,-1,-1,-1,2,-2,0,0,-2,-2,-2,3,-3.75,-3.75,-3.75,11.4375,11.4375,11.4375,3.074408,3.12024,7.392436,6.775579,3.801961,3.335841,-0.00713173,-0.4293191,1.597998,0.3651915,-0.3434245,1.398204,0.2158377,0.4029312,1.69196,-0.05473496,-0.436869,1.612866,0.3278722,-0.3366791,1.353325,0.1935422,-0.06018709,1.703775,0.1836059,-0.3820259,1.680568,0.02347299,0.1336198,1.694064,0.09704964,-0.3725771,1.649014,-0.02217051,-0.1333689,1.699056,0.3997633,-0.1024868,1.645626,NA,NA,NotTracked,Unknown,
0.9238281,-0.3413086,0.1362305,0.7768555,0.5996094,0.3056641,0,0,-1,-1,-1,0,-2,1,-4,1,-2,-1,-1,3,1,1,0.4375,0.4375,0.4375,22.8125,22.8125,22.8125,3.070603,3.111346,7.396694,6.801401,3.627237,3.33661,-0.006723832,-0.429476,1.599664,0.3714953,-0.3777127,1.43509,0.215535,0.4036072,1.692615,-0.0545648,-0.4326488,1.614202,0.3346487,-0.3733563,1.396025,0.1936567,-0.06006699,1.703641,0.1848581,-0.3820184,1.680868,0.02273417,0.1336773,1.69344,0.0985011,-0.3726389,1.648865,-0.02196727,-0.134036,1.698597,0.3980846,-0.1119969,1.649437,NA,NA,NotTracked,Unknown,
0.9272461,-0.3642578,0.1513672,0.8930664,0.4956055,0.2446289,-2,-1,-1,0,0,-1,-3,0,5,-3,-4,0,2,4,3,8,-2.1875,-2.1875,-2.1875,46.6875,46.6875,46.6875,3.072886,3.106196,7.390296,6.86467,3.39913,3.359669,-0.00692748,-0.4301066,1.600903,0.3760965,-0.4123058,1.468363,0.2148543,0.4049308,1.693882,-0.05481648,-0.4355339,1.614352,0.3352861,-0.4112734,1.433949,0.1938515,-0.05999272,1.703437,0.1858017,-0.3823721,1.68102,0.02193414,0.1334484,1.692673,0.0994046,-0.3729745,1.648801,-0.02210598,-0.1340212,1.698263,0.3977949,-0.122442,1.650859,NA,NA,NotTracked,Lasso,
0.9194336,-0.3417969,0.1328125,0.9487305,0.4199219,0.140625,-1,-1,-1,-1,-2,-2,0,-1,1,2,1,0,0,-6,-3,-1,2.8125,2.8125,2.8125,67.75,67.75,67.75,3.076985,3.106848,7.389185,6.926267,3.248049,3.403321,-0.006603623,-0.4290711,1.598691,0.3774216,-0.4388439,1.502726,0.2143527,0.4054681,1.694469,-0.05480652,-0.4383233,1.612267,0.3356755,-0.4462997,1.467556,0.1941304,-0.05990098,1.702941,0.1874553,-0.3829146,1.680784,0.02132509,0.1331321,1.69204,0.1011217,-0.373573,1.648431,-0.02206549,-0.1343541,1.697836,0.3978479,-0.1274827,1.652348,NA,NA,NotTracked,Unknown,
0.9296875,-0.3388672,0.1337891,0.9697266,0.4516602,0.09814453,-2,-2,-2,-1,-3,-2,-1,-1,-10,-1,2,1,-2,4,-8,-9,2.875,2.875,2.875,60.25,60.25,60.25,3.077153,3.107929,7.394282,6.974577,3.137299,3.479604,-0.0075085,-0.4262063,1.599399,0.3709423,-0.450644,1.543836,0.2136569,0.4060524,1.695044,-0.05309872,-0.4195793,1.612471,0.3327893,-0.4684893,1.502259,0.1945804,-0.05971998,1.70245,0.1887433,-0.3832543,1.680739,0.02099527,0.1329409,1.691633,0.1022922,-0.3739101,1.648365,-0.02215458,-0.1347412,1.697239,0.3975801,-0.1323749,1.655698,NA,NA,NotTracked,Unknown,
0.9282227,-0.3481445,0.121582,0.9418945,0.4541016,0.1513672,1,1,0,-1,0,0,-1,-1,1,2,1,3,5,-35,-13,-3,1.75,1.75,1.75,0.125,0.125,0.125,3.072492,3.104161,7.404221,6.924655,3.093186,3.572517,-0.007406645,-0.4264251,1.600596,0.3620515,-0.4481586,1.565567,0.2130221,0.4065748,1.695526,-0.05562355,-0.4344333,1.616693,0.3177727,-0.4553078,1.543605,0.1948829,-0.0594996,1.702117,0.1893271,-0.3832732,1.680847,0.02553801,0.1348325,1.691642,0.1028761,-0.3739196,1.648483,-0.0221528,-0.1350881,1.697072,0.3980288,-0.1328582,1.660698,NA,NA,NotTracked,NotTracked,
0.9199219,-0.3500977,0.1274414,0.8579102,0.309082,0.2470703,0,-3,0,-1,-1,-1,-1,0,4,-2,1,0,2,-7,-6,3,-2.75,-2.75,-2.75,-27.8125,-27.8125,-27.8125,3.066254,3.099463,7.409755,6.769846,3.102775,3.686472,-0.007212677,-0.4270812,1.601549,0.3572246,-0.4072377,1.583899,0.2124983,0.4072131,1.696217,-0.0548544,-0.4324083,1.616431,0.3120292,-0.3840973,1.552755,0.1950063,-0.05915974,1.701694,0.1893927,-0.3831395,1.680877,0.02367906,0.1346844,1.690745,0.1029161,-0.373888,1.648565,-0.02211375,-0.1354689,1.696991,0.3992861,-0.1309466,1.666528,NA,NA,NotTracked,NotTracked,
0.9213867,-0.3588867,0.1391602,0.8862305,0.5825195,0.04541016,0,-2,0,-1,0,0,-1,0,-12,-2,-2,-2,-5,-14,-2,-1,-2.375,-2.375,-2.375,-9,-9,-9,3.061326,3.096919,7.410924,6.837794,3.128796,3.622064,-0.007933709,-0.4268562,1.601015,0.3582805,-0.4082873,1.583291,0.2122186,0.40757,1.696702,-0.05468883,-0.4313077,1.613728,0.3123965,-0.3823257,1.553352,0.1949615,-0.05882115,1.701277,0.189377,-0.3829075,1.68088,0.02549416,0.1353123,1.690241,0.1028761,-0.3737288,1.648641,-0.02221278,-0.1358758,1.696604,0.3998638,-0.1295872,1.669959,NA,NA,NotTracked,NotTracked,
0.9228516,-0.3515625,0.1328125,0.9228516,0.1147461,0.1972656,-2,0,-1,-1,0,-2,-1,-2,13,-1,-1,0,-3,5,5,8,-5.9375,-5.9375,-5.9375,32.1875,32.1875,32.1875,3.05994,3.095254,7.406193,6.789658,3.116193,3.656282,-0.008463785,-0.4303923,1.600569,0.3579779,-0.4079579,1.58307,0.2119706,0.4078114,1.696863,-0.05560662,-0.4331808,1.61559,0.311,-0.402359,1.549643,0.1949079,-0.05860661,1.700984,0.1893129,-0.3827857,1.68092,0.02340726,0.1344986,1.688946,0.1027789,-0.3736495,1.648722,-0.0223404,-0.1358301,1.696359,0.4000047,-0.1289337,1.671134,NA,NA,NotTracked,NotTracked,
0.9248047,-0.3276367,0.1298828,0.9135742,0.340332,0.1357422,-2,-1,-1,-2,-2,1,-2,0,-1,1,-1,-1,0,-13,-3,-2,-1.1875,-1.1875,-1.1875,-15.4375,-15.4375,-15.4375,3.064025,3.101102,7.39124,6.823006,3.119198,3.672822,-0.008655467,-0.4292029,1.597485,0.3579038,-0.4071617,1.581235,0.2117482,0.4080248,1.697083,-0.05611117,-0.4314086,1.6162,0.311217,-0.4013168,1.548654,0.1948772,-0.05834703,1.70053,0.189276,-0.3826442,1.680838,0.02488462,0.134936,1.688447,0.1027161,-0.3735515,1.648706,-0.02242201,-0.1359623,1.696038,0.3999352,-0.1286908,1.67157,NA,NA,NotTracked,NotTracked,
0.9345703,-0.3310547,0.1333008,0.918457,0.2998047,0.1303711,-2,-2,-1,-1,-2,0,-1,-2,-5,-1,-3,-1,-6,-30,-9,-4,0.75,0.75,0.75,0.875,0.875,0.875,3.06546,3.105562,7.388242,6.806712,3.111937,3.671295,-0.008021068,-0.4291691,1.597574,0.3575989,-0.4075243,1.582448,0.2115739,0.4082308,1.697299,-0.05529284,-0.4300687,1.61535,0.3123804,-0.3833301,1.554891,0.1950591,-0.05814409,1.700186,0.1893584,-0.3824986,1.680777,0.02573211,0.1350895,1.688355,0.1028003,-0.3734249,1.648659,-0.02247011,-0.1360765,1.695601,0.3998528,-0.1282754,1.672345,NA,NA,NotTracked,NotTracked,
0.9311523,-0.3217773,0.1181641,0.9091797,0.3310547,0.1513672,-1,0,-1,0,-3,0,0,0,15,2,0,1,0,15,-2,1,0.875,0.875,0.875,0.375,0.375,0.375,3.068941,3.104775,7.387706,6.808108,3.108695,3.673366,-0.00795488,-0.4300214,1.595708,0.3575929,-0.4071166,1.580797,0.2114141,0.408294,1.697471,-0.05500881,-0.4324008,1.612177,0.3113092,-0.4021994,1.548087,0.1951277,-0.05801563,1.699911,0.1893603,-0.382374,1.680681,0.02568662,0.1349294,1.687935,0.1027859,-0.3733451,1.648631,-0.02234223,-0.1363292,1.694888,0.3998316,-0.1280064,1.672518,NA,NA,NotTracked,NotTracked,
0.9291992,-0.3554688,0.1289063,0.9145508,0.3134766,0.1665039,-1,0,0,-2,0,-1,-1,-1,6,0,-2,-1,-2,2,-1,2,1.125,1.125,1.125,0.5,0.5,0.5,3.068458,3.097851,7.389263,6.805259,3.108716,3.6779,-0.007983599,-0.4300966,1.59746,0.3579299,-0.4073488,1.581071,0.2112301,0.4084579,1.697671,-0.0554496,-0.4319077,1.614624,0.3127398,-0.3809651,1.553721,0.1950578,-0.05777829,1.699683,0.1891782,-0.3821822,1.680565,0.02327591,0.1342683,1.68719,0.1026131,-0.3732045,1.648629,-0.0222588,-0.1364563,1.694759,0.3998287,-0.1279915,1.67261,NA,NA,NotTracked,NotTracked,
0.9223633,-0.3535156,0.1308594,0.9189453,0.3061523,0.1489258,-1,1,-2,0,-2,-1,0,-1,0,0,-3,0,-1,-5,-2,0,1.875,1.875,1.875,2.625,2.625,2.625,3.06459,3.095616,7.396883,6.799199,3.104214,3.685738,-0.008133716,-0.4301113,1.598348,0.3578292,-0.4070837,1.581045,0.2111746,0.4084682,1.697656,-0.05604017,-0.4314212,1.61663,0.3113414,-0.3999828,1.549247,0.1949852,-0.05767391,1.699314,0.1890175,-0.3820426,1.680414,0.02860779,0.1359103,1.688322,0.1024533,-0.3730408,1.648509,-0.02234079,-0.1363823,1.694488,0.3997914,-0.1277088,1.672753,NA,NA,NotTracked,NotTracked,
0.9267578,-0.347168,0.1435547,0.9165039,0.3051758,0.1586914,1,-2,-2,-1,-1,-2,-2,0,1,-1,-2,-1,0,2,0,0,0.4375,0.4375,0.4375,-1,-1,-1,3.064103,3.096116,7.399934,6.798367,3.103049,3.686944,-0.008227177,-0.4294921,1.598884,0.3578876,-0.4074786,1.581825,0.2111008,0.4085225,1.69761,-0.05536981,-0.4336956,1.610353,0.3107353,-0.4006987,1.548664,0.1949535,-0.05757405,1.699014,0.1889115,-0.3819203,1.680262,0.03052039,0.1364933,1.68875,0.1023516,-0.3729076,1.648453,-0.02271994,-0.1365326,1.694018,0.399805,-0.1274,1.672888,NA,NA,NotTracked,NotTracked,
