ALX,ALY,ALZ,ARX,ARY,ARZ,EMG0L,EMG1L,EMG2L,EMG3L,EMG4L,EMG5L,EMG6L,EMG7L,EMG0R,EMG1R,EMG2R,EMG3R,EMG4R,EMG5R,EMG6R,EMG7R,GLX,GLY,GLZ,GRX,GRY,GRZ,ORL,OPL,OYL,ORR,OPR,OYR,LHNX,LHNY,LHNZ,RHNX,RHNY,RHNZ,HX,HY,HZ,LTX,LTY,LTZ,RTX,RTY,RTZ,SpineMidX,SpineMidY,SpineMidZ,SpineBaseX,SpineBaseY,SpineBaseZ,ShoulderLeftX,ShoulderLeftY,ShoulderLeftZ,ShoulderRightX,ShoulderRightY,ShoulderRightZ,ElbowLeftX,ElbowLeftY,ElbowLeftZ,ElbowRightX,ElbowRightY,ElbowRightZ,Myo_Pose_left,Myo_Pose_Right,Kinect_pose_left,Kinect_pose_right
0.9238281,-0.3461914,0.1289063,0.8950195,0.3393555,0.1767578,-1,-1,-2,0,0,0,-2,0,-2,0,-4,-1,-2,-15,-2,0,-1.1875,-1.1875,-1.1875,-1.375,-1.375,-1.375,3.053507,3.105664,7.504758,6.699681,3.136045,4.073143,0.01628605,-0.4093608,1.588102,0.3407,-0.4214715,1.556779,0.2281597,0.4086772,1.687516,-0.02741342,-0.4068553,1.601842,0.2939703,-0.4118819,1.534686,0.2100223,-0.05324703,1.695422,0.1990952,-0.376261,1.678711,0.0389011,0.1375011,1.679208,0.1110543,-0.3674093,1.648955,-0.0003703695,-0.1274068,1.684976,0.4079899,-0.1148025,1.661056,NA,NA,NotTracked,NotTracked,
0.9174805,-0.3500977,0.1308594,0.8974609,0.3354492,0.1899414,-2,-2,-1,-2,0,-1,-1,-2,2,-1,0,0,-1,-7,-2,3,-2,-2,-2,-0.0625,-0.0625,-0.0625,3.052252,3.103478,7.502252,6.699461,3.136358,4.07251,0.01585342,-0.4095316,1.589087,0.3407429,-0.4213127,1.557401,0.228192,0.4086547,1.687489,-0.02980725,-0.4116577,1.6135,0.2944865,-0.4082255,1.535871,0.2099751,-0.05325482,1.695321,0.1990692,-0.3762624,1.678612,0.03880122,0.1374954,1.679162,0.1110189,-0.3674211,1.648787,-0.0003713604,-0.1271542,1.684962,0.4079629,-0.1149471,1.661165,NA,NA,NotTracked,NotTracked,
0.9301758,-0.3486328,0.1323242,0.9033203,0.3310547,0.1767578,-2,-1,-1,-1,-1,0,0,1,19,2,-2,1,10,14,3,4,0.125,0.125,0.125,-0.375,-0.375,-0.375,3.052831,3.103855,7.501822,6.697971,3.136892,4.073028,0.01595393,-0.4089278,1.590096,0.3408667,-0.4213216,1.558199,0.2282636,0.40859,1.687624,-0.02864671,-0.4227222,1.61025,0.293388,-0.4179785,1.534696,0.2099426,-0.05329388,1.695251,0.1990413,-0.3762859,1.678562,0.03877958,0.1374916,1.679041,0.1109714,-0.3674274,1.648701,-0.0004551706,-0.1269286,1.685078,0.4078804,-0.1153537,1.661346,NA,NA,NotTracked,NotTracked,
0.9208984,-0.3486328,0.1362305,0.9091797,0.3339844,0.1777344,0,-1,-2,-2,-2,-2,-1,-1,-9,2,0,1,1,3,0,-1,0.875,0.875,0.875,-0.1875,-0.1875,-0.1875,3.053526,3.103879,7.501128,6.697118,3.136679,4.073231,0.01731399,-0.4160424,1.587316,0.3407487,-0.421338,1.557548,0.2283085,0.4086125,1.687603,-0.02722775,-0.4076568,1.600333,0.2929135,-0.4288595,1.533368,0.2099056,-0.05328044,1.695182,0.1990229,-0.3762497,1.678493,0.03874521,0.1374536,1.678871,0.1109235,-0.3673823,1.648603,-0.0004427656,-0.1269177,1.685105,0.4077804,-0.1154598,1.66142,NA,NA,NotTracked,NotTracked,
0.9301758,-0.3481445,0.1274414,0.8974609,0.3295898,0.1831055,-1,-1,-2,0,-1,-1,1,2,27,1,1,-1,-1,3,2,0,3.0625,3.0625,3.0625,1.6875,1.6875,1.6875,3.054323,3.104524,7.504764,6.695943,3.135394,4.075893,0.01625726,-0.4127646,1.587533,0.3409698,-0.4219988,1.557197,0.2283354,0.4086195,1.687571,-0.02923585,-0.4131216,1.608514,0.2947476,-0.4064309,1.536826,0.2098638,-0.05325034,1.695107,0.1990097,-0.3762724,1.67839,0.03872446,0.1374214,1.678775,0.1108996,-0.3674042,1.648488,-0.0004241033,-0.1269704,1.685037,0.4077244,-0.1159615,1.661497,NA,NA,NotTracked,NotTracked,
0.9331055,-0.3486328,0.1289063,0.902832,0.3305664,0.1879883,-1,-1,-1,-2,-1,-2,-1,-1,22,-1,-2,-1,-2,1,-2,2,1.75,1.75,1.75,-0.1875,-0.1875,-0.1875,3.060596,3.105186,7.504908,6.697164,3.136357,4.077877,0.01630236,-0.4095852,1.590397,0.3416367,-0.4218667,1.55962,0.2283472,0.4086836,1.68765,-0.02885872,-0.434297,1.601833,0.2947243,-0.4080688,1.537077,0.209801,-0.05327784,1.695047,0.1989711,-0.376287,1.678378,0.03868953,0.1373952,1.678795,0.1108403,-0.3674307,1.648367,-0.0004007647,-0.1269912,1.685088,0.4076977,-0.1162111,1.661623,NA,NA,NotTracked,NotTracked,
0.9238281,-0.3510742,0.1206055,0.9262695,0.3422852,0.1601563,-2,-1,-1,-2,-2,-1,0,0,8,-10,-7,-4,-1,-1,-3,1,0.125,0.125,0.125,-11.625,-11.625,-11.625,3.062238,3.105097,7.503261,6.699018,3.139797,4.066441,0.01618633,-0.4098111,1.589366,0.3413197,-0.4214505,1.557498,0.228332,0.4086251,1.687707,-0.02681104,-0.4021299,1.601182,0.294564,-0.4072582,1.536729,0.2097333,-0.05336306,1.695009,0.198914,-0.3763536,1.678341,0.03865792,0.1373251,1.678719,0.1107739,-0.3674944,1.648316,-0.0003243265,-0.1276992,1.68529,0.4076736,-0.1163638,1.661703,NA,NA,NotTracked,NotTracked,
0.9306641,-0.3608398,0.1333008,0.9750977,0.4042969,0.1469727,-1,0,-1,0,0,-1,-2,-1,0,7,10,-1,-1,-2,-1,0,0.3125,0.3125,0.3125,-101.3125,-101.3125,-101.3125,3.061982,3.105234,7.503525,6.628342,3.179431,4.019085,0.01629851,-0.4096674,1.590421,0.3409955,-0.4206716,1.555321,0.2283141,0.4086376,1.68775,-0.02787515,-0.4142381,1.603504,0.2944573,-0.4038588,1.537233,0.2096771,-0.05336896,1.695009,0.1988875,-0.3763757,1.67834,0.03862555,0.1371943,1.678643,0.1107395,-0.3675302,1.64833,-0.000391165,-0.1276209,1.685464,0.4076902,-0.1167736,1.662071,NA,NA,NotTracked,NotTracked,
0.9375,-0.3413086,0.1264648,1.020508,0.5854492,0.2875977,-1,-1,-2,-2,-2,-1,-2,-1,-23,6,0,1,1,0,2,0,-0.0625,-0.0625,-0.0625,-28.9375,-28.9375,-28.9375,3.066978,3.106586,7.502264,6.558731,3.301591,3.995234,0.01641646,-0.4136043,1.588927,0.3363015,-0.4109147,1.536719,0.2283123,0.4086539,1.687828,-0.02790203,-0.4142623,1.603874,0.2933806,-0.4077078,1.53635,0.2096298,-0.05337555,1.694982,0.1987861,-0.3763799,1.678307,0.03861301,0.1371798,1.678613,0.1105786,-0.3674808,1.64822,-0.0004625096,-0.1276968,1.68558,0.4093285,-0.1162518,1.664095,NA,NA,NotTracked,NotTracked,
0.9130859,-0.3637695,0.1274414,0.8564453,0.8759766,0.5693359,-1,0,-2,-2,-2,0,-1,-3,-7,-7,-4,-2,-4,-11,2,0,-1.9375,-1.9375,-1.9375,-40,-40,-40,3.065048,3.107621,7.50082,6.529788,3.552548,3.984129,0.01627201,-0.4121626,1.589131,0.3273622,-0.3695949,1.476059,0.2283025,0.4086488,1.687877,-0.0276727,-0.4084935,1.60161,0.3061002,-0.4059284,1.50575,0.2093945,-0.05339358,1.694934,0.1978576,-0.376352,1.67824,0.03842262,0.1370798,1.67869,0.1094594,-0.3671222,1.647973,-0.0005494127,-0.1278539,1.685532,0.4120813,-0.1120076,1.667869,NA,NA,NotTracked,Lasso,
0.9165039,-0.3769531,0.1679688,0.4960938,0.796875,0.6108398,-2,-2,-2,0,0,-1,-1,-1,1,14,5,9,3,4,2,8,-9.9375,-9.9375,-9.9375,10.3125,10.3125,10.3125,3.066803,3.106056,7.486364,6.526777,4.079939,3.916468,0.01629314,-0.4096331,1.590093,0.3105495,-0.2862609,1.406386,0.2283232,0.4086599,1.687862,-0.02778026,-0.4125924,1.603247,0.2980627,-0.3443679,1.356,0.2087321,-0.05354793,1.694878,0.1962365,-0.3765124,1.678184,0.0384176,0.1369497,1.67861,0.1078869,-0.3667928,1.647823,-0.0005928627,-0.1271544,1.685578,0.4146313,-0.1031345,1.668524,NA,NA,NotTracked,Unknown,
0.9536133,-0.347168,0.1362305,0.1835938,0.894043,0.5644531,0,-3,-2,-1,-2,-1,0,-2,-3,-11,-5,2,4,2,-4,-7,0.5625,0.5625,0.5625,21.125,21.125,21.125,3.073417,3.106561,7.476078,6.58853,4.713885,3.866086,0.01667556,-0.4094365,1.589183,0.2946013,-0.1787564,1.334168,0.2284058,0.4085796,1.687915,-0.02744891,-0.416035,1.603349,0.2987697,-0.2101544,1.297333,0.2085237,-0.0536796,1.694989,0.1958575,-0.376661,1.678265,0.0383016,0.1367367,1.678642,0.1076649,-0.366889,1.647833,-0.0005213008,-0.1269344,1.685654,0.415756,-0.09167215,1.655601,NA,NA,NotTracked,Unknown,
0.9399414,-0.3398438,0.112793,-0.07470703,1.019043,0.4985352,-1,0,-1,-1,-1,-1,-1,-2,30,5,6,1,7,9,4,22,-6.5,-6.5,-6.5,57,57,57,3.077744,3.108533,7.463721,6.676105,5.192412,3.857585,0.01737729,-0.4096589,1.589052,0.2766796,-0.04891266,1.28822,0.2285127,0.4085023,1.688102,-0.02752326,-0.4245133,1.608667,0.2605707,-0.007583582,1.317143,0.2085524,-0.05372703,1.695379,0.1963035,-0.3764103,1.678637,0.03826229,0.1365701,1.678768,0.1083165,-0.3668866,1.648464,-0.0006392007,-0.1266062,1.685701,0.4188147,-0.07869921,1.575686,NA,NA,NotTracked,Unknown,
0.9262695,-0.3325195,0.1118164,-0.3125,0.8876953,0.4628906,-1,-3,-1,-1,0,0,-2,-1,-26,-6,-10,-4,-3,2,2,6,-0.875,-0.875,-0.875,53.125,53.125,53.125,3.074539,3.112752,7.460537,6.771395,5.635046,3.88797,0.01897834,-0.4164619,1.586272,0.2834662,0.07413611,1.312687,0.2287594,0.4082979,1.688273,-0.02482962,-0.4118451,1.595572,0.2621852,0.1118202,1.327462,0.2085555,-0.05387113,1.695896,0.1969934,-0.3764352,1.67904,0.03826287,0.1365623,1.678862,0.1093031,-0.3672946,1.64901,-0.0006862268,-0.1258773,1.68561,0.3972825,-0.0580985,1.510123,NA,NA,NotTracked,Open,
0.9257813,-0.3393555,0.1430664,-0.3935547,0.8598633,0.4008789,-1,-2,-2,-1,-2,-1,-3,-1,-3,6,7,-1,0,-2,4,3,4.9375,4.9375,4.9375,74.25,74.25,74.25,3.072934,3.115752,7.471897,6.929624,6.005094,3.9633,0.01841595,-0.4133472,1.588586,0.282907,0.1863454,1.32735,0.2284185,0.4084113,1.68854,-0.02697061,-0.4173929,1.604223,0.2619637,0.2422292,1.3737,0.2086686,-0.05405295,1.697178,0.1969863,-0.3773708,1.679554,0.03844672,0.1365431,1.679733,0.1089714,-0.3684597,1.650735,-0.000976287,-0.1230518,1.686547,0.4018557,-0.04652764,1.497065,NA,NA,NotTracked,Unknown,
0.9121094,-0.355957,0.1425781,-0.5537109,0.5996094,0.2680664,0,-1,1,-1,0,-3,-1,0,-13,3,5,2,0,-9,1,-1,6.5625,6.5625,6.5625,65.0625,65.0625,65.0625,3.075014,3.116414,7.481352,7.194231,6.392082,4.153993,0.01713007,-0.4134733,1.589989,0.2904334,0.2567006,1.361653,0.2277565,0.4079976,1.688527,-0.0269397,-0.4169281,1.603236,0.2662777,0.2961486,1.385821,0.2087398,-0.05411278,1.698352,0.1968589,-0.3773563,1.67969,0.04118773,0.1366141,1.680458,0.1083682,-0.3681272,1.651215,-0.0009914262,-0.1199424,1.687879,0.4023792,0.00410533,1.446044,NA,NA,NotTracked,Unknown,
0.9106445,-0.3740234,0.1386719,-0.6293945,0.5458984,0.1499023,-1,-1,-4,0,-3,-1,0,-1,21,0,-6,-1,4,9,3,11,8.375,8.375,8.375,56.625,56.625,56.625,3.077247,3.120053,7.492471,7.460389,6.588329,4.362545,0.01679959,-0.413171,1.591292,0.2938712,0.3089652,1.39273,0.2276076,0.4069467,1.688229,-0.02690427,-0.417455,1.602592,0.2669416,0.3417731,1.421412,0.208849,-0.05389111,1.699068,0.1968589,-0.37662,1.67973,0.04611323,0.1387782,1.684697,0.1080054,-0.366884,1.651424,-0.001152445,-0.118271,1.689415,0.4037852,0.02693302,1.432791,NA,NA,NotTracked,Unknown,
0.9223633,-0.371582,0.1386719,-0.7563477,0.3369141,-0.009277344,-1,1,-3,0,-1,-2,-1,-1,-3,2,3,-2,-2,1,5,3,6.4375,6.4375,6.4375,34.375,34.375,34.375,3.08073,3.123591,7.502359,7.812774,6.749321,4.680054,0.01670227,-0.416294,1.591397,0.2932652,0.3475817,1.414393,0.2273549,0.4059194,1.687949,-0.02726835,-0.4169097,1.603873,0.264121,0.3618532,1.454867,0.2088577,-0.05315096,1.699582,0.196555,-0.3746125,1.679813,0.0480375,0.1398707,1.68638,0.1075728,-0.3643362,1.651804,-0.001920777,-0.1124788,1.692605,0.4082518,0.05320564,1.420708,NA,NA,NotTracked,Unknown,
0.9130859,-0.3730469,0.1396484,-0.7700195,0.3588867,-0.1079102,-2,-2,-1,-1,-1,0,-2,1,-31,-5,-5,-2,-3,-13,13,3,0.3125,0.3125,0.3125,28.625,28.625,28.625,3.081935,3.126131,7.507806,8.050261,6.810961,4.886587,0.01619216,-0.4164264,1.5913,0.2919049,0.3660542,1.432533,0.227445,0.4051352,1.686372,-0.02776476,-0.4363029,1.601417,0.2637965,0.3717419,1.4932,0.2088422,-0.05274984,1.69984,0.1962932,-0.373664,1.679652,0.04918028,0.1404757,1.687193,0.1071585,-0.3633025,1.651599,-0.002620796,-0.1058451,1.693882,0.4115753,0.07051819,1.415497,NA,NA,NotTracked,Open,
0.9179688,-0.3710938,0.1420898,-0.8227539,0.3208008,-0.1298828,-1,0,0,0,-2,0,-3,-1,0,-5,-2,-2,-4,9,1,9,-5.375,-5.375,-5.375,2.5625,2.5625,2.5625,3.081671,3.127527,7.502999,8.180904,6.835204,5.015275,0.01583975,-0.4162166,1.590262,0.2915883,0.3725146,1.441122,0.2277687,0.4042819,1.684618,-0.02880652,-0.426494,1.606727,0.2777224,0.3433906,1.484318,0.2089135,-0.05211063,1.699587,0.196361,-0.3728729,1.679296,0.04961235,0.1407025,1.687304,0.1070676,-0.3626285,1.651287,-0.002724428,-0.1042474,1.694656,0.4020347,0.1215245,1.403758,NA,NA,NotTracked,Open,
0.9189453,-0.3540039,0.1459961,-0.8291016,0.387207,-0.1591797,-2,-2,0,-2,-1,-2,-2,-2,32,16,5,-2,-2,12,10,7,-2.5625,-2.5625,-2.5625,2.5625,2.5625,2.5625,3.087471,3.130554,7.491884,8.247511,6.841335,5.07923,0.01639064,-0.4158172,1.590551,0.2896237,0.3823919,1.445184,0.2279255,0.4037834,1.683969,-0.02837769,-0.4258454,1.605897,0.2663043,0.3724591,1.505167,0.2091438,-0.05048874,1.698954,0.1963916,-0.372038,1.679071,0.05026232,0.1411917,1.687943,0.1069526,-0.3617838,1.650977,-0.002962771,-0.1040405,1.694492,0.4006778,0.1288071,1.403554,NA,NA,NotTracked,Open,
0.918457,-0.3608398,0.1425781,-0.8061523,0.3774414,-0.04296875,0,0,-3,0,-2,-1,-1,0,29,0,-1,0,3,6,14,-3,-3.8125,-3.8125,-3.8125,-14.9375,-14.9375,-14.9375,3.088352,3.131326,7.483345,8.276783,6.834373,5.135142,0.01643182,-0.4163376,1.589828,0.2902497,0.3781339,1.452553,0.2283331,0.4029649,1.682703,-0.03101794,-0.4152707,1.61925,0.270211,0.3609924,1.506473,0.2091219,-0.05035678,1.699226,0.1962813,-0.3715982,1.679016,0.05055271,0.1414449,1.688281,0.1067481,-0.361254,1.650789,-0.002947892,-0.1021742,1.694832,0.3997359,0.132511,1.403546,NA,NA,NotTracked,Open,
0.9272461,-0.3569336,0.1499023,-0.9086914,0.2963867,-0.2910156,-1,-1,-1,-1,-2,0,-1,0,-2,-1,-2,-9,-15,-41,-2,0,-2.375,-2.375,-2.375,-8.4375,-8.4375,-8.4375,3.090757,3.129042,7.476716,8.49883,6.839342,5.392334,0.01650256,-0.416211,1.590456,0.2797352,0.3927042,1.473873,0.2289061,0.4024866,1.681195,-0.02827998,-0.4229976,1.606532,0.2546349,0.3808502,1.514333,0.2090916,-0.05030169,1.699332,0.1963406,-0.3712336,1.678927,0.05071403,0.1416549,1.688532,0.1067048,-0.360959,1.65071,-0.003259541,-0.09897105,1.695169,0.3979128,0.1371827,1.403524,NA,NA,NotTracked,Open,
0.9223633,-0.3564453,0.1362305,-0.972168,0.1601563,-0.390625,-3,-1,1,-2,-1,0,-1,-1,10,2,0,2,3,-6,-2,1,0.6875,0.6875,0.6875,15.625,15.625,15.625,3.089744,3.125163,7.477181,8.691143,6.833407,5.585942,0.01719026,-0.4184353,1.589335,0.2529799,0.4279463,1.51927,0.22923,0.4018078,1.67765,-0.02664728,-0.4297465,1.597158,0.213608,0.4102795,1.545838,0.2089597,-0.05024353,1.69929,0.1961992,-0.3710678,1.678868,0.05070239,0.1417636,1.688638,0.106421,-0.3607806,1.650585,-0.003015339,-0.09762359,1.695145,0.3970324,0.1398714,1.403495,NA,NA,NotTracked,Unknown,
0.9282227,-0.3535156,0.1264648,-0.8774414,0.2939453,-0.2290039,1,1,-1,-2,-1,-2,-2,-2,-23,-3,0,-2,1,-2,-1,-4,-1.4375,-1.4375,-1.4375,-3.375,-3.375,-3.375,3.088344,3.12515,7.477724,8.528193,6.833032,5.39212,0.01596441,-0.4164276,1.590684,0.254982,0.4279651,1.509314,0.2293109,0.4016603,1.6768,-0.02844799,-0.4223981,1.604503,0.2175905,0.4143752,1.546595,0.2088954,-0.05022587,1.699396,0.1961151,-0.3709016,1.678814,0.0506773,0.1418578,1.688814,0.1062552,-0.3606142,1.650468,-0.002936431,-0.1006214,1.69486,0.3970322,0.1411504,1.403726,NA,NA,NotTracked,Open,
0.9213867,-0.3540039,0.1416016,-0.8833008,0.3696289,-0.1469727,0,0,1,0,0,1,1,-2,0,5,5,-1,1,-14,3,10,1.9375,1.9375,1.9375,15.625,15.625,15.625,3.084034,3.128278,7.482282,8.369837,6.830132,5.201402,0.01551871,-0.4154968,1.589339,0.2635933,0.4302627,1.480114,0.2290987,0.4012486,1.677112,-0.0312287,-0.4362888,1.612,0.2325771,0.430766,1.537839,0.2088903,-0.04958354,1.698691,0.1960617,-0.370594,1.678618,0.05080687,0.1421018,1.688957,0.106201,-0.3603845,1.650286,-0.003249163,-0.101652,1.694121,0.3972257,0.1421227,1.403823,NA,NA,NotTracked,Open,
0.9169922,-0.3691406,0.1469727,-0.8579102,0.3837891,-0.112793,0,-2,-1,-2,0,-1,-1,0,2,-11,-7,-3,-7,-9,-4,-2,0,0,0,-1.875,-1.875,-1.875,3.083444,3.128975,7.483607,8.277019,6.83048,5.097495,0.01573071,-0.4162169,1.590246,0.2731775,0.4103405,1.46516,0.2289924,0.4010912,1.67752,-0.02991948,-0.421101,1.607409,0.2441885,0.3992701,1.545482,0.2089965,-0.04898185,1.698686,0.1959653,-0.3701265,1.678646,0.05105871,0.1423513,1.689278,0.1061097,-0.3600024,1.6503,-0.003467127,-0.1015321,1.694637,0.3976684,0.142605,1.40408,NA,NA,NotTracked,Open,
0.9145508,-0.3696289,0.1401367,-0.8417969,0.4116211,-0.1049805,0,-1,0,0,-2,0,-1,0,0,-7,4,-1,-3,-26,0,-8,1.75,1.75,1.75,-5.9375,-5.9375,-5.9375,3.083608,3.130011,7.486769,8.291491,6.83409,5.125443,0.0159021,-0.4159169,1.590705,0.2879066,0.3827206,1.45418,0.2288625,0.4010842,1.677874,-0.03083251,-0.4271225,1.612127,0.2663191,0.3747796,1.5285,0.2089951,-0.04869037,1.698591,0.1959261,-0.3697886,1.678531,0.05123425,0.1424983,1.689386,0.1060784,-0.3596123,1.650232,-0.003920869,-0.09876548,1.694934,0.3978365,0.1430988,1.404119,NA,NA,NotTracked,Open,
0.921875,-0.3686523,0.1401367,-0.9038086,0.3256836,-0.2626953,-2,0,1,-1,1,-4,-1,-3,-24,-5,1,3,14,-3,4,4,0.8125,0.8125,0.8125,-10,-10,-10,3.08347,3.130472,7.486771,8.521077,6.834221,5.410118,0.01495917,-0.4127289,1.591284,0.2877607,0.3721502,1.470175,0.2289961,0.4009686,1.677747,-0.03047718,-0.4236269,1.610408,0.2710899,0.3465643,1.5296,0.2088941,-0.04876199,1.698817,0.19581,-0.3696592,1.678474,0.05124949,0.142622,1.689482,0.1059198,-0.3594791,1.65018,-0.003817953,-0.0982419,1.695137,0.3978082,0.1432688,1.404161,NA,NA,NotTracked,Unknown,
0.9135742,-0.3652344,0.1396484,-1.007813,0.1918945,-0.5214844,-1,0,-3,-1,-2,-2,-2,0,-6,-9,-2,-1,-10,22,3,-4,0.5,0.5,0.5,-5.625,-5.625,-5.625,3.084608,3.128865,7.487134,8.730277,6.833257,5.650419,0.01479272,-0.413136,1.590702,0.2503696,0.4304796,1.527128,0.2289769,0.4011311,1.67704,-0.03043682,-0.4247289,1.608475,0.2077567,0.4148875,1.548388,0.2086476,-0.04892488,1.699057,0.1955983,-0.3697003,1.678369,0.05123375,0.1426195,1.689479,0.1056884,-0.359507,1.650024,-0.002869598,-0.1023364,1.694769,0.3978686,0.1432169,1.404143,NA,NA,NotTracked,Unknown,
0.9223633,-0.3686523,0.1411133,-0.8676758,0.3432617,-0.2973633,-1,-1,-1,-2,-1,1,2,-1,1,-3,-2,-1,1,-1,-5,2,-5.625,-5.625,-5.625,4.6875,4.6875,4.6875,3.08117,3.126742,7.486234,8.624302,6.857819,5.495011,0.01469176,-0.4132251,1.5895,0.2737707,0.3880281,1.493751,0.2291803,0.401212,1.676202,-0.03037718,-0.421403,1.607185,0.2332814,0.3584423,1.544348,0.2085368,-0.04900912,1.69907,0.1954075,-0.3696506,1.678067,0.05118807,0.1426263,1.689498,0.1054797,-0.3594919,1.649751,-0.002927574,-0.1008931,1.694665,0.3981184,0.1431483,1.404096,NA,NA,NotTracked,Open,
0.9169922,-0.3554688,0.1459961,-0.8232422,0.2592773,-0.1606445,-2,0,1,-2,-1,-1,-2,-1,-6,-3,1,1,4,-1,-8,4,-3.9375,-3.9375,-3.9375,5.625,5.625,5.625,3.077483,3.12939,7.483043,8.383497,6.850506,5.225171,0.01458812,-0.4131115,1.589404,0.2782728,0.4063309,1.460847,0.2293168,0.4011654,1.676216,-0.03042373,-0.4236109,1.608106,0.2581803,0.4157002,1.524483,0.2085006,-0.0490339,1.699098,0.1953174,-0.3696278,1.677922,0.05121817,0.1426364,1.689487,0.1053655,-0.359483,1.649584,-0.003175021,-0.1001549,1.694602,0.3986447,0.142849,1.404013,NA,NA,NotTracked,Open,
0.9140625,-0.347168,0.1401367,-0.7338867,0.3540039,-0.07568359,-2,-1,-1,1,0,-2,-1,0,-3,-5,-2,0,-1,3,-10,-11,-0.6875,-0.6875,-0.6875,-4.4375,-4.4375,-4.4375,3.076494,3.131003,7.481385,8.011086,6.773108,4.810343,0.01532793,-0.416429,1.586339,0.287207,0.3761107,1.429592,0.229037,0.4013118,1.676633,-0.03029414,-0.4239106,1.607337,0.256126,0.3989407,1.46715,0.2090735,-0.0482563,1.698018,0.1954956,-0.3690573,1.677313,0.05139828,0.142728,1.687991,0.1055713,-0.35894,1.649139,-0.003337469,-0.1042808,1.692233,0.3995605,0.1375598,1.399967,NA,NA,NotTracked,Open,
0.9301758,-0.3427734,0.1333008,-0.6386719,0.4003906,-0.03173828,-1,-3,0,-1,-2,0,-2,1,5,4,1,-1,-5,5,5,4,-0.25,-0.25,-0.25,-14.3125,-14.3125,-14.3125,3.075926,3.13109,7.481522,7.705124,6.648734,4.481262,0.0149726,-0.4155838,1.587122,0.2856764,0.3619229,1.392782,0.2283438,0.4018308,1.679127,-0.03072904,-0.4220536,1.606179,0.2638204,0.3952747,1.431706,0.2093236,-0.04777199,1.697479,0.1955055,-0.3690324,1.677198,0.05143247,0.1428244,1.687285,0.1056029,-0.3589018,1.648991,-0.003525628,-0.106506,1.691817,0.4014422,0.1247091,1.401402,NA,NA,NotTracked,Open,
0.8984375,-0.3427734,0.1357422,-0.6196289,0.5258789,0.05517578,0,-1,1,-2,-2,-2,-1,-2,-8,-2,1,1,-7,-5,-3,2,8.125,8.125,8.125,-34.4375,-34.4375,-34.4375,3.081858,3.131953,7.486017,7.407702,6.436476,4.177339,0.01506153,-0.415868,1.587066,0.2871632,0.3236981,1.337163,0.2274765,0.4022505,1.683279,-0.0304061,-0.4239987,1.607587,0.2564618,0.3468383,1.370188,0.2091818,-0.04792811,1.697513,0.1952962,-0.3693096,1.676917,0.05151964,0.1429237,1.687619,0.1053997,-0.3591832,1.64863,-0.003433615,-0.110032,1.69133,0.4263771,0.02890782,1.437303,NA,NA,NotTracked,Unknown,
0.9326172,-0.362793,0.1430664,-0.4633789,0.7294922,0.1411133,-1,-1,-2,-1,-1,-1,-1,-1,9,9,5,-1,-2,-2,4,1,9.8125,9.8125,9.8125,-35.1875,-35.1875,-35.1875,3.091991,3.134193,7.494199,7.127502,6.031487,3.876323,0.01487702,-0.4132317,1.588466,0.2946377,0.2507659,1.280958,0.2252856,0.4038564,1.688043,-0.03025333,-0.4276178,1.60718,0.2628485,0.2870163,1.296455,0.2085922,-0.04890322,1.697956,0.1948113,-0.3701075,1.676442,0.05142741,0.1427968,1.687861,0.1048918,-0.3601003,1.64825,-0.003046144,-0.1095993,1.692091,0.4211384,0.02396971,1.438025,NA,NA,NotTracked,Open,
0.9047852,-0.3642578,0.1254883,-0.2744141,0.8198242,0.3652344,1,-2,0,0,-1,-1,-1,-3,-14,1,14,4,6,-8,-7,-20,11,11,11,-33.75,-33.75,-33.75,3.101228,3.135247,7.503695,6.996331,5.671914,3.741854,0.01433143,-0.4130169,1.590417,0.3069966,0.1519304,1.238987,0.2240133,0.4057595,1.692668,-0.03129389,-0.4168008,1.615,0.2778546,0.1899132,1.239773,0.2074524,-0.04985202,1.69823,0.194498,-0.3710046,1.676453,0.0443715,0.1405074,1.68887,0.1048841,-0.3613869,1.648285,-0.003058545,-0.1131016,1.692679,0.4176511,-0.001736949,1.454451,NA,NA,NotTracked,Unknown,
0.9204102,-0.3950195,0.1533203,0.015625,1.04834,0.4462891,1,-2,1,-1,-1,-1,0,0,2,3,1,0,4,-1,3,8,4.3125,4.3125,4.3125,-3,-3,-3,3.097134,3.139032,7.514789,6.948921,5.14912,3.659618,0.0139493,-0.4101793,1.590481,0.3177106,0.03579772,1.221439,0.2228871,0.4071269,1.695688,-0.03068919,-0.4253051,1.609432,0.2918124,0.07233551,1.219667,0.2064336,-0.05095127,1.697899,0.1942226,-0.3731523,1.675894,0.03854694,0.13883,1.689757,0.1054284,-0.3642659,1.647671,-0.004080113,-0.1166726,1.693281,0.4202321,-0.03788282,1.454316,NA,NA,NotTracked,Unknown,
0.9326172,-0.3774414,0.1743164,0.1826172,1.038574,0.5424805,0,0,-1,-3,-1,-1,-2,-1,9,5,0,0,-2,-2,1,5,6,6,6,-17.875,-17.875,-17.875,3.105295,3.144047,7.518684,6.920802,4.761856,3.637189,0.01342542,-0.4101098,1.589855,0.3287171,-0.08531956,1.208544,0.2212112,0.4085865,1.698938,-0.03087312,-0.4252496,1.609324,0.2958146,-0.04600981,1.2028,0.2059088,-0.05137413,1.697538,0.1941718,-0.3737704,1.675672,0.03618412,0.1380238,1.68989,0.1056898,-0.3651906,1.647288,-0.003990781,-0.1226014,1.693529,0.4427729,-0.1037084,1.465842,NA,NA,NotTracked,Unknown,
0.9282227,-0.3569336,0.1445313,0.3691406,1.02832,0.4462891,0,-2,-5,-1,1,-1,0,0,-4,-4,-7,-1,-3,-11,-6,4,6.9375,6.9375,6.9375,13,13,13,3.117446,3.144421,7.523436,6.924722,4.393114,3.629207,0.01285613,-0.4099028,1.590814,0.346238,-0.1898585,1.261686,0.2202519,0.4090506,1.70056,-0.03129622,-0.4271858,1.609929,0.3131362,-0.1591848,1.236,0.2055023,-0.05172797,1.69702,0.1940995,-0.3741994,1.675408,0.03537073,0.1377225,1.689778,0.1057697,-0.365694,1.64693,-0.00398683,-0.1241846,1.693608,0.4463468,-0.07021202,1.577342,NA,NA,NotTracked,Unknown,
0.9165039,-0.3955078,0.1489258,0.6826172,0.8286133,0.3867188,-1,-2,0,0,-1,0,-3,-2,1,4,1,3,0,-7,-6,1,-4.3125,-4.3125,-4.3125,-10,-10,-10,3.112405,3.130955,7.528195,6.927186,3.965373,3.618143,0.0125169,-0.4099381,1.591798,0.3568792,-0.2781057,1.315522,0.2197195,0.4094991,1.70122,-0.03090589,-0.4252699,1.609202,0.3222957,-0.2577437,1.281583,0.2053595,-0.05186491,1.696469,0.1943303,-0.3745501,1.675189,0.03480583,0.1376024,1.689094,0.1063901,-0.3662143,1.646351,-0.003979745,-0.1252487,1.693593,0.4443507,-0.0855452,1.58348,NA,NA,NotTracked,Unknown,
0.9091797,-0.3691406,0.1660156,0.7231445,0.8554688,0.2924805,-1,0,1,-1,-1,-2,1,0,2,1,1,0,0,7,7,4,-8.1875,-8.1875,-8.1875,1.25,1.25,1.25,3.108871,3.123279,7.519853,6.948368,3.699602,3.594107,0.01242312,-0.4063611,1.593773,0.3658435,-0.3497567,1.36777,0.2195849,0.4098854,1.701699,-0.0315799,-0.4229418,1.61267,0.3297566,-0.336974,1.328578,0.2054236,-0.0520341,1.695904,0.1946912,-0.3750643,1.675124,0.03383235,0.1373774,1.687867,0.1070153,-0.3667449,1.645988,-0.003886722,-0.1258603,1.693351,0.4275344,-0.08652512,1.609796,NA,NA,NotTracked,Unknown,
0.9199219,-0.340332,0.1689453,0.8867188,0.5839844,0.2026367,-2,-1,0,-1,-3,-1,-2,-1,-6,-2,-2,-2,-2,1,-4,-1,-8.5625,-8.5625,-8.5625,-11.5,-11.5,-11.5,3.113117,3.121803,7.501276,6.960643,3.489523,3.539356,0.01363812,-0.4098852,1.590316,0.378405,-0.3913451,1.422439,0.2196027,0.4099872,1.701696,-0.03059305,-0.4309332,1.605865,0.3419394,-0.3853335,1.383229,0.205878,-0.05240808,1.695044,0.1961571,-0.3761211,1.674999,0.03337833,0.1373872,1.686877,0.1088025,-0.3675445,1.645392,-0.003912122,-0.1265026,1.692539,0.4181866,-0.1050457,1.621462,NA,NA,NotTracked,Lasso,
0.9121094,-0.3203125,0.1289063,0.9506836,0.4833984,0.02929688,-1,-1,-2,-1,-1,0,-1,0,-11,1,2,1,-2,-1,5,3,-4.6875,-4.6875,-4.6875,23.875,23.875,23.875,3.123224,3.114611,7.480769,7.052612,3.272063,3.482277,0.0153118,-0.4169199,1.587521,0.3852514,-0.4313444,1.461816,0.2197764,0.4102315,1.701262,-0.02851178,-0.4246704,1.603287,0.3477273,-0.4301898,1.421958,0.2064172,-0.05279932,1.694098,0.1980217,-0.3772486,1.674715,0.03321595,0.1371264,1.684803,0.1109445,-0.3684821,1.644581,-0.003592165,-0.1267374,1.691524,0.4127076,-0.1157149,1.629216,NA,NA,NotTracked,Unknown,
0.9467773,-0.3457031,0.121582,0.980957,0.4912109,0.1503906,0,0,-1,0,-2,0,-2,0,-15,-3,-2,-2,-7,-1,-4,-7,-2.5625,-2.5625,-2.5625,20.9375,20.9375,20.9375,3.118166,3.108969,7.476347,7.049481,3.173353,3.52863,0.01522063,-0.41746,1.588446,0.3902864,-0.4415335,1.504765,0.2200517,0.4106109,1.700384,-0.02920854,-0.4180827,1.607691,0.3519105,-0.4501307,1.4623,0.2068466,-0.05305017,1.693549,0.1993894,-0.3780147,1.674592,0.03319025,0.1369033,1.682944,0.1124699,-0.3691768,1.644256,-0.002922418,-0.1281983,1.689965,0.410646,-0.1247895,1.638586,NA,NA,NotTracked,Lasso,
