ALX,ALY,ALZ,ARX,ARY,ARZ,EMG0L,EMG1L,EMG2L,EMG3L,EMG4L,EMG5L,EMG6L,EMG7L,EMG0R,EMG1R,EMG2R,EMG3R,EMG4R,EMG5R,EMG6R,EMG7R,GLX,GLY,GLZ,GRX,GRY,GRZ,ORL,OPL,OYL,ORR,OPR,OYR,LHNX,LHNY,LHNZ,RHNX,RHNY,RHNZ,HX,HY,HZ,LTX,LTY,LTZ,RTX,RTY,RTZ,SpineMidX,SpineMidY,SpineMidZ,SpineBaseX,SpineBaseY,SpineBaseZ,ShoulderLeftX,ShoulderLeftY,ShoulderLeftZ,ShoulderRightX,ShoulderRightY,ShoulderRightZ,ElbowLeftX,ElbowLeftY,ElbowLeftZ,ElbowRightX,ElbowRightY,ElbowRightZ,Myo_Pose_left,Myo_Pose_Right,Kinect_pose_left,Kinect_pose_right
0.9550781,-0.2822266,0.1235352,0.9008789,0.2734375,0.1782227,-2,-1,0,-2,-1,-1,-1,-3,1,-1,-1,-2,-2,-2,0,-1,0.125,0.125,0.125,-6.5,-6.5,-6.5,3.122978,2.979,6.265539,6.582145,3.129988,3.974972,-0.001076555,-0.4327475,1.534143,0.3539628,-0.4415666,1.477914,0.2196562,0.4061196,1.608924,0.03995632,-0.4244123,1.493918,0.3947095,-0.4495353,1.470542,0.2011768,-0.06274573,1.616185,0.1926085,-0.3892663,1.602065,0.02722937,0.1249595,1.602477,0.1050462,-0.3781973,1.572707,-0.01015931,-0.139986,1.622321,0.4108208,-0.1397092,1.58714,NA,NA,NotTracked,NotTracked,
0.9467773,-0.2666016,0.1181641,0.9023438,0.3276367,0.15625,0,4,1,-2,-3,-3,0,1,1,-1,-1,1,-1,0,-1,-1,0.5,0.5,0.5,6.125,6.125,6.125,3.12711,2.979822,6.263333,6.594271,3.127435,3.971291,-0.0006430895,-0.4328406,1.534751,0.3530813,-0.4394035,1.479026,0.2196595,0.4061084,1.608932,0.03988371,-0.4258265,1.494135,0.3910949,-0.4488166,1.466955,0.2011679,-0.06274102,1.616207,0.192623,-0.3892125,1.602076,0.02721081,0.1249407,1.602548,0.105064,-0.3781701,1.572735,-0.01018038,-0.1400034,1.62242,0.4100239,-0.1399768,1.586981,NA,NA,NotTracked,NotTracked,
0.9614258,-0.2724609,0.1147461,0.9091797,0.3300781,0.1958008,0,1,0,-1,0,0,0,2,-1,4,0,-1,-1,-3,-1,-1,2.6875,2.6875,2.6875,4.625,4.625,4.625,3.129988,2.98052,6.26328,6.607498,3.127098,3.967709,-0.0009383475,-0.4334834,1.535789,0.3538145,-0.4383051,1.480806,0.2196629,0.406092,1.608999,0.03998786,-0.4300298,1.494026,0.3918793,-0.4698178,1.462133,0.2011659,-0.06273131,1.616228,0.1926215,-0.389176,1.602107,0.02715271,0.1248489,1.602844,0.1050695,-0.3781458,1.57287,-0.01015081,-0.1398688,1.622657,0.4095984,-0.1399052,1.587011,NA,NA,NotTracked,NotTracked,
0.9443359,-0.2832031,0.1103516,0.9145508,0.2939453,0.2294922,-2,-1,-1,-1,-2,0,0,1,0,-2,-3,0,-1,0,0,-1,2.0625,2.0625,2.0625,-6,-6,-6,3.126489,2.982006,6.269596,6.594013,3.129218,3.976751,-0.0007312793,-0.4326919,1.536406,0.3535962,-0.4400946,1.479711,0.2196676,0.4060707,1.609062,0.0397038,-0.4184257,1.496731,0.3909849,-0.4508412,1.465219,0.2011528,-0.06275351,1.61629,0.1926584,-0.3891638,1.602143,0.02716623,0.1248737,1.602938,0.1051175,-0.3781348,1.572912,-0.01020513,-0.1398317,1.622975,0.4093908,-0.1401825,1.586972,NA,NA,NotTracked,NotTracked,
0.9570313,-0.2792969,0.1298828,0.918457,0.3637695,0.190918,2,0,-1,-1,-1,-1,-1,-1,-14,1,2,0,-1,-3,-3,1,-0.8125,-0.8125,-0.8125,-2,-2,-2,3.126634,2.982564,6.27038,6.594023,3.136674,3.979265,-0.0009629345,-0.4327499,1.536176,0.3543298,-0.4398457,1.479471,0.2196884,0.4061418,1.609134,0.03992486,-0.4245015,1.494435,0.3919958,-0.4588423,1.4645,0.201121,-0.06268718,1.616365,0.1925426,-0.3890341,1.602256,0.02669183,0.1259435,1.604035,0.1050244,-0.3779718,1.57308,-0.01031069,-0.1399474,1.623386,0.4093847,-0.1401514,1.587039,NA,NA,NotTracked,NotTracked,
0.9477539,-0.2797852,0.1108398,1.054688,0.1625977,0.1738281,2,1,2,-1,-2,-3,0,-2,0,2,6,2,2,-2,-3,2,-0.875,-0.875,-0.875,-74,-74,-74,3.129129,2.983279,6.268596,6.527259,3.17354,3.946752,-0.0006972455,-0.4392906,1.535747,0.3534909,-0.4388961,1.477593,0.2197174,0.4061662,1.60933,0.04003465,-0.4408419,1.495613,0.3869881,-0.4748563,1.448,0.2011468,-0.06269198,1.616459,0.1925108,-0.3890451,1.602306,0.02673101,0.1258696,1.604362,0.1049797,-0.3779694,1.573169,-0.01044639,-0.1395735,1.623963,0.4096629,-0.1406072,1.587715,NA,NA,NotTracked,NotTracked,
0.9599609,-0.2753906,0.1044922,1.04541,0.6230469,0.4516602,3,0,-2,-1,-2,0,-1,1,22,-2,-13,-4,-2,-8,10,-2,4.875,4.875,4.875,-10.5625,-10.5625,-10.5625,3.12695,2.984664,6.274492,6.448117,3.361762,3.988381,-0.0007266191,-0.4330969,1.536527,0.3436238,-0.4205696,1.462368,0.2197542,0.4061443,1.609547,0.04010224,-0.4279902,1.495154,0.3706017,-0.4358923,1.417889,0.2010375,-0.06269891,1.616537,0.1921355,-0.3889928,1.60241,0.02684084,0.1257882,1.6046,0.1045881,-0.3778909,1.573321,-0.01030202,-0.1393604,1.624405,0.4111836,-0.1406781,1.591245,NA,NA,NotTracked,NotTracked,
0.9599609,-0.2705078,0.1113281,0.6518555,0.5268555,0.5004883,2,1,-1,0,-2,-3,-2,0,-25,12,-3,0,3,3,5,1,1.3125,1.3125,1.3125,17.5625,17.5625,17.5625,3.129723,2.985524,6.277974,6.433357,3.614549,3.995721,-0.0006827557,-0.4373745,1.535292,0.3277078,-0.3716094,1.439372,0.2198802,0.406107,1.609702,0.03949272,-0.4344406,1.495081,0.3305205,-0.3702348,1.362917,0.2002247,-0.0623196,1.617377,0.1902234,-0.3887447,1.602701,0.02692115,0.1256758,1.604745,0.1025931,-0.3774195,1.573536,-0.01021875,-0.1387786,1.624839,0.4195733,-0.13188,1.600868,NA,NA,NotTracked,NotTracked,
0.9130859,-0.2939453,0.1108398,0.5024414,0.6835938,0.4130859,-3,-2,-3,0,1,0,0,-2,6,12,3,-1,2,11,-14,-3,-4.6875,-4.6875,-4.6875,21.25,21.25,21.25,3.12298,2.982217,6.279007,6.497612,3.8643,3.975672,-0.001043741,-0.4376462,1.536595,0.3010912,-0.3427655,1.446892,0.2200543,0.4060792,1.609765,0.03977566,-0.4303448,1.495506,0.2984055,-0.4103293,1.463669,0.1998627,-0.06226249,1.617426,0.1886044,-0.3884073,1.60307,0.02696859,0.1256939,1.604849,0.101108,-0.3769436,1.573994,-0.01014811,-0.138128,1.625288,0.4280818,-0.1136114,1.608279,NA,NA,NotTracked,Unknown,
0.9506836,-0.3022461,0.1323242,0.4335938,0.5717773,0.4379883,-2,-4,-1,-1,0,-1,1,4,4,-7,0,0,-3,7,-15,-4,-4.9375,-4.9375,-4.9375,8.8125,8.8125,8.8125,3.105786,2.980143,6.280543,6.509854,4.078131,3.970019,-0.001496978,-0.4374295,1.536643,0.2875206,-0.2643679,1.416194,0.2202006,0.40612,1.609777,0.03948625,-0.4323933,1.496059,0.2561375,-0.2652407,1.362833,0.1995408,-0.0621358,1.617574,0.1878895,-0.387993,1.603437,0.02700127,0.1256869,1.604892,0.10058,-0.3766286,1.574462,-0.01018166,-0.1372872,1.625435,0.43088,-0.1065235,1.609607,NA,NA,NotTracked,Closed,
0.9790039,-0.2661133,0.1196289,0.409668,0.6420898,0.5039063,-2,-3,-2,-1,-2,0,1,-1,17,-19,-15,-5,0,-6,-8,-5,-3.5,-3.5,-3.5,15.9375,15.9375,15.9375,3.110275,2.984259,6.270192,6.536451,4.259819,3.987475,-0.001647049,-0.437039,1.535176,0.2945829,-0.2253794,1.358592,0.2203855,0.4060801,1.609998,0.03874678,-0.4220794,1.497167,0.2495541,-0.2314333,1.361,0.1994216,-0.06206828,1.617702,0.1876831,-0.3878,1.603577,0.02713918,0.1256334,1.60501,0.1004598,-0.3765358,1.574705,-0.01013177,-0.1370314,1.62544,0.4323471,-0.1024485,1.607894,NA,NA,NotTracked,Unknown,
0.9453125,-0.2587891,0.08984375,0.3359375,0.7021484,0.4594727,-3,-3,-2,-1,-2,0,1,0,3,0,-5,-7,-8,-6,-12,1,0,0,0,7.3125,7.3125,7.3125,3.117235,2.991705,6.260443,6.553663,4.327787,3.999694,-0.0008690187,-0.4361874,1.53248,0.282165,-0.2125914,1.369452,0.2204398,0.4059748,1.610344,0.03914509,-0.427238,1.496108,0.2393723,-0.218083,1.364429,0.1993446,-0.06204942,1.617855,0.1876357,-0.3877398,1.603659,0.02718376,0.1255403,1.605108,0.1004406,-0.3765316,1.574909,-0.01015574,-0.1368226,1.625391,0.4334156,-0.09990395,1.605339,NA,NA,NotTracked,Unknown,
0.9477539,-0.2553711,0.09912109,0.2265625,0.9145508,0.449707,-4,-1,0,0,0,0,-1,0,11,8,-1,3,8,-21,15,-8,3.0625,3.0625,3.0625,34.9375,34.9375,34.9375,3.120017,2.994284,6.261309,6.611429,4.375808,4.011234,-0.0008091683,-0.4370134,1.533762,0.2769186,-0.2152193,1.363087,0.2203613,0.4061024,1.610968,0.03944352,-0.4288971,1.495596,0.2406899,-0.225222,1.412333,0.1992409,-0.06200343,1.618067,0.1875614,-0.3877084,1.603737,0.02717511,0.1254307,1.605305,0.1004027,-0.3765576,1.575032,-0.01018105,-0.1364955,1.625543,0.4339181,-0.09771653,1.602871,NA,NA,NotTracked,Closed,
0.9536133,-0.2817383,0.1191406,0.4614258,0.5317383,0.5395508,-2,-4,0,-1,-1,-1,-1,0,2,9,5,8,12,30,32,-1,-0.6875,-0.6875,-0.6875,-10.4375,-10.4375,-10.4375,3.120507,2.990669,6.26324,6.594974,4.354154,3.990823,-0.0006271164,-0.4374745,1.534613,0.2761432,-0.2407624,1.361415,0.2201136,0.4060837,1.611815,0.03954101,-0.43059,1.495513,0.2364651,-0.2470005,1.3639,0.1991374,-0.06198522,1.618272,0.1874494,-0.3876432,1.603773,0.02714673,0.1252987,1.605648,0.1003678,-0.3765365,1.575062,-0.01024149,-0.1360815,1.625649,0.4334415,-0.09616798,1.599223,NA,NA,NotTracked,Unknown,
0.9482422,-0.3032227,0.128418,0.5366211,0.9155273,0.4711914,-3,10,-1,-2,0,-3,-6,-1,-15,2,9,5,4,-5,-9,-2,1.6875,1.6875,1.6875,15.5625,15.5625,15.5625,3.118385,2.992042,6.265749,6.645946,4.297048,3.96845,-0.0006723804,-0.4364292,1.534587,0.2818373,-0.2551102,1.367047,0.2198683,0.4061652,1.612522,0.04046894,-0.4354281,1.495463,0.2451795,-0.2881256,1.445395,0.198929,-0.06192434,1.618575,0.1871847,-0.387605,1.60384,0.02716576,0.1251306,1.606018,0.1001844,-0.3765022,1.575246,-0.0101864,-0.1359815,1.625964,0.4325713,-0.09683614,1.596705,NA,NA,NotTracked,Unknown,
0.9570313,-0.2822266,0.1235352,0.4555664,0.7744141,0.4902344,-3,1,2,0,0,0,-1,-2,-1,-1,-4,3,-7,1,-18,-16,5.9375,5.9375,5.9375,11.875,11.875,11.875,3.121897,3.001911,6.275399,6.65059,4.266668,3.96933,-0.0009589943,-0.4379372,1.534719,0.2810627,-0.257123,1.38946,0.2195533,0.4060462,1.613405,0.03949025,-0.4307758,1.495746,0.2279778,-0.2332754,1.460099,0.1987437,-0.06193443,1.618817,0.1868497,-0.387623,1.603897,0.02714933,0.1249071,1.606678,0.09996124,-0.3764783,1.575369,-0.01039093,-0.1356753,1.626628,0.4318036,-0.09738903,1.594982,NA,NA,NotTracked,Unknown,
0.9389648,-0.2817383,0.1049805,0.4213867,0.7568359,0.4609375,0,-1,-2,-1,-2,-2,-2,-3,1,-12,-2,-6,-19,-8,19,7,4.125,4.125,4.125,1.375,1.375,1.375,3.122519,3.002661,6.280211,6.656624,4.257686,3.976355,-0.001315815,-0.4375763,1.535624,0.2806963,-0.2596903,1.39439,0.2193569,0.4060573,1.613877,0.03997066,-0.4306687,1.496004,0.2312844,-0.2492875,1.460223,0.1984734,-0.06201384,1.619089,0.1863815,-0.3877173,1.603947,0.02709405,0.1246831,1.607429,0.09959994,-0.3765626,1.575532,-0.01055296,-0.1357657,1.627017,0.4312892,-0.09781417,1.593457,NA,NA,NotTracked,Unknown,
0.9506836,-0.3154297,0.1210938,0.4638672,0.7768555,0.4594727,-2,-5,-7,-2,-1,-2,-2,-1,1,1,-3,-3,0,-4,0,5,-1.1875,-1.1875,-1.1875,-4.875,-4.875,-4.875,3.111859,2.999888,6.290288,6.652455,4.251669,3.971068,-0.001154636,-0.4358172,1.537164,0.2812963,-0.2619344,1.394017,0.2191493,0.4060595,1.614484,0.03952866,-0.4268115,1.495958,0.2691453,-0.3202543,1.44604,0.1983113,-0.06203565,1.619225,0.185934,-0.3877332,1.604004,0.02699011,0.1245176,1.608093,0.09920896,-0.3765492,1.575785,-0.01080615,-0.1352429,1.627586,0.4308932,-0.09806085,1.592842,NA,NA,NotTracked,Unknown,
0.9448242,-0.2949219,0.1230469,0.5102539,0.8173828,0.4892578,-1,-2,-1,0,-1,-1,-1,-3,-93,21,7,-3,-2,6,8,19,-0.6875,-0.6875,-0.6875,-4,-4,-4,3.107699,2.998851,6.294508,6.646636,4.254086,3.968469,-0.001371978,-0.4350851,1.53768,0.2844597,-0.2652749,1.369515,0.2191477,0.406103,1.615035,0.03962706,-0.4287951,1.496556,0.2508733,-0.3015317,1.43875,0.1980571,-0.06201288,1.619447,0.1855298,-0.387731,1.604146,0.02705467,0.1244647,1.60845,0.09881878,-0.3765193,1.576059,-0.01077253,-0.1351658,1.62829,0.4307426,-0.09816445,1.592599,NA,NA,NotTracked,Unknown,
0.9438477,-0.2875977,0.1176758,0.4790039,0.8432617,0.503418,-3,-9,-4,-3,-1,0,0,-3,18,40,15,7,6,7,18,50,0.6875,0.6875,0.6875,9.875,9.875,9.875,3.109848,2.999944,6.291926,6.651052,4.313673,3.972073,-0.0003590618,-0.4352945,1.536966,0.2833327,-0.2500485,1.350206,0.219144,0.4061076,1.615244,0.0407892,-0.4214205,1.497512,0.2393644,-0.2586259,1.457363,0.1978725,-0.0619206,1.61969,0.1851464,-0.3875117,1.604351,0.02622854,0.1261468,1.609408,0.09854309,-0.3763026,1.576278,-0.01078384,-0.1349843,1.628445,0.4307871,-0.09819078,1.592562,NA,NA,NotTracked,Unknown,
0.9477539,-0.284668,0.105957,0.3227539,0.8476563,0.5717773,-1,1,0,-1,-1,-2,-1,-2,30,5,-3,-3,-54,2,-3,-10,0.75,0.75,0.75,-31.125,-31.125,-31.125,3.109851,2.999662,6.292341,6.623118,4.421196,3.97523,-0.001038464,-0.4356539,1.536859,0.2894597,-0.2070544,1.32763,0.2191415,0.4060841,1.615321,0.03980573,-0.4240953,1.496868,0.240501,-0.2131767,1.35632,0.1978673,-0.06193125,1.619685,0.1852079,-0.3875328,1.604333,0.02636965,0.1259094,1.609537,0.09863497,-0.3763963,1.576263,-0.01090692,-0.1345896,1.628615,0.4310613,-0.09826165,1.592661,NA,NA,NotTracked,Unknown,
0.9418945,-0.2856445,0.1142578,0.1367188,0.8696289,0.5083008,-2,-4,4,-1,1,-1,-2,-2,-67,-3,11,-17,1,2,-1,5,-3.5,-3.5,-3.5,-17.6875,-17.6875,-17.6875,3.108264,2.997597,6.292307,6.620516,4.659479,3.920962,-0.0008598785,-0.4362124,1.536173,0.299103,-0.1540355,1.346001,0.2191374,0.4061101,1.615368,0.03997667,-0.4266798,1.496793,0.2395545,-0.153042,1.324546,0.197894,-0.06194217,1.61981,0.1854888,-0.387471,1.604652,0.02647305,0.1258016,1.609589,0.09887232,-0.3764368,1.576669,-0.01098536,-0.1346141,1.628836,0.4900664,-0.1059309,1.607176,NA,NA,NotTracked,Unknown,
0.9428711,-0.2841797,0.1108398,0.06347656,0.8188477,0.4707031,-2,0,-2,0,-1,-1,-1,-1,76,-5,4,-9,-27,3,19,43,-4.4375,-4.4375,-4.4375,18.3125,18.3125,18.3125,3.107543,2.992621,6.287712,6.638275,4.855462,3.87986,-0.001814392,-0.4355866,1.537196,0.3097268,-0.09433013,1.355825,0.2191532,0.4061085,1.615369,0.03982815,-0.4267,1.496517,0.2528643,-0.09836861,1.341455,0.1978852,-0.06194897,1.619829,0.1855166,-0.3874711,1.604781,0.02655864,0.1257197,1.609559,0.09887761,-0.3764849,1.576915,-0.01117357,-0.1345755,1.628854,0.4331803,-0.1006132,1.554852,NA,NA,NotTracked,Unknown,
0.9550781,-0.3076172,0.1235352,-0.04589844,0.7768555,0.4785156,0,-1,-2,1,-1,-1,-1,-1,2,4,7,-21,-29,-2,2,3,-5.1875,-5.1875,-5.1875,0.0625,0.0625,0.0625,3.104671,2.992131,6.279617,6.650172,5.038732,3.860651,-0.001349179,-0.4352029,1.536524,0.3131591,-0.04355669,1.367792,0.2191526,0.4061168,1.615356,0.03997401,-0.427996,1.496786,0.2498269,-0.04606264,1.336,0.1979075,-0.06190794,1.619869,0.1856932,-0.3871706,1.605074,0.02640005,0.1261538,1.609546,0.09908549,-0.3762789,1.577434,-0.01130786,-0.1344991,1.628665,0.4307769,-0.10322,1.548826,NA,NA,NotTracked,Open,
0.9526367,-0.2729492,0.1220703,-0.09033203,0.7358398,0.4873047,-3,2,-3,-2,-3,-1,-5,-2,38,-12,-11,-4,3,0,-8,-12,-4.3125,-4.3125,-4.3125,7.8125,7.8125,7.8125,3.10873,2.991906,6.266609,6.653845,5.167084,3.855923,6.310947E-05,-0.437608,1.535486,0.3153943,-0.01195251,1.373648,0.2192059,0.4061561,1.615415,0.03986023,-0.4222907,1.497668,0.2691241,-0.0009766456,1.463571,0.1979965,-0.06182081,1.619989,0.1861469,-0.3867707,1.605498,0.02625325,0.1263928,1.609544,0.09955274,-0.3760883,1.578027,-0.01140712,-0.1344892,1.628566,0.4167979,-0.110365,1.532468,NA,NA,NotTracked,Open,
0.9545898,-0.2734375,0.1088867,-0.1450195,0.796875,0.4506836,1,8,1,-2,-3,-3,0,-1,-88,-32,-25,-2,-4,2,-9,-19,-1.625,-1.625,-1.625,13.6875,13.6875,13.6875,3.107124,2.991136,6.263433,6.679582,5.208554,3.832928,-0.0008240337,-0.4354143,1.535445,0.3164296,0.002295592,1.371182,0.2192982,0.4061666,1.615426,0.03992325,-0.4236453,1.497341,0.2773931,0.02739283,1.459571,0.1981233,-0.06178353,1.620052,0.1865459,-0.3865427,1.605686,0.02645824,0.1258558,1.609255,0.09995187,-0.3760339,1.578286,-0.01118759,-0.135064,1.628405,0.4159026,-0.1095987,1.531538,NA,NA,NotTracked,Open,
0.9492188,-0.2753906,0.1103516,0.07324219,0.8837891,0.5800781,-2,0,-2,-1,-2,1,0,-1,38,8,4,9,-20,-2,-5,13,-2,-2,-2,-1.375,-1.375,-1.375,3.106416,2.990332,6.263082,6.678853,5.151142,3.820011,-0.0005089241,-0.4356473,1.537007,0.3173402,-0.003324342,1.360081,0.2195223,0.4061531,1.615612,0.04018755,-0.4244947,1.497678,0.3500911,0.03537325,1.353375,0.1983112,-0.06170822,1.620273,0.187,-0.3863069,1.605952,0.02671399,0.1255886,1.609186,0.10037,-0.3759342,1.578614,-0.01132909,-0.1348223,1.628313,0.415309,-0.1094985,1.530496,NA,NA,NotTracked,Open,
0.9609375,-0.2885742,0.1137695,-0.1298828,0.8925781,0.5112305,-3,-2,-2,1,0,-1,1,0,-61,-7,-6,-2,-7,-4,-16,-38,4.0625,4.0625,4.0625,-8.5,-8.5,-8.5,3.103551,2.990976,6.265797,6.667637,5.132978,3.831182,-0.0005788284,-0.4352877,1.536693,0.3160725,-0.00786572,1.359615,0.219644,0.4061952,1.615681,0.03981342,-0.4277238,1.496891,0.3157849,0.03465463,1.469,0.1985205,-0.06165899,1.620443,0.1873312,-0.38616,1.606194,0.02692859,0.1253834,1.609194,0.1007234,-0.3758895,1.578954,-0.01133131,-0.1343878,1.628215,0.4148132,-0.1089901,1.528813,NA,NA,NotTracked,Open,
0.9433594,-0.2651367,0.1162109,-0.09667969,0.8823242,0.4780273,0,-2,-1,-2,-1,-2,0,1,-40,-16,-7,3,10,-7,-7,0,5.4375,5.4375,5.4375,-6.5,-6.5,-6.5,3.106562,2.99155,6.269387,6.660626,5.108369,3.848075,-0.001228153,-0.4345848,1.538041,0.3137252,-0.01174371,1.360648,0.2198506,0.4062013,1.61572,0.03946727,-0.4236974,1.49758,0.3557729,0.023733,1.333581,0.1986275,-0.06162797,1.620519,0.1874833,-0.3860578,1.606352,0.02706408,0.1252658,1.609193,0.1008551,-0.3758521,1.579113,-0.01131442,-0.1344749,1.62834,0.4139639,-0.1098446,1.527998,NA,NA,NotTracked,Open,
0.9321289,-0.2885742,0.112793,-0.09423828,0.9003906,0.4941406,-7,0,-3,-1,-1,-2,-2,-3,-12,-5,-10,-7,6,-8,-16,-61,1.625,1.625,1.625,1,1,1,3.104734,2.989105,6.276017,6.664317,5.102181,3.851862,-0.001237856,-0.4356592,1.538629,0.3131368,-0.01389315,1.361788,0.2200281,0.4061954,1.615728,0.04014382,-0.442677,1.496591,0.3487085,0.0440193,1.439739,0.1987466,-0.06161794,1.620611,0.1875286,-0.3859416,1.606481,0.02688077,0.1256786,1.609417,0.1009144,-0.3757738,1.579302,-0.01129462,-0.134857,1.628551,0.4131958,-0.11136,1.527657,NA,NA,NotTracked,Open,
0.9501953,-0.300293,0.1118164,-0.06298828,0.8618164,0.5195313,2,-4,-3,-2,0,-1,0,-3,6,-3,-2,-4,-17,4,4,9,1.25,1.25,1.25,-1.5,-1.5,-1.5,3.099055,2.98695,6.282551,6.662169,5.098733,3.848128,-0.0009464389,-0.4352856,1.538543,0.3135994,-0.01569496,1.359886,0.2201257,0.4061539,1.61565,0.03961619,-0.4341868,1.497039,0.3475598,0.04227871,1.433618,0.1988279,-0.06158134,1.620669,0.1875668,-0.3857892,1.606586,0.02674854,0.1260152,1.609608,0.1009922,-0.3756624,1.579495,-0.0112661,-0.1349052,1.628602,0.4127612,-0.1120732,1.525848,NA,NA,NotTracked,Open,
0.9389648,-0.2758789,0.1123047,-0.08349609,0.8212891,0.5009766,1,1,-1,-1,-1,0,0,1,-7,2,2,1,5,1,-9,13,-0.0625,-0.0625,-0.0625,-7.4375,-7.4375,-7.4375,3.098943,2.987625,6.282867,6.654039,5.093672,3.840994,-0.0001189401,-0.437363,1.538244,0.3145912,-0.01764115,1.358414,0.2202616,0.4061151,1.615665,0.04018427,-0.4329074,1.497578,0.3564572,0.001260294,1.297059,0.1988792,-0.06159082,1.620701,0.187646,-0.3857563,1.606633,0.02709098,0.1257482,1.609677,0.1011122,-0.3756582,1.579659,-0.01125531,-0.1347485,1.628621,0.4124372,-0.1124085,1.525414,NA,NA,NotTracked,Open,
0.9418945,-0.2792969,0.1054688,-0.1347656,0.7290039,0.4589844,-2,0,-1,-1,-2,-1,-2,-1,7,2,6,7,7,1,2,6,0.1875,0.1875,0.1875,-7.3125,-7.3125,-7.3125,3.098795,2.987771,6.283158,6.636613,5.057174,3.822444,-0.0001896045,-0.435461,1.538554,0.3144495,-0.02932342,1.350659,0.2203092,0.4061444,1.615698,0.04109431,-0.4236374,1.498371,0.3649268,-0.003197201,1.289875,0.198901,-0.06157846,1.620729,0.1877017,-0.3857466,1.606687,0.02725494,0.1255479,1.609672,0.1011792,-0.3756612,1.579781,-0.01126798,-0.1346738,1.628609,0.4117116,-0.1154961,1.523509,NA,NA,NotTracked,Open,
0.9511719,-0.2866211,0.1069336,0.01708984,0.7426758,0.4453125,-3,-9,-4,-1,-1,-1,-2,-1,10,0,2,3,0,3,2,6,-3,-3,-3,-10.75,-10.75,-10.75,3.096321,2.987355,6.282548,6.621012,4.939937,3.790935,-5.151523E-05,-0.4357891,1.538685,0.3133149,-0.06997368,1.334209,0.2203168,0.4061799,1.615733,0.040555,-0.4241263,1.498577,0.3528286,-0.06321226,1.277667,0.1989394,-0.06157344,1.620772,0.187738,-0.3857609,1.606754,0.02747963,0.1252329,1.609728,0.1012139,-0.3756938,1.579933,-0.01123358,-0.1345779,1.628635,0.4230887,-0.1058928,1.535897,NA,NA,NotTracked,Unknown,
0.9506836,-0.2900391,0.1181641,0.1376953,0.7978516,0.4624023,-1,0,-4,-3,-3,-2,-2,0,-1,1,1,1,1,6,1,-1,-2.875,-2.875,-2.875,-23.125,-23.125,-23.125,3.096734,2.989723,6.276987,6.604337,4.651875,3.732662,-0.0001794278,-0.4358171,1.538243,0.3019218,-0.1321804,1.276709,0.2203168,0.4061726,1.615898,0.0393373,-0.4235373,1.499628,0.3308935,-0.1451138,1.243333,0.1989544,-0.06166096,1.620957,0.1877637,-0.386049,1.606827,0.02762492,0.1249532,1.609762,0.1011542,-0.3759375,1.579996,-0.01119903,-0.1345688,1.628648,0.4578396,-0.09843662,1.570987,NA,NA,NotTracked,Unknown,
0.9619141,-0.2890625,0.1220703,0.3457031,0.8339844,0.4116211,0,-1,1,0,-1,-3,-2,2,-7,6,13,0,0,4,8,8,0,0,0,-12.375,-12.375,-12.375,3.097634,2.99401,6.273844,6.590128,4.361762,3.696615,-0.0003563087,-0.4355451,1.536219,0.3171473,-0.235408,1.295125,0.2202507,0.4061736,1.616831,0.04006333,-0.4299929,1.497855,0.3387821,-0.2414101,1.261134,0.1988666,-0.06173972,1.621049,0.1875105,-0.3862989,1.606668,0.02764494,0.1246991,1.609964,0.1008943,-0.3761525,1.579755,-0.01093157,-0.1350412,1.628887,0.4297985,-0.09601822,1.589291,NA,NA,NotTracked,Unknown,
0.9477539,-0.2807617,0.1157227,0.6333008,0.5751953,0.5024414,-2,7,1,-1,-1,0,1,3,17,5,3,1,4,-3,0,-3,1.125,1.125,1.125,55.1875,55.1875,55.1875,3.09867,2.999758,6.27659,6.593277,4.056199,3.690143,4.64998E-05,-0.4350392,1.537514,0.3293503,-0.3176422,1.331717,0.2200966,0.4064036,1.618302,0.04009362,-0.4261746,1.498601,0.3505993,-0.3173712,1.297404,0.1986513,-0.06173671,1.621448,0.1869461,-0.386485,1.606802,0.0275978,0.1245649,1.61035,0.1003059,-0.3761362,1.579657,-0.01060671,-0.1352862,1.629015,0.4238896,-0.1027459,1.591256,NA,NA,NotTracked,Open,
0.9536133,-0.2763672,0.128418,0.7978516,0.4833984,0.4467773,-1,8,-1,-2,-2,0,0,-1,-4,-1,-3,-2,-2,-14,1,2,9.25,9.25,9.25,-12.875,-12.875,-12.875,3.097577,3.002272,6.289797,6.595078,3.711357,3.671407,-0.001131713,-0.4347858,1.537352,0.3422166,-0.3790627,1.366232,0.2199993,0.4065679,1.619642,0.03881222,-0.4105039,1.500397,0.3693472,-0.3806057,1.344072,0.1986643,-0.06178132,1.621485,0.1869042,-0.3868972,1.606585,0.02765061,0.1244461,1.610605,0.1001176,-0.3763961,1.579139,-0.01045975,-0.1356335,1.629057,0.4192143,-0.1216542,1.589239,NA,NA,NotTracked,Unknown,
0.9350586,-0.2788086,0.1191406,0.871582,0.5527344,0.3295898,-2,0,0,-1,-2,0,-1,3,-10,-1,-2,-1,4,-3,4,4,12.875,12.875,12.875,-3.9375,-3.9375,-3.9375,3.088709,2.99724,6.318763,6.623669,3.520176,3.640217,-0.001259263,-0.4370205,1.538208,0.3567842,-0.4167911,1.402833,0.219895,0.4067242,1.620841,0.04003463,-0.4222533,1.498895,0.3776026,-0.4184138,1.373525,0.1987953,-0.06188709,1.621551,0.1873966,-0.3875388,1.606457,0.02708201,0.1253575,1.611113,0.100448,-0.3767151,1.578829,-0.01055277,-0.1363701,1.629098,0.4186779,-0.1308486,1.588608,NA,NA,NotTracked,Unknown,
0.9389648,-0.2905273,0.07519531,0.9902344,0.4057617,0.2299805,-1,6,1,-1,-1,-4,0,-3,14,-2,-3,-2,-1,-4,-7,-6,1.75,1.75,1.75,61.8125,61.8125,61.8125,3.071684,2.987491,6.348617,6.668401,3.296226,3.675965,-0.001690065,-0.4368317,1.539134,0.369277,-0.4414146,1.43721,0.2199841,0.4069413,1.622047,0.03983738,-0.4272322,1.498933,0.3934373,-0.4487606,1.409212,0.1991699,-0.06210165,1.621748,0.1885119,-0.3884664,1.606423,0.02717247,0.1252481,1.611367,0.1013618,-0.3773739,1.57861,-0.01004105,-0.138684,1.629997,0.4172146,-0.1362178,1.589052,NA,NA,NotTracked,Unknown,
0.9545898,-0.328125,0.1162109,0.9423828,0.4072266,0.1713867,0,15,3,-1,-1,-1,0,1,2,0,-1,2,16,4,2,1,-6.375,-6.375,-6.375,41.1875,41.1875,41.1875,3.062181,2.99364,6.348715,6.707294,3.191413,3.739694,-0.001940271,-0.4368232,1.539342,0.3675203,-0.445564,1.475743,0.2203977,0.4072091,1.623501,0.03994802,-0.4248952,1.500194,0.405179,-0.4490898,1.45537,0.1998674,-0.06227457,1.622356,0.1897397,-0.3889507,1.606769,0.02734628,0.1251252,1.612027,0.1024718,-0.3777571,1.578782,-0.01006945,-0.140459,1.630856,0.4161432,-0.1385592,1.590775,NA,NA,NotTracked,Unknown,
0.9458008,-0.2998047,0.1308594,0.9208984,0.359375,0.2075195,-2,-9,-8,-1,0,-1,-3,-6,-2,-5,-3,-1,5,-3,-5,-2,-0.625,-0.625,-0.625,40.375,40.375,40.375,3.058333,3.004303,6.346436,6.683164,3.1327,3.827845,-0.002034122,-0.4368526,1.538534,0.36457,-0.4461765,1.49446,0.2206333,0.4072889,1.624735,0.03986569,-0.4235334,1.500591,0.3960702,-0.4760849,1.432333,0.2002615,-0.06225672,1.622865,0.1902039,-0.3890517,1.607116,0.0269974,0.1259136,1.612505,0.1029294,-0.3778443,1.579017,-0.01009311,-0.1407551,1.631011,0.415963,-0.1407094,1.593454,NA,NA,NotTracked,NotTracked,
0.9375,-0.2802734,0.1040039,0.8623047,0.4506836,0.2001953,-2,-1,-1,-2,-1,-1,0,-1,-4,1,0,2,3,2,0,0,-6,-6,-6,29.9375,29.9375,29.9375,3.057996,3.008337,6.340404,6.646781,3.112665,3.940344,-0.002297876,-0.4314431,1.537023,0.3649944,-0.4357084,1.506268,0.2208223,0.4073098,1.624957,0.03973734,-0.4276941,1.499671,0.4033089,-0.4210327,1.513375,0.2004815,-0.06215285,1.623109,0.190449,-0.388965,1.607384,0.02708883,0.1259074,1.612606,0.1031728,-0.3778711,1.579226,-0.01006121,-0.1396937,1.630615,0.4165421,-0.1414349,1.595559,NA,NA,NotTracked,NotTracked,
0.9291992,-0.2890625,0.1142578,0.8930664,0.2915039,0.1821289,2,-2,0,-1,-2,-2,-3,-2,1,-1,0,1,3,6,2,0,-12.375,-12.375,-12.375,-23.5625,-23.5625,-23.5625,3.062577,3.00563,6.316936,6.675859,3.135219,3.873615,-0.001480716,-0.4321033,1.53797,0.3650505,-0.4401762,1.508133,0.221286,0.40745,1.625831,0.04006426,-0.4357846,1.499276,0.3994027,-0.4418588,1.508295,0.2005818,-0.06197863,1.623495,0.1906136,-0.3888732,1.607812,0.02717228,0.1260653,1.612872,0.1033138,-0.3778603,1.579518,-0.01006118,-0.1397258,1.630561,0.4165864,-0.141696,1.599563,NA,NA,NotTracked,NotTracked,
0.9492188,-0.2978516,0.09960938,0.9179688,0.2905273,0.1865234,-2,-4,-2,-1,0,0,0,-3,0,1,0,-2,0,-8,-1,0,-5.1875,-5.1875,-5.1875,26.0625,26.0625,26.0625,3.055345,3.000369,6.306274,6.69009,3.13353,3.882102,-0.001667599,-0.4317421,1.53799,0.3659746,-0.4391232,1.507288,0.2216305,0.4074208,1.626247,0.03994215,-0.4192177,1.500995,0.4030533,-0.4361661,1.513047,0.2007307,-0.0619685,1.623749,0.190793,-0.3889226,1.608069,0.02724666,0.1261138,1.612815,0.1034423,-0.377929,1.57965,-0.0097555,-0.1396001,1.63026,0.417498,-0.139304,1.600848,NA,NA,NotTracked,NotTracked,
