ALX,ALY,ALZ,ARX,ARY,ARZ,EMG0L,EMG1L,EMG2L,EMG3L,EMG4L,EMG5L,EMG6L,EMG7L,EMG0R,EMG1R,EMG2R,EMG3R,EMG4R,EMG5R,EMG6R,EMG7R,GLX,GLY,GLZ,GRX,GRY,GRZ,ORL,OPL,OYL,ORR,OPR,OYR,LHNX,LHNY,LHNZ,RHNX,RHNY,RHNZ,HX,HY,HZ,LTX,LTY,LTZ,RTX,RTY,RTZ,SpineMidX,SpineMidY,SpineMidZ,SpineBaseX,SpineBaseY,SpineBaseZ,ShoulderLeftX,ShoulderLeftY,ShoulderLeftZ,ShoulderRightX,ShoulderRightY,ShoulderRightZ,ElbowLeftX,ElbowLeftY,ElbowLeftZ,ElbowRightX,ElbowRightY,ElbowRightZ,Myo_Pose_left,Myo_Pose_Right,Kinect_pose_left,Kinect_pose_right
0.9121094,-0.3657227,0.1323242,0.9125977,0.3286133,0.1748047,-1,-1,-2,0,-1,-2,-2,0,-1,-1,-1,-3,-6,-8,-5,-2,0.375,0.375,0.375,2.25,2.25,2.25,3.063929,3.135699,6.905235,6.76218,3.119542,4.255095,0.04011175,-0.4223928,1.668154,0.3840997,-0.4288895,1.644286,0.2515533,0.3980688,1.775181,-0.002447532,-0.4364865,1.685031,0.4170829,-0.4635114,1.6364,0.2311225,-0.06616086,1.771758,0.22167,-0.3884479,1.751979,0.05832633,0.1223742,1.762867,0.1349898,-0.3799132,1.721914,0.02440521,-0.1378614,1.76687,0.4310169,-0.1406961,1.743436,NA,NA,NotTracked,NotTracked,
0.9228516,-0.3632813,0.1318359,0.9023438,0.3325195,0.1704102,-2,-10,-6,-1,-1,0,-1,-1,-1,0,-1,-1,1,-10,-2,-3,0.75,0.75,0.75,-1.125,-1.125,-1.125,3.063929,3.135699,6.905235,6.762406,3.121301,4.256207,0.03991371,-0.422242,1.666864,0.3847735,-0.4278235,1.643051,0.2516167,0.3980833,1.775342,-0.001673041,-0.4394777,1.677267,0.4198758,-0.434269,1.638682,0.2311844,-0.06612309,1.771867,0.2217151,-0.3884037,1.752099,0.05844387,0.1223433,1.763109,0.1350485,-0.3798198,1.722031,0.02448541,-0.1379658,1.767099,0.4312591,-0.1404118,1.743858,NA,NA,NotTracked,NotTracked,
0.9189453,-0.3671875,0.1342773,0.9077148,0.3330078,0.1655273,0,-2,0,-1,0,-1,-2,-1,-2,1,-1,-1,0,-6,-3,-1,-1,-1,-1,1.6875,1.6875,1.6875,3.064553,3.13607,6.904612,6.764058,3.120662,4.256524,0.04004489,-0.4223349,1.667261,0.3845988,-0.42789,1.64352,0.251682,0.3981008,1.775447,-0.001699393,-0.4275712,1.681737,0.4171596,-0.4570696,1.633786,0.2311778,-0.06612824,1.7719,0.2217304,-0.388422,1.752106,0.05858276,0.122361,1.763175,0.1350842,-0.3798369,1.72199,0.02453368,-0.1379208,1.76705,0.4312588,-0.1404581,1.743919,NA,NA,NotTracked,NotTracked,
0.9179688,-0.3662109,0.1337891,0.9023438,0.3305664,0.1665039,-2,-1,-3,-2,-1,0,-2,-1,-3,-2,-2,-1,-1,0,0,-4,0.125,0.125,0.125,2.4375,2.4375,2.4375,3.065937,3.135688,6.904067,6.764384,3.121089,4.259903,0.04014515,-0.4219933,1.667712,0.3848298,-0.4279865,1.643649,0.2517443,0.3981125,1.775548,-0.001738095,-0.4360185,1.682218,0.4183916,-0.4473784,1.636954,0.2311682,-0.06612492,1.771915,0.221735,-0.3884313,1.7521,0.05862011,0.1223296,1.763192,0.1350933,-0.3798503,1.72197,0.02448681,-0.1368168,1.767365,0.4312539,-0.1403007,1.744023,NA,NA,NotTracked,NotTracked,
0.9238281,-0.3696289,0.1337891,0.9111328,0.3398438,0.1630859,-2,-3,-1,0,-2,-1,1,0,-2,-5,-2,0,-5,3,-6,11,0.125,0.125,0.125,3,3,3,3.065937,3.135688,6.904067,6.766199,3.12254,4.263551,0.04017686,-0.4226348,1.667134,0.3846167,-0.4278872,1.644008,0.2518107,0.3981737,1.775606,-0.001666772,-0.44512,1.681375,0.4186058,-0.4485191,1.637347,0.231166,-0.06612685,1.771935,0.2217495,-0.3884327,1.752103,0.05865365,0.1223304,1.763228,0.1351189,-0.3798574,1.721956,0.02444096,-0.1370521,1.767409,0.4313136,-0.1402947,1.744063,NA,NA,NotTracked,NotTracked,
0.9135742,-0.375,0.1347656,1.027344,0.2226563,0.2202148,1,2,-1,-1,-2,-3,-1,1,-8,-15,2,-1,3,1,28,72,-0.0625,-0.0625,-0.0625,-6.1875,-6.1875,-6.1875,3.065703,3.136071,6.904162,6.706704,3.13605,4.320912,0.04038153,-0.4223774,1.666852,0.3848923,-0.4277875,1.642807,0.251889,0.3982196,1.775692,-0.001946343,-0.4340761,1.682819,0.4185395,-0.4504285,1.635847,0.2311779,-0.06614161,1.771914,0.2217642,-0.3884344,1.752081,0.05868947,0.1223049,1.763217,0.1351424,-0.3798616,1.721897,0.02437294,-0.1370829,1.767352,0.4313926,-0.1403185,1.744089,NA,NA,NotTracked,NotTracked,
0.9194336,-0.3598633,0.144043,0.8867188,0.4897461,0.1420898,0,-3,-3,0,-1,0,0,-1,7,12,0,-2,1,8,8,2,1.75,1.75,1.75,-0.625,-0.625,-0.625,3.06737,3.13683,6.903615,6.65047,3.203061,4.401186,0.03988575,-0.4227994,1.668083,0.3856862,-0.445978,1.62662,0.2519128,0.3981989,1.775851,-0.005210942,-0.4424742,1.693833,0.4302964,-0.4473917,1.629187,0.2312768,-0.06620288,1.771939,0.2217986,-0.3885027,1.752061,0.05867476,0.1222569,1.763295,0.1351661,-0.3799246,1.721854,0.02424458,-0.1370665,1.767387,0.4323275,-0.139805,1.744661,NA,NA,NotTracked,NotTracked,
0.9169922,-0.3613281,0.1259766,0.8886719,0.6333008,0.4584961,-2,0,-3,-2,-1,0,-2,0,-63,0,-5,1,1,6,-3,-8,1.6875,1.6875,1.6875,-34.5,-34.5,-34.5,3.067751,3.136475,6.906317,6.588574,3.39445,4.395844,0.0398639,-0.4227518,1.666888,0.3774893,-0.4206517,1.598799,0.2519071,0.3981968,1.775862,-0.002198878,-0.434492,1.684818,0.4298508,-0.4412882,1.572579,0.2312344,-0.06622624,1.771909,0.2216747,-0.3885821,1.751963,0.05871444,0.1221721,1.763293,0.1349806,-0.3798424,1.72166,0.0243146,-0.1370918,1.767399,0.4338882,-0.1391042,1.746118,NA,NA,NotTracked,NotTracked,
0.9194336,-0.3720703,0.1484375,0.7294922,0.5717773,0.449707,-3,-2,-1,-1,-1,0,-1,-1,14,-3,3,0,0,-1,2,1,-4.5625,-4.5625,-4.5625,-0.25,-0.25,-0.25,3.070607,3.133211,6.901784,6.561334,3.607682,4.395885,0.03993168,-0.4230509,1.668611,0.3637404,-0.3745772,1.557406,0.2518021,0.3982656,1.776043,-0.004826021,-0.4557711,1.69225,0.3651756,-0.3543647,1.50458,0.2307827,-0.06619936,1.772043,0.2200252,-0.3884091,1.752092,0.05865628,0.122038,1.763435,0.1332256,-0.379347,1.721693,0.02439851,-0.1375446,1.767475,0.4387522,-0.1352739,1.748913,NA,NA,NotTracked,Unknown,
0.9086914,-0.3676758,0.1381836,0.5878906,0.5712891,0.4223633,0,-3,-3,-3,-3,-2,-2,-1,1,-7,-5,-1,-6,-21,-53,-17,-4.9375,-4.9375,-4.9375,17.75,17.75,17.75,3.071138,3.135084,6.888636,6.578874,3.810513,4.39502,0.04030698,-0.4225668,1.667008,0.337559,-0.3516251,1.57418,0.2517898,0.3982577,1.776059,-0.003665794,-0.4391528,1.689834,0.3774634,-0.3204387,1.498791,0.2304955,-0.06618572,1.772128,0.2191524,-0.3884122,1.752214,0.0586659,0.1220222,1.763475,0.1324833,-0.3792946,1.721737,0.0243462,-0.1376402,1.767448,0.441633,-0.1252969,1.751303,NA,NA,NotTracked,Unknown,
0.9267578,-0.34375,0.1274414,0.550293,0.5371094,0.3691406,-3,9,0,0,-1,-2,-1,-2,9,1,0,0,11,-6,13,-5,-2.5,-2.5,-2.5,25.125,25.125,25.125,3.072608,3.134872,6.881418,6.612741,3.990825,4.416737,0.04095691,-0.4227711,1.666816,0.3298925,-0.3093151,1.539248,0.251708,0.3982988,1.77611,-0.00167086,-0.4384306,1.684846,0.3599094,-0.2946527,1.466108,0.2301858,-0.06606963,1.772197,0.2184799,-0.3882295,1.752275,0.05872234,0.1219682,1.763365,0.1319678,-0.3790531,1.721772,0.02433887,-0.1374767,1.767103,0.4420954,-0.118326,1.749604,NA,NA,NotTracked,Unknown,
0.9306641,-0.3549805,0.1210938,0.503418,0.6601563,0.3847656,-1,-4,-6,0,-1,1,-1,-1,2,4,3,-1,-2,-14,-6,-21,2.6875,2.6875,2.6875,39.875,39.875,39.875,3.072761,3.134571,6.880147,6.671595,4.047221,4.428427,0.04106385,-0.4215249,1.665103,0.3278543,-0.2963953,1.51347,0.2515403,0.3983181,1.776191,-0.001361398,-0.4276146,1.6786,0.3462309,-0.2884917,1.453029,0.2297377,-0.06598144,1.772102,0.2178691,-0.3881121,1.752012,0.05868024,0.1218814,1.763233,0.1313758,-0.3789392,1.721666,0.0244847,-0.1371949,1.766867,0.4409114,-0.1147397,1.746058,NA,NA,NotTracked,Unknown,
0.9228516,-0.3515625,0.1235352,0.5839844,0.6186523,0.3681641,1,6,1,-1,0,-2,-2,-1,-7,-11,-4,-2,-10,11,19,-1,6.0625,6.0625,6.0625,27.0625,27.0625,27.0625,3.074244,3.134949,6.885111,6.725194,4.035655,4.447932,0.0408029,-0.4223608,1.666757,0.3145262,-0.3099481,1.504719,0.2513418,0.3983395,1.77639,-0.002205722,-0.4235863,1.684546,0.3413401,-0.3058646,1.45634,0.2291732,-0.0659029,1.772045,0.2169975,-0.3880863,1.751843,0.05860875,0.1218255,1.763323,0.1304788,-0.3786439,1.721655,0.02445007,-0.1371898,1.766823,0.4391553,-0.1108178,1.741652,NA,NA,NotTracked,Unknown,
0.9238281,-0.3740234,0.1455078,0.8007813,0.5698242,0.3774414,-3,-3,1,-3,-3,1,-1,-2,-4,-13,-10,-6,-24,-20,2,8,3.6875,3.6875,3.6875,-11.375,-11.375,-11.375,3.07634,3.135453,6.892545,6.718957,3.956007,4.464244,0.04048571,-0.4227054,1.666738,0.312402,-0.3332061,1.51683,0.2509986,0.3985018,1.776765,-0.002609917,-0.4359628,1.685618,0.3420585,-0.3219918,1.472554,0.2284263,-0.06584249,1.772017,0.2148209,-0.3880221,1.751722,0.05854585,0.1216962,1.763384,0.1279304,-0.3778704,1.721647,0.02452593,-0.1373168,1.766813,0.4363525,-0.1090786,1.73625,NA,NA,NotTracked,Unknown,
0.9204102,-0.3647461,0.1425781,0.6953125,0.7832031,0.3515625,-1,3,-2,-2,-2,-2,-2,-3,-11,1,1,-5,0,-19,-15,-3,6.4375,6.4375,6.4375,8.5625,8.5625,8.5625,3.077362,3.138847,6.898384,6.724492,3.905365,4.479893,0.04068037,-0.4222916,1.666862,0.3124386,-0.3438643,1.528956,0.2507217,0.3986484,1.777295,-0.001727246,-0.437846,1.681193,0.300106,-0.3329915,1.456244,0.2275415,-0.06576054,1.771992,0.2127663,-0.3878548,1.751696,0.05850646,0.121701,1.763557,0.1257668,-0.377035,1.721821,0.02438484,-0.1371064,1.766998,0.4345622,-0.1092766,1.732983,NA,NA,NotTracked,Unknown,
0.9077148,-0.3574219,0.1323242,0.6142578,0.6499023,0.3945313,-2,1,0,-2,-3,-1,-2,-2,9,6,4,2,-5,-12,6,-4,7.3125,7.3125,7.3125,-4.625,-4.625,-4.625,3.086255,3.140043,6.910521,6.699894,3.893366,4.487429,0.03978854,-0.4223101,1.668308,0.3116367,-0.348229,1.536279,0.2503064,0.3986413,1.777527,-0.00211458,-0.4336293,1.683161,0.2985879,-0.3414966,1.460536,0.2270383,-0.06575845,1.771798,0.2120626,-0.3878231,1.751398,0.05842624,0.1216639,1.763652,0.1250235,-0.3768173,1.721702,0.0243478,-0.1379614,1.767314,0.4339288,-0.1091599,1.732054,NA,NA,NotTracked,Unknown,
0.9165039,-0.4077148,0.1474609,0.5986328,0.6855469,0.3696289,-2,-5,-2,0,0,1,-2,0,8,7,2,0,1,3,6,15,0.125,0.125,0.125,-13.1875,-13.1875,-13.1875,3.079403,3.138407,6.921719,6.701149,3.90407,4.481617,0.03979998,-0.4373358,1.66696,0.3101471,-0.3469931,1.543276,0.250094,0.3986586,1.777855,-0.004716928,-0.4508587,1.693455,0.2995555,-0.3393006,1.462043,0.2265057,-0.06579097,1.771718,0.2109322,-0.3877817,1.751517,0.05820866,0.1216721,1.764118,0.1238121,-0.3765157,1.722118,0.02430634,-0.1380532,1.767641,0.4337464,-0.1090272,1.731885,NA,NA,NotTracked,Unknown,
0.9091797,-0.4013672,0.1625977,0.6870117,0.6987305,0.3632813,0,-2,-3,-1,-1,-2,-1,-2,56,2,-1,2,1,4,3,-2,-6.3125,-6.3125,-6.3125,-17.375,-17.375,-17.375,3.075596,3.142405,6.917673,6.692536,3.912457,4.462826,0.03917254,-0.4302444,1.667618,0.310887,-0.3466246,1.541248,0.2499524,0.3986716,1.778012,-0.004146542,-0.4365021,1.6972,0.2896267,-0.4049546,1.585572,0.2262197,-0.06574772,1.77167,0.2105284,-0.3877853,1.751452,0.05817642,0.1216643,1.764203,0.1234708,-0.3763896,1.722129,0.02434548,-0.1381802,1.767935,0.4335543,-0.1089809,1.73169,NA,NA,NotTracked,Unknown,
0.9208984,-0.3413086,0.1289063,0.7412109,0.671875,0.4272461,-3,-1,1,-3,-1,-2,1,-2,-74,-46,-23,-3,-5,-16,-24,-59,-3.75,-3.75,-3.75,-5.25,-5.25,-5.25,3.081268,3.147048,6.902181,6.671494,3.943449,4.451949,0.03957249,-0.4263475,1.666656,0.3123126,-0.3389418,1.527868,0.2496908,0.3986889,1.778284,-0.005969286,-0.458125,1.6926,0.3016683,-0.4105976,1.584,0.226184,-0.06573525,1.771655,0.2105755,-0.387707,1.751331,0.05808864,0.1216827,1.764295,0.1234538,-0.3763202,1.722013,0.02432649,-0.1378348,1.767939,0.433532,-0.1088581,1.731737,NA,NA,NotTracked,Unknown,
0.9287109,-0.3413086,0.1176758,0.637207,0.7441406,0.4360352,-2,-2,-2,-1,-1,0,-4,-2,-34,-10,-5,0,-10,8,-16,-36,0.1875,0.1875,0.1875,-12.6875,-12.6875,-12.6875,3.079398,3.145489,6.899986,6.665586,4.038197,4.429958,0.03979661,-0.4258844,1.6661,0.3142399,-0.3093948,1.495066,0.249592,0.3986934,1.778324,-0.0006611868,-0.4423465,1.675462,0.2695699,-0.3362827,1.486917,0.2261484,-0.06569962,1.771668,0.2105609,-0.3876733,1.751354,0.05805314,0.1217969,1.764336,0.1234691,-0.3763176,1.722027,0.02431526,-0.1378455,1.767942,0.4338065,-0.1087021,1.732146,NA,NA,NotTracked,Unknown,
0.9130859,-0.3598633,0.1259766,0.3212891,0.9042969,0.4697266,-3,-4,-4,-1,-1,-2,-3,1,31,41,21,6,10,12,22,39,3.3125,3.3125,3.3125,-28.3125,-28.3125,-28.3125,3.07764,3.140949,6.906938,6.668736,4.251482,4.384521,0.03915784,-0.4261962,1.667428,0.3212911,-0.261779,1.468242,0.2494951,0.3986652,1.778498,-0.005706063,-0.4448675,1.693663,0.2707173,-0.2873073,1.479,0.2261153,-0.06564529,1.771649,0.2108398,-0.3875108,1.751324,0.05801388,0.1218026,1.764349,0.1238215,-0.3763879,1.721964,0.02421136,-0.1384685,1.767852,0.435619,-0.1081372,1.734766,NA,NA,NotTracked,Unknown,
0.9023438,-0.3886719,0.1499023,0.3222656,0.7514648,0.434082,-2,-1,4,-1,-2,-2,-6,-2,26,-10,-25,-16,-1,-10,-4,5,-2.5,-2.5,-2.5,14.125,14.125,14.125,3.072656,3.13952,6.910941,6.677517,4.401258,4.361445,0.03932323,-0.4264543,1.667644,0.3237322,-0.2108898,1.451565,0.2494645,0.3985367,1.778594,-0.005836501,-0.446141,1.696213,0.2735959,-0.2328625,1.463885,0.2262219,-0.0655752,1.771623,0.2117732,-0.3871479,1.751363,0.05799704,0.1218356,1.764353,0.1249926,-0.3765407,1.722056,0.02419536,-0.1385363,1.7679,0.4384635,-0.1071956,1.73774,NA,NA,NotTracked,Unknown,
0.918457,-0.3793945,0.1474609,0.1787109,0.7666016,0.5166016,-1,-11,-4,0,-2,0,2,1,115,30,-3,0,1,8,-9,38,-1.875,-1.875,-1.875,-3.25,-3.25,-3.25,3.073904,3.142926,6.906324,6.680201,4.611015,4.353142,0.03978803,-0.4268508,1.667477,0.3273297,-0.1700402,1.483538,0.2493547,0.398564,1.778685,-0.004796546,-0.4463452,1.691424,0.2722903,-0.1813554,1.501111,0.2264791,-0.0654809,1.771741,0.2129158,-0.3869344,1.751812,0.05801021,0.1218834,1.764377,0.1263203,-0.3768734,1.722467,0.02413894,-0.1382383,1.76792,0.4915208,-0.1146084,1.730072,NA,NA,NotTracked,Unknown,
0.9213867,-0.3486328,0.1293945,0.1469727,0.7758789,0.4633789,-1,5,-1,-2,-2,0,0,-1,-4,-11,-7,-9,11,9,-19,-30,-1.375,-1.375,-1.375,-1.8125,-1.8125,-1.8125,3.079823,3.143411,6.894794,6.68009,4.732506,4.355687,0.04002687,-0.4265606,1.667462,0.3295469,-0.1294701,1.486795,0.2491855,0.3985617,1.778765,-0.003152472,-0.4392281,1.688524,0.2684951,-0.1423703,1.509667,0.2266286,-0.06532192,1.771894,0.2138246,-0.3866076,1.752152,0.05795916,0.12191,1.764403,0.1273074,-0.376966,1.722888,0.0239829,-0.1379852,1.767871,0.4617352,-0.1024478,1.729794,NA,NA,NotTracked,Unknown,
0.9238281,-0.3706055,0.1376953,-0.02539063,0.75,0.3984375,1,2,-3,-1,0,0,1,-3,39,9,9,9,-4,-2,23,13,0.5625,0.5625,0.5625,3,3,3,3.080653,3.139715,6.890326,6.682189,4.81976,4.348354,0.03980016,-0.4256963,1.667899,0.330028,-0.1079956,1.487118,0.2489683,0.3985735,1.778881,-0.003308511,-0.4193802,1.687053,0.2665646,-0.1195302,1.491,0.226701,-0.06528666,1.771932,0.2142694,-0.3864658,1.75235,0.05790197,0.1218206,1.764419,0.1279298,-0.3770845,1.723259,0.02391523,-0.137313,1.767904,0.4611644,-0.1028747,1.721145,NA,NA,NotTracked,Open,
0.9208984,-0.3710938,0.1401367,0.2714844,0.8759766,0.4785156,-3,-2,2,-2,1,-2,6,0,92,-16,-15,33,13,8,-9,22,-0.75,-0.75,-0.75,-0.625,-0.625,-0.625,3.083233,3.13973,6.889709,6.686677,4.792288,4.326888,0.04059631,-0.4222127,1.666946,0.3288572,-0.1121194,1.482049,0.2487384,0.398524,1.778943,-0.002176864,-0.4356807,1.685524,0.2773116,-0.1295994,1.492751,0.2268154,-0.06522746,1.771971,0.2146496,-0.3863351,1.75249,0.05786818,0.1217629,1.764479,0.1284148,-0.3771563,1.723493,0.02392092,-0.1370716,1.767986,0.4598269,-0.1031143,1.715544,NA,NA,NotTracked,Unknown,
0.9311523,-0.3686523,0.1416016,0.2329102,0.9160156,0.5595703,0,-6,-4,0,-2,-1,-2,-2,11,-2,-10,1,-8,-6,-4,-10,0.5625,0.5625,0.5625,3.3125,3.3125,3.3125,3.082182,3.142692,6.890754,6.678104,4.766994,4.318335,0.04135346,-0.4224641,1.666587,0.3291591,-0.1191305,1.477688,0.2485276,0.3985246,1.778914,-0.001562409,-0.4380158,1.680658,0.2752609,-0.1357057,1.488,0.2268827,-0.06520659,1.772022,0.2149602,-0.3863522,1.752619,0.05782699,0.1216969,1.764473,0.128794,-0.3773633,1.723654,0.02392414,-0.1372067,1.767967,0.4588361,-0.1033992,1.714398,NA,NA,NotTracked,Unknown,
0.9238281,-0.3520508,0.125,0.105957,0.8154297,0.5058594,-1,-3,-2,1,-1,3,3,0,18,-15,-12,-2,-20,4,-7,17,5.0625,5.0625,5.0625,-9.3125,-9.3125,-9.3125,3.080567,3.144991,6.897414,6.671679,4.771199,4.325736,0.04088503,-0.4227297,1.666523,0.3286848,-0.1195234,1.478619,0.248358,0.3985482,1.778913,-0.005977546,-0.4610756,1.695,0.3757313,-0.1044532,1.421917,0.2270185,-0.06518447,1.771993,0.2151507,-0.3862682,1.752609,0.05775997,0.1215949,1.764552,0.1289439,-0.3773439,1.723653,0.02384315,-0.1370691,1.767975,0.4585232,-0.1034923,1.714529,NA,NA,NotTracked,Unknown,
0.9072266,-0.3896484,0.1459961,0.1201172,0.8535156,0.4926758,-2,-3,-4,-1,-1,-1,3,-1,-84,-20,-1,5,-1,-11,-11,-23,0.25,0.25,0.25,-6.25,-6.25,-6.25,3.074147,3.141106,6.908887,6.668261,4.772664,4.329542,0.04009957,-0.4225751,1.667585,0.3268665,-0.1209336,1.4788,0.2482005,0.3984085,1.778652,-0.003412271,-0.4303576,1.687111,0.3790594,-0.1025503,1.417797,0.2270515,-0.06519275,1.771951,0.2153172,-0.3862868,1.752553,0.05768316,0.121582,1.764609,0.1291157,-0.3774588,1.723599,0.02381107,-0.136926,1.768018,0.4586202,-0.1035796,1.714631,NA,NA,NotTracked,Unknown,
0.9140625,-0.3842773,0.1547852,0.1621094,0.875,0.4882813,-1,-5,-1,1,-1,0,-2,-1,-19,0,-2,-11,-14,5,-15,-18,-1,-1,-1,-0.4375,-0.4375,-0.4375,3.071975,3.141051,6.912181,6.668782,4.770131,4.327952,0.04006655,-0.4227326,1.668716,0.327886,-0.1196548,1.477422,0.2481129,0.3983636,1.778608,-0.004594494,-0.4401201,1.687329,0.3641688,-0.09805875,1.4145,0.2270699,-0.06518884,1.771986,0.2154278,-0.3862875,1.752608,0.05756345,0.1215208,1.764782,0.129261,-0.3775223,1.723705,0.02362217,-0.1370399,1.768132,0.4581129,-0.1037661,1.715146,NA,NA,NotTracked,Unknown,
0.9165039,-0.3681641,0.140625,0.1459961,0.8603516,0.4926758,-2,-3,-1,-3,-2,1,-1,0,3,8,2,2,-5,-4,-10,-3,-2.5,-2.5,-2.5,-2.5,-2.5,-2.5,3.07468,3.14249,6.906389,6.664266,4.759412,4.327549,0.03983439,-0.4216481,1.667863,0.3267853,-0.1242263,1.476226,0.2480685,0.3983445,1.778607,-0.003067522,-0.4338742,1.685556,0.3752154,-0.1126639,1.424818,0.2270561,-0.06519193,1.771987,0.2154618,-0.3862712,1.752623,0.05752119,0.1215131,1.764817,0.1293006,-0.3775356,1.72372,0.02335384,-0.1371037,1.768016,0.4572734,-0.1040388,1.716437,NA,NA,NotTracked,Unknown,
0.9135742,-0.3583984,0.1337891,0.07617188,0.7636719,0.4321289,-4,1,-4,-1,-3,0,2,-2,12,-1,-1,-2,-2,-1,4,6,-2.625,-2.625,-2.625,-6.875,-6.875,-6.875,3.077167,3.14141,6.898015,6.649856,4.704523,4.316137,0.0399251,-0.4186757,1.668228,0.3266697,-0.1354065,1.472498,0.248029,0.3982983,1.778507,-0.003628488,-0.4357364,1.687996,0.3737004,-0.130998,1.423231,0.2270619,-0.06517907,1.771925,0.2155407,-0.3862551,1.752571,0.05743582,0.1215674,1.764758,0.1293522,-0.3775611,1.723583,0.02330467,-0.1370697,1.767932,0.4566612,-0.1041141,1.72474,NA,NA,NotTracked,Unknown,
0.9155273,-0.3598633,0.1420898,0.2382813,0.746582,0.4321289,0,1,-6,-2,-2,-1,1,-1,-5,-5,-5,2,-3,-5,0,-1,-0.75,-0.75,-0.75,-20.875,-20.875,-20.875,3.078362,3.140025,6.89528,6.641606,4.579392,4.292756,0.04018841,-0.4180673,1.668063,0.3120525,-0.1576246,1.427965,0.2479736,0.3983019,1.77846,-0.0009811351,-0.4351751,1.674667,0.345943,-0.1559792,1.3921,0.2271343,-0.06519708,1.771911,0.2157239,-0.3863254,1.752617,0.05740861,0.1215415,1.764688,0.1295192,-0.3777165,1.723591,0.02321992,-0.137073,1.767843,0.4525726,-0.1045099,1.733921,NA,NA,NotTracked,Unknown,
0.9316406,-0.3789063,0.1376953,0.3701172,0.7446289,0.4238281,-1,-5,-1,0,0,-1,-1,-2,-2,-13,-16,-2,1,4,-5,-1,-0.3125,-0.3125,-0.3125,-6.5625,-6.5625,-6.5625,3.078739,3.140511,6.892518,6.639122,4.393868,4.254915,0.04131256,-0.4447208,1.664054,0.3315558,-0.2233083,1.437008,0.2477793,0.3983282,1.778468,-0.003176962,-0.445585,1.68508,0.3669324,-0.2320774,1.404459,0.2271635,-0.0652072,1.771875,0.2157887,-0.3863357,1.752568,0.05725202,0.1214033,1.764804,0.1296046,-0.3777888,1.723541,0.02320892,-0.1375447,1.767603,0.4631932,-0.1135717,1.72742,NA,NA,NotTracked,Unknown,
0.9223633,-0.3613281,0.1308594,0.4858398,0.6640625,0.4931641,-1,-1,-3,0,0,-2,-3,-2,-4,-4,-2,-2,-27,-14,5,-4,0.25,0.25,0.25,-37.75,-37.75,-37.75,3.077585,3.142612,6.892125,6.620677,4.103056,4.208353,0.04007963,-0.4337088,1.665794,0.338565,-0.2993072,1.462935,0.2475121,0.3983282,1.778483,-0.005970115,-0.4581803,1.692833,0.3490259,-0.2677406,1.426064,0.2267774,-0.06528191,1.771841,0.2147943,-0.3866295,1.752215,0.05708942,0.1211898,1.76491,0.1283662,-0.3779248,1.723092,0.02319235,-0.1377993,1.76764,0.4496807,-0.1122131,1.731327,NA,NA,NotTracked,Unknown,
0.9130859,-0.3564453,0.1333008,0.7026367,0.5786133,0.4282227,-3,-4,-1,-2,-2,1,-1,0,-14,-1,-2,2,-2,-5,-2,1,1.25,1.25,1.25,-2.125,-2.125,-2.125,3.076483,3.141484,6.896594,6.629524,3.855738,4.157152,0.03962553,-0.4262397,1.666719,0.3474332,-0.3611688,1.494855,0.2472701,0.3983797,1.778532,-0.005446864,-0.448777,1.692928,0.3723783,-0.3701016,1.463102,0.2263199,-0.06539817,1.771726,0.2135391,-0.3871131,1.751847,0.05705811,0.1209957,1.764853,0.1269494,-0.3779325,1.722515,0.02314115,-0.1377569,1.767649,0.4436878,-0.1158307,1.732915,NA,NA,NotTracked,Unknown,
0.9208984,-0.371582,0.1508789,0.9399414,0.5395508,0.4067383,-1,-3,0,-1,1,-1,0,-1,-3,-3,-1,0,8,-19,-4,-7,2.25,2.25,2.25,10.3125,10.3125,10.3125,3.078662,3.141565,6.898623,6.671566,3.611476,4.120799,0.03975877,-0.4225862,1.668097,0.3629205,-0.4142852,1.537596,0.2470218,0.3983129,1.778613,-0.004139938,-0.4381114,1.691936,0.3881783,-0.4183471,1.510032,0.2263772,-0.06551221,1.771675,0.213836,-0.3874622,1.751678,0.0570414,0.1209496,1.764855,0.1272059,-0.378053,1.722337,0.02317988,-0.1377946,1.767648,0.438916,-0.1261909,1.730354,NA,NA,NotTracked,Unknown,
0.9160156,-0.3666992,0.1333008,0.9472656,0.4091797,0.3549805,-2,5,-4,-2,-1,-2,-3,-3,25,-1,-3,-3,-15,12,0,6,2.125,2.125,2.125,44.875,44.875,44.875,3.079199,3.142995,6.902992,6.698075,3.414383,4.122143,0.03953866,-0.4229304,1.668366,0.3773004,-0.4414084,1.581041,0.2468395,0.3983352,1.778635,-0.005986947,-0.4511755,1.6974,0.4200884,-0.4514903,1.576059,0.2268355,-0.06585552,1.7715,0.2154627,-0.3883524,1.751424,0.05695738,0.1208418,1.764935,0.1289202,-0.3790075,1.721862,0.02337079,-0.1379158,1.767856,0.4363104,-0.1333286,1.728996,NA,NA,NotTracked,Unknown,
0.9101563,-0.362793,0.1289063,0.9726563,0.362793,0.1708984,-3,-1,-3,-2,-4,-2,1,-1,2,-4,0,-1,1,-22,-1,-2,1.375,1.375,1.375,12.5,12.5,12.5,3.077691,3.141968,6.907866,6.78908,3.219346,4.089193,0.03940036,-0.4232039,1.669516,0.3813818,-0.4560303,1.61414,0.2467765,0.3983674,1.77871,-0.004378263,-0.4427837,1.691482,0.4229025,-0.4576622,1.601667,0.2274525,-0.06611601,1.771367,0.2172115,-0.3889523,1.751376,0.05691607,0.1207979,1.765021,0.1307183,-0.3796929,1.721718,0.02374558,-0.1386708,1.768196,0.4331613,-0.1387577,1.730042,NA,NA,NotTracked,Unknown,
0.9082031,-0.3793945,0.1430664,0.9892578,0.2988281,0.1318359,0,-4,-2,0,-1,-3,-2,-1,5,3,2,1,-8,3,5,8,-0.625,-0.625,-0.625,60.0625,60.0625,60.0625,3.07716,3.141742,6.908959,6.812325,3.118754,4.152365,0.03972782,-0.422732,1.668552,0.3861984,-0.4296627,1.640807,0.2467685,0.3983936,1.778698,-0.001619146,-0.435244,1.681263,0.4254405,-0.4541626,1.640167,0.2278119,-0.06620814,1.771317,0.218017,-0.3890347,1.751448,0.0569466,0.1208093,1.76504,0.1315803,-0.3798762,1.721811,0.02377003,-0.1389398,1.76835,0.4324719,-0.1401161,1.731644,NA,NA,NotTracked,NotTracked,
0.9140625,-0.3652344,0.1420898,0.7446289,0.6630859,0.01855469,-1,3,1,0,-2,-1,-1,0,3,2,0,-2,3,-2,-3,1,-3.0625,-3.0625,-3.0625,-6.25,-6.25,-6.25,3.076859,3.142265,6.904351,6.817402,3.138935,4.186028,0.03940789,-0.4218422,1.668365,0.3814042,-0.4440107,1.642381,0.2467871,0.3982966,1.778473,-0.002178862,-0.4283506,1.683294,0.4169491,-0.4500509,1.6405,0.2281246,-0.06635947,1.77114,0.2183697,-0.3891148,1.751467,0.05705141,0.1206916,1.76489,0.1320067,-0.3800904,1.721893,0.02372167,-0.1388814,1.768234,0.4320725,-0.1405295,1.734852,NA,NA,NotTracked,NotTracked,
0.9233398,-0.3583984,0.1308594,0.887207,0.1547852,0.2402344,-4,-2,-3,-1,-1,-2,-2,0,4,1,0,1,-19,-13,4,2,-6.75,-6.75,-6.75,2.5625,2.5625,2.5625,3.076952,3.139742,6.896691,6.794148,3.14145,4.179275,0.03959801,-0.4216599,1.667662,0.3824394,-0.4432233,1.642285,0.2468241,0.3982269,1.778173,-0.002872577,-0.4373264,1.685122,0.4234871,-0.45687,1.649833,0.2283484,-0.0664341,1.771023,0.2187153,-0.3891213,1.751435,0.0571178,0.1206157,1.764771,0.1323688,-0.3801897,1.721888,0.02404241,-0.139839,1.767871,0.4319513,-0.1407469,1.737422,NA,NA,NotTracked,NotTracked,
0.9345703,-0.3789063,0.1357422,0.9379883,0.2963867,0.168457,-2,-3,0,0,-1,0,-1,-1,-4,-2,-2,1,-5,-8,-1,-5,-7.75,-7.75,-7.75,13.75,13.75,13.75,3.069287,3.134547,6.888945,6.812233,3.139298,4.192225,0.04002768,-0.422306,1.668205,0.3850598,-0.4307012,1.644774,0.2468606,0.3980684,1.777747,-0.0006085319,-0.4258505,1.680444,0.421919,-0.4625588,1.648714,0.2285573,-0.06655613,1.770935,0.2190502,-0.3891659,1.7515,0.05711895,0.1205291,1.76467,0.1327101,-0.380292,1.721939,0.02423031,-0.13939,1.767778,0.4318933,-0.1414339,1.738375,NA,NA,NotTracked,NotTracked,
0.9179688,-0.3369141,0.1362305,0.9150391,0.3442383,0.1191406,-2,-5,-2,-2,0,-1,-1,-1,1,2,0,-1,-10,-26,1,2,0.9375,0.9375,0.9375,-7.9375,-7.9375,-7.9375,3.074813,3.134675,6.877111,6.815856,3.132684,4.193624,0.04008192,-0.4222509,1.667645,0.3825877,-0.4430738,1.642101,0.2469158,0.3979843,1.777416,-0.000229541,-0.4434378,1.679083,0.4155667,-0.4555277,1.638,0.2287282,-0.06663429,1.770918,0.2193267,-0.3892139,1.751595,0.05715209,0.1204715,1.76463,0.1329405,-0.3804013,1.72202,0.02423779,-0.1394854,1.767632,0.4318416,-0.1414522,1.738847,NA,NA,NotTracked,NotTracked,
0.921875,-0.3432617,0.1303711,0.8916016,0.3466797,0.1699219,-2,-5,0,-1,0,-1,1,0,-3,0,-1,-2,1,-4,1,-1,4.3125,4.3125,4.3125,6.1875,6.1875,6.1875,3.081323,3.133466,6.877195,6.813923,3.129289,4.19662,0.04019808,-0.4227184,1.668652,0.3834588,-0.4437759,1.643539,0.246966,0.3979705,1.77739,-0.0005383649,-0.4403384,1.680273,0.4226576,-0.4551338,1.648,0.2289261,-0.06667048,1.770984,0.2197691,-0.3892164,1.751816,0.05712432,0.1204568,1.764642,0.1333622,-0.3805269,1.722267,0.02416728,-0.1390004,1.767665,0.4317505,-0.1413989,1.739527,NA,NA,NotTracked,NotTracked,
