ALX,ALY,ALZ,ARX,ARY,ARZ,EMG0L,EMG1L,EMG2L,EMG3L,EMG4L,EMG5L,EMG6L,EMG7L,EMG0R,EMG1R,EMG2R,EMG3R,EMG4R,EMG5R,EMG6R,EMG7R,GLX,GLY,GLZ,GRX,GRY,GRZ,ORL,OPL,OYL,ORR,OPR,OYR,LHNX,LHNY,LHNZ,RHNX,RHNY,RHNZ,HX,HY,HZ,LTX,LTY,LTZ,RTX,RTY,RTZ,SpineMidX,SpineMidY,SpineMidZ,SpineBaseX,SpineBaseY,SpineBaseZ,ShoulderLeftX,ShoulderLeftY,ShoulderLeftZ,ShoulderRightX,ShoulderRightY,ShoulderRightZ,ElbowLeftX,ElbowLeftY,ElbowLeftZ,ElbowRightX,ElbowRightY,ElbowRightZ,Myo_Pose_left,Myo_Pose_Right,Kinect_pose_left,Kinect_pose_right
0.9125977,-0.3583984,0.1450195,0.8574219,0.5375977,0.3544922,-1,-2,-2,-2,-1,0,-1,-4,2,-10,-10,-4,2,0,-1,-1,-2.0625,-2.0625,-2.0625,-19.5625,-19.5625,-19.5625,3.097407,3.131978,2.835143,6.47785,3.551082,0.1983626,0.01922641,-0.4379331,1.601236,0.3490682,-0.390144,1.506973,0.2285955,0.3970532,1.716578,0.06462569,-0.4179653,1.5786,0.3572364,-0.3757441,1.462046,0.2163929,-0.06859738,1.707779,0.2095084,-0.3921588,1.688921,0.04167907,0.11536,1.700795,0.1211814,-0.3836756,1.65855,0.005249808,-0.1493352,1.704752,0.4240359,-0.134619,1.686374,NA,NA,NotTracked,Unknown,
0.9306641,-0.3701172,0.1376953,0.7143555,0.6787109,0.4609375,1,-1,-2,-3,-1,-2,-1,1,-3,-4,-16,-6,4,-4,-2,-1,-0.6875,-0.6875,-0.6875,-11.875,-11.875,-11.875,3.095399,3.131032,2.832785,6.471299,3.769161,0.1715154,0.02033573,-0.4402388,1.600433,0.3433774,-0.3602166,1.478743,0.2283989,0.3970657,1.716384,0.06325875,-0.428919,1.576,0.3589045,-0.3621435,1.426296,0.2160316,-0.06864249,1.70759,0.2088024,-0.392338,1.688755,0.04154667,0.1153751,1.700117,0.120436,-0.3836185,1.658379,0.005039089,-0.1487087,1.704475,0.4246546,-0.132226,1.687436,NA,NA,NotTracked,Unknown,
0.9213867,-0.3505859,0.1401367,0.5839844,0.6806641,0.5244141,-1,-3,-2,0,-1,0,1,-1,-13,19,10,0,9,2,-1,3,-7.125,-7.125,-7.125,-16.5,-16.5,-16.5,3.097922,3.129416,2.825393,6.463115,3.97468,0.1417532,0.02038005,-0.4432875,1.598515,0.3269953,-0.3308002,1.469911,0.2283389,0.397037,1.716295,0.0628303,-0.4345355,1.574701,0.3550942,-0.2834768,1.455075,0.21593,-0.06864405,1.707486,0.2083179,-0.3923776,1.68874,0.04148453,0.1153333,1.700082,0.1199517,-0.3835003,1.658295,0.004835382,-0.1482411,1.704264,0.4255653,-0.1279124,1.689283,NA,NA,NotTracked,Unknown,
0.9213867,-0.3515625,0.1401367,0.5952148,0.7226563,0.5571289,-1,-4,-4,-2,-3,-3,-2,-3,-1,8,18,7,10,-2,0,-4,-1.1875,-1.1875,-1.1875,-11.125,-11.125,-11.125,3.096395,3.128617,2.819371,6.464569,4.198953,0.106876,0.02046124,-0.445382,1.598843,0.3280852,-0.2751076,1.416783,0.2282762,0.3970419,1.716124,0.06224987,-0.4414721,1.573745,0.3408362,-0.2617233,1.366923,0.2157019,-0.06860756,1.707479,0.207994,-0.3923092,1.688774,0.04147496,0.1153613,1.700074,0.1196874,-0.3833837,1.658259,0.004817524,-0.1482085,1.704257,0.4264327,-0.1199512,1.689798,NA,NA,NotTracked,Unknown,
0.9296875,-0.3500977,0.1411133,0.4321289,0.7773438,0.6328125,0,0,0,-2,-2,-1,-2,-1,8,8,-5,7,14,-5,3,3,-1.3125,-1.3125,-1.3125,-12.6875,-12.6875,-12.6875,3.095274,3.128343,2.817376,6.445159,4.553889,0.06864688,0.02099201,-0.4426308,1.598225,0.325529,-0.2087686,1.387652,0.2281495,0.3969728,1.715862,0.0642857,-0.4242871,1.576479,0.3408889,-0.1952163,1.340952,0.2156942,-0.06859607,1.707411,0.2079765,-0.3922766,1.688758,0.04141544,0.1153247,1.699926,0.1196925,-0.3833773,1.658253,0.004790823,-0.1479233,1.703995,0.4279504,-0.1099076,1.68637,NA,NA,NotTracked,Unknown,
0.9331055,-0.3540039,0.1289063,0.2851563,0.9580078,0.7226563,1,-1,-2,0,0,-1,2,-1,1,-7,-9,-2,13,11,-6,-8,4.3125,4.3125,4.3125,-23.0625,-23.0625,-23.0625,3.098869,3.127859,2.822129,6.42473,4.897163,0.05929986,0.02084856,-0.4420144,1.599278,0.3178393,-0.1234866,1.370231,0.2279852,0.3970406,1.715603,0.06345531,-0.4454321,1.573912,0.345075,-0.1102167,1.353048,0.2157301,-0.06858046,1.707392,0.2080263,-0.3922384,1.688766,0.04125948,0.1153391,1.700017,0.1197859,-0.3834383,1.658302,0.004687604,-0.1474074,1.703943,0.4896652,-0.1086499,1.633587,NA,NA,NotTracked,Closed,
0.9135742,-0.3310547,0.1123047,-0.4345703,0.6855469,0.5136719,-1,-2,-3,-3,-1,-1,-3,-2,-1,-6,-8,0,2,2,-5,3,8.875,8.875,8.875,-56.5625,-56.5625,-56.5625,3.099801,3.12511,2.836152,6.351305,5.31893,0.05871711,0.021937,-0.4452265,1.600346,0.3162047,-0.0135215,1.397974,0.2278637,0.3971173,1.715454,0.06597425,-0.4324477,1.576546,0.3331681,-0.02384409,1.356419,0.2156796,-0.06852894,1.707417,0.2080287,-0.3920631,1.688894,0.04123792,0.1154321,1.700089,0.1198607,-0.3834497,1.658912,0.004406961,-0.1463037,1.704199,0.4322866,-0.09771812,1.617136,NA,NA,NotTracked,Unknown,
0.8955078,-0.3901367,0.1513672,-0.5581055,0.5449219,0.5454102,-1,1,0,-1,-1,0,-3,0,4,4,7,-1,8,-1,-2,-5,-3.875,-3.875,-3.875,-5.6875,-5.6875,-5.6875,3.089605,3.120465,2.846714,6.31098,5.69623,0.088163,0.02038843,-0.4428681,1.604105,0.3258108,0.07321128,1.43614,0.2279096,0.3969817,1.715242,0.06569353,-0.4127007,1.579652,0.3434571,0.08495259,1.391688,0.2156022,-0.06861752,1.707512,0.207909,-0.3922347,1.68928,0.04130287,0.1155254,1.70019,0.1197171,-0.3838265,1.659287,0.004254734,-0.1461411,1.704507,0.4311497,-0.09939793,1.620028,NA,NA,NotTracked,Unknown,
0.9438477,-0.3740234,0.1513672,-0.6494141,0.5791016,0.5527344,-2,-1,-1,-1,-3,-1,-1,-2,-12,-3,-1,-2,1,2,-8,-4,-4,-4,-4,2.6875,2.6875,2.6875,3.088475,3.121748,2.846071,6.372058,6.132681,0.1554911,0.02078978,-0.446416,1.602283,0.3306236,0.1588899,1.465652,0.2277816,0.3969727,1.715015,0.06298903,-0.4625919,1.573522,0.3581692,0.1598775,1.436206,0.2154959,-0.06883612,1.707711,0.2075133,-0.3929417,1.689655,0.04118833,0.1158125,1.700561,0.1190316,-0.3850044,1.660277,0.004569981,-0.1455434,1.705034,0.4432602,-0.09681241,1.590932,NA,NA,NotTracked,Unknown,
0.9194336,-0.3618164,0.1538086,-0.7304688,0.5273438,0.4868164,0,-1,-1,-1,0,-1,-1,-1,-3,2,1,-3,6,-2,-2,-5,0.5625,0.5625,0.5625,12.875,12.875,12.875,3.097513,3.134534,2.832819,6.459768,6.397868,0.2488785,0.02116556,-0.4428619,1.601659,0.3455474,0.1906515,1.496568,0.2276435,0.3968542,1.714912,0.06504736,-0.4312846,1.577879,0.3674905,0.2011281,1.460559,0.2158867,-0.06925785,1.708959,0.2073179,-0.3930129,1.690098,0.04115467,0.1161709,1.701332,0.1184867,-0.38509,1.661222,0.004939536,-0.1428228,1.705971,0.4469151,-0.08961248,1.578086,NA,NA,NotTracked,Unknown,
0.9145508,-0.3486328,0.1303711,-0.7641602,0.4404297,0.3427734,0,-3,-3,-2,-1,-2,0,0,11,19,5,1,9,-2,-1,0,-4.25,-4.25,-4.25,22.6875,22.6875,22.6875,3.10217,3.140253,2.822621,6.642862,6.654338,0.423214,0.02329716,-0.4475552,1.598292,0.3595841,0.1968827,1.512376,0.2276686,0.3968275,1.714762,0.0692822,-0.423396,1.576739,0.2898485,0.2134859,1.5297,0.217389,-0.06904888,1.710734,0.2071663,-0.3919939,1.69052,0.04149862,0.116516,1.701538,0.1180077,-0.3840006,1.661861,0.005488412,-0.1400936,1.705979,0.4493829,-0.08013371,1.562364,NA,NA,NotTracked,Unknown,
0.9189453,-0.3461914,0.1230469,-0.7827148,0.3935547,0.2719727,1,-2,-2,0,-1,-2,-1,-1,2,11,15,18,4,-2,1,13,-0.875,-0.875,-0.875,0.0625,0.0625,0.0625,3.099125,3.140117,2.820887,6.804857,6.764311,0.598881,0.02332091,-0.4447902,1.598764,0.2946439,0.3016005,1.577626,0.2279136,0.396422,1.714317,0.06938517,-0.4212019,1.576885,0.2434763,0.2708726,1.599786,0.218767,-0.06887631,1.712079,0.2071148,-0.3913166,1.690914,0.04242718,0.1167346,1.701587,0.1176462,-0.3831593,1.662491,0.005941044,-0.137957,1.706254,0.4571144,-0.03214062,1.506679,NA,NA,NotTracked,Unknown,
0.9228516,-0.3457031,0.1323242,-0.8383789,0.3793945,0.1884766,1,0,0,-1,0,-1,-1,-1,-19,7,11,4,1,-8,1,-3,1,1,1,11.125,11.125,11.125,3.098034,3.138498,2.822567,6.972756,6.83528,0.7720879,0.02366817,-0.4450814,1.600441,0.2979257,0.2978228,1.581261,0.2282896,0.3956856,1.713503,0.06852916,-0.426805,1.577952,0.2409304,0.2700444,1.596825,0.2197786,-0.06859366,1.713218,0.2071293,-0.39039,1.691561,0.04394897,0.1171284,1.701891,0.1174018,-0.3819984,1.663558,0.00613107,-0.1351375,1.707138,0.4556453,-0.028275,1.505222,NA,NA,NotTracked,NotTracked,
0.9150391,-0.3642578,0.1455078,-0.8657227,0.3623047,0.1254883,-1,0,-1,-1,0,0,0,0,-1,-5,0,13,10,-4,1,3,0.75,0.75,0.75,-0.3125,-0.3125,-0.3125,3.096493,3.136237,2.826917,7.143603,6.875846,0.9584164,0.02332592,-0.4449553,1.601012,0.2880177,0.3165304,1.589998,0.228852,0.3949813,1.712587,0.06888739,-0.4231144,1.578633,0.2424802,0.2696316,1.601336,0.2204812,-0.06787653,1.713478,0.2071414,-0.3898881,1.691964,0.04571376,0.1175232,1.702276,0.1172245,-0.3814628,1.66403,0.00581629,-0.1331763,1.707601,0.4542267,-0.02211729,1.499776,NA,NA,NotTracked,NotTracked,
0.9204102,-0.3706055,0.1489258,-0.8779297,0.3652344,0.07763672,-2,1,0,-1,1,1,-1,-1,-10,-10,-22,-20,-11,2,3,5,1.8125,1.8125,1.8125,-7.125,-7.125,-7.125,3.100964,3.137408,2.83048,7.231321,6.890207,1.060147,0.02306515,-0.4471318,1.602937,0.2851375,0.3224082,1.594683,0.2294886,0.3942508,1.711832,0.06813861,-0.4350068,1.578587,0.2405231,0.2689168,1.598236,0.221125,-0.06779419,1.714199,0.2071597,-0.3894612,1.692399,0.04690802,0.1176673,1.702713,0.1170592,-0.3809966,1.664637,0.005957196,-0.1312676,1.708502,0.4520935,-0.01463078,1.493524,NA,NA,NotTracked,NotTracked,
0.9150391,-0.3745117,0.1401367,-0.8798828,0.4008789,0.04101563,-3,2,-1,-1,-3,-1,-1,-1,8,1,1,-4,2,-1,-5,6,1.5625,1.5625,1.5625,-9.875,-9.875,-9.875,3.102907,3.140859,2.830453,7.287768,6.885571,1.136135,0.02344848,-0.4477333,1.601944,0.2835984,0.3229429,1.595718,0.2305414,0.3931936,1.710599,0.06916505,-0.4148393,1.579613,0.2498571,0.2636064,1.618188,0.2215032,-0.06721759,1.714034,0.2072091,-0.389332,1.692568,0.04764068,0.1178148,1.702989,0.1170388,-0.3808602,1.664751,0.006089101,-0.1305958,1.708923,0.4493651,-0.009763868,1.488669,NA,NA,NotTracked,NotTracked,
0.9140625,-0.3632813,0.144043,-0.8818359,0.418457,0.03613281,-1,-1,-1,-2,-2,0,0,0,-18,4,-1,0,-1,-3,-2,8,-1.5625,-1.5625,-1.5625,-11.125,-11.125,-11.125,3.103735,3.141778,2.830216,7.334213,6.867743,1.207966,0.0240016,-0.449918,1.602582,0.282276,0.3193329,1.595474,0.231149,0.392554,1.709963,0.06880658,-0.4225975,1.579001,0.2357297,0.2631053,1.593464,0.2219759,-0.06686916,1.713894,0.2071973,-0.3893418,1.692758,0.048201,0.1178379,1.703132,0.1169595,-0.3808384,1.664922,0.006198892,-0.1304568,1.709101,0.4471468,-0.005753148,1.484951,NA,NA,NotTracked,NotTracked,
0.921875,-0.3623047,0.1352539,-0.921875,0.4174805,0.03320313,-1,-2,0,-1,0,-2,0,-1,-5,-20,-19,-11,-6,0,-1,-7,1,1,1,0.9375,0.9375,0.9375,3.101552,3.14088,2.831206,7.350984,6.84608,1.242437,0.02445676,-0.4500834,1.601989,0.2793286,0.3195283,1.596104,0.2315245,0.3920301,1.709242,0.07010694,-0.4211791,1.579,0.2566359,0.2653276,1.623294,0.2222269,-0.06654829,1.713702,0.2071461,-0.3893864,1.692845,0.0485233,0.1180727,1.703566,0.1168309,-0.3808178,1.664946,0.006305899,-0.1303811,1.709349,0.4453599,-0.003825112,1.483094,NA,NA,NotTracked,NotTracked,
0.9155273,-0.3632813,0.1420898,-0.8867188,0.4165039,0.03710938,0,-4,-2,1,-3,-1,0,-1,5,4,5,6,7,-2,-5,-18,-0.875,-0.875,-0.875,-0.0625,-0.0625,-0.0625,3.101178,3.140802,2.83141,7.332812,6.837306,1.219205,0.02315419,-0.4485865,1.602877,0.280713,0.3174682,1.59482,0.2317032,0.3917901,1.709095,0.06896317,-0.4171438,1.5802,0.2429164,0.2594201,1.620625,0.2223957,-0.06627958,1.713675,0.2071255,-0.3893849,1.693002,0.04884859,0.1181277,1.703654,0.1167649,-0.3807914,1.665054,0.006449998,-0.1301674,1.709592,0.4446781,-0.002861285,1.482405,NA,NA,NotTracked,NotTracked,
0.9145508,-0.3671875,0.1455078,-0.8735352,0.4199219,0.03759766,-1,0,0,-2,-1,-2,0,-2,6,-3,-3,-1,0,0,0,-1,-0.4375,-0.4375,-0.4375,6,6,6,3.100446,3.140636,2.831407,7.315252,6.82999,1.191266,0.02390337,-0.4504384,1.602155,0.2813753,0.3172002,1.594014,0.2318606,0.3917457,1.708991,0.06987716,-0.4257196,1.578704,0.2396611,0.2607894,1.612459,0.2224104,-0.06619098,1.713721,0.2070556,-0.3894063,1.693214,0.04901071,0.1183074,1.703738,0.1166233,-0.3807709,1.665187,0.006450168,-0.1301406,1.709639,0.4444806,-0.002312565,1.482228,NA,NA,NotTracked,NotTracked,
0.918457,-0.3608398,0.1411133,-0.7929688,0.4331055,0.08447266,0,-2,-1,-2,0,-4,0,0,0,0,0,-2,1,2,5,4,0.3125,0.3125,0.3125,19.125,19.125,19.125,3.100515,3.140467,2.831416,7.178016,6.814806,0.9977918,0.02406372,-0.4507697,1.602002,0.2828018,0.32153,1.592629,0.231792,0.3917586,1.708849,0.06978846,-0.4281768,1.579175,0.2463154,0.2639113,1.6219,0.2225021,-0.06618416,1.713954,0.207008,-0.3892825,1.693421,0.04913729,0.1184398,1.703819,0.1164943,-0.3806581,1.665353,0.006355388,-0.1298478,1.709849,0.4445975,-0.002895053,1.483172,NA,NA,NotTracked,NotTracked,
0.9199219,-0.3588867,0.1445313,-0.8134766,0.3989258,0.1518555,0,-1,1,0,-1,-2,-1,-2,-1,1,4,3,0,0,-2,-1,1.8125,1.8125,1.8125,40.375,40.375,40.375,3.102151,3.141696,2.831469,6.979873,6.769397,0.7229992,0.02297929,-0.4452329,1.601039,0.2822837,0.3226678,1.585643,0.2313897,0.3920034,1.708678,0.06914227,-0.4250449,1.578398,0.2368949,0.266739,1.600813,0.2223096,-0.06599343,1.714086,0.2070081,-0.3891163,1.693535,0.04921355,0.1184271,1.703826,0.1164503,-0.3805128,1.665467,0.006199412,-0.1294196,1.710083,0.4466657,-0.007141473,1.487232,NA,NA,NotTracked,NotTracked,
0.9199219,-0.3496094,0.1367188,-0.9047852,0.3989258,0.1777344,0,0,1,-1,0,-1,-2,0,-5,3,-1,-1,-14,3,8,5,3.5,3.5,3.5,64.25,64.25,64.25,3.107288,3.142382,2.833375,6.732171,6.603315,0.2962803,0.02237576,-0.4462101,1.601803,0.3579488,0.2188755,1.503529,0.2308418,0.3924706,1.709057,0.06918157,-0.4228538,1.579109,0.3315179,0.2074398,1.525429,0.2218436,-0.06586742,1.714172,0.206979,-0.3889891,1.693554,0.04893007,0.11855,1.703951,0.1164277,-0.3804291,1.665411,0.006188494,-0.1294979,1.710047,0.4507899,-0.05985246,1.540767,NA,NA,NotTracked,Unknown,
0.9140625,-0.3642578,0.140625,-0.8183594,0.5029297,0.3461914,-1,0,-1,-2,-1,-1,-1,0,-51,-13,-27,-24,-8,-11,-70,-53,2.375,2.375,2.375,17,17,17,3.108748,3.142612,2.839786,6.606705,6.368425,0.06862079,0.02230431,-0.4455338,1.601521,0.3607945,0.196256,1.464942,0.2303519,0.3929804,1.709718,0.06870726,-0.4265818,1.57781,0.3318472,0.2029321,1.52745,0.2215684,-0.06637847,1.714456,0.2069544,-0.3889651,1.693506,0.04774664,0.1184215,1.70412,0.1164706,-0.3805354,1.665192,0.006007066,-0.1306269,1.709949,0.4511431,-0.06590519,1.550631,NA,NA,NotTracked,Unknown,
0.9238281,-0.3769531,0.159668,-0.7558594,0.4863281,0.5058594,1,-2,0,0,0,-1,-1,-1,6,-1,2,-3,-5,-3,12,32,-0.8125,-0.8125,-0.8125,52.5,52.5,52.5,3.108561,3.142752,2.839707,6.537829,6.17841,9.893766,0.02249297,-0.4458756,1.601048,0.3776328,0.1518857,1.436303,0.2295642,0.3936673,1.710672,0.06942202,-0.4283052,1.577501,0.3923188,0.196543,1.425923,0.2211724,-0.06724788,1.714599,0.2069116,-0.3893333,1.693283,0.04640681,0.1181405,1.704274,0.1166502,-0.3813041,1.664608,0.005647789,-0.1354266,1.70955,0.4404007,-0.0960976,1.613263,NA,NA,NotTracked,Unknown,
0.9248047,-0.3618164,0.1459961,-0.7353516,0.7783203,0.5361328,-1,-1,-2,-1,-2,-1,-1,-2,16,-10,2,3,-2,1,6,29,1.5625,1.5625,1.5625,65.5,65.5,65.5,3.111704,3.143843,2.838434,6.567443,6.067881,9.779208,0.02256958,-0.448284,1.599575,0.387884,0.1388605,1.419371,0.2290233,0.3938657,1.711014,0.06929277,-0.4313688,1.577517,0.3744165,0.1352328,1.349156,0.2189919,-0.06852525,1.713248,0.206938,-0.3903959,1.692612,0.04506743,0.1174288,1.704297,0.1171127,-0.3828432,1.663304,0.004966307,-0.1389757,1.708784,0.4392414,-0.09574354,1.609241,NA,NA,NotTracked,Unknown,
0.9165039,-0.3588867,0.1391602,-0.7802734,0.7924805,0.3178711,0,-2,-2,-2,0,-2,1,-1,-14,-10,6,1,-14,-5,-31,-10,-2.3125,-2.3125,-2.3125,5.6875,5.6875,5.6875,3.112187,3.140534,2.836185,6.6117,5.997957,9.779782,0.02308989,-0.4481402,1.599348,0.3923907,0.1227462,1.416524,0.2288115,0.3941681,1.711425,0.06913516,-0.4315881,1.577432,0.4200157,0.0811066,1.403,0.2178593,-0.06914254,1.712568,0.2069795,-0.3911863,1.692296,0.04387444,0.1168298,1.704403,0.1174487,-0.3838169,1.662542,0.004809509,-0.1409933,1.708531,0.4346922,-0.0987056,1.615935,NA,NA,NotTracked,Unknown,
0.9077148,-0.371582,0.137207,-0.6821289,0.7905273,0.4228516,-2,-1,1,-2,0,0,0,0,-9,-4,-1,-3,1,1,-4,7,-5.875,-5.875,-5.875,-86.5625,-86.5625,-86.5625,3.101674,3.134275,2.837456,6.527493,5.968282,9.75015,0.02249557,-0.445827,1.600327,0.3898884,0.1195376,1.414892,0.2287823,0.3944149,1.711604,0.06934492,-0.4527456,1.574609,0.3627429,0.1138099,1.346714,0.2173299,-0.06945134,1.712064,0.2070263,-0.391819,1.691987,0.04331871,0.1166983,1.704007,0.1176878,-0.3844946,1.661918,0.004756085,-0.1420184,1.707932,0.4315785,-0.1008126,1.62221,NA,NA,NotTracked,Unknown,
0.9277344,-0.3466797,0.1430664,-0.7250977,0.4868164,0.5488281,-1,-3,-1,-1,0,-1,0,0,-6,-13,-14,-22,-3,0,-18,-21,-0.5,-0.5,-0.5,-79.25,-79.25,-79.25,3.091594,3.13291,2.838155,6.340134,5.969018,9.714466,0.02196594,-0.4481827,1.599572,0.3880664,0.1230785,1.423509,0.2288904,0.3945226,1.711671,0.06745772,-0.430482,1.57774,0.3272106,0.1270691,1.382555,0.2168641,-0.06986123,1.711603,0.2069997,-0.3925105,1.691707,0.0430463,0.1164836,1.703564,0.1178216,-0.3852321,1.661254,0.004579149,-0.1430482,1.707334,0.4337839,-0.09797262,1.611822,NA,NA,NotTracked,Lasso,
0.9238281,-0.3422852,0.1445313,-0.5551758,0.3574219,0.6459961,-2,-4,-4,-1,0,0,-1,0,-1,-13,-9,-4,6,3,1,11,-2,-2,-2,82,82,82,3.094691,3.135154,2.833738,6.347689,6.011711,9.641047,0.02217365,-0.4476376,1.598534,0.3981688,0.1286732,1.417017,0.2290303,0.394756,1.711765,0.06579878,-0.4479366,1.574327,0.3484283,0.12249,1.362294,0.2167158,-0.07002339,1.711417,0.2070336,-0.392897,1.691646,0.04292075,0.1164578,1.703269,0.1179251,-0.3855107,1.661095,0.004422132,-0.1436695,1.706758,0.4349012,-0.09672345,1.608253,NA,NA,NotTracked,Unknown,
0.9106445,-0.3457031,0.1357422,-0.4697266,1.322754,0.3999023,0,-1,-4,-1,-1,-2,-1,-1,-6,-15,-4,18,2,3,-1,-4,-0.5625,-0.5625,-0.5625,49.25,49.25,49.25,3.095825,3.133748,2.831531,6.566932,5.984275,9.693251,0.02194066,-0.4477791,1.597805,0.3984652,0.1296513,1.412884,0.229174,0.3948269,1.711792,0.06772793,-0.4464445,1.575237,0.39348,0.1174783,1.36021,0.2165462,-0.07012164,1.711219,0.207053,-0.3930372,1.691527,0.04286338,0.1164641,1.702945,0.1180493,-0.3855987,1.660735,0.004278915,-0.143496,1.706409,0.4352724,-0.09617057,1.607413,NA,NA,NotTracked,Unknown,
0.9277344,-0.3574219,0.137207,-0.6518555,0.01025391,0.6362305,-1,-2,-2,-1,-2,-3,-2,-2,8,-12,-4,19,19,0,6,20,3.1875,3.1875,3.1875,-108.75,-108.75,-108.75,3.094236,3.131056,2.836496,6.344974,5.979086,9.712834,0.02147784,-0.4423669,1.600625,0.3950906,0.1290153,1.41637,0.2293442,0.3948837,1.711963,0.06498729,-0.4281783,1.576595,0.342014,0.129261,1.3672,0.2164455,-0.07024031,1.71108,0.2070968,-0.3931847,1.691451,0.04283337,0.1164244,1.702807,0.1181691,-0.3857235,1.660534,0.004152302,-0.1435423,1.706015,0.4359385,-0.09570506,1.60623,NA,NA,NotTracked,Unknown,
0.921875,-0.359375,0.1435547,-0.5415039,1.233887,0.34375,-1,0,0,-1,0,-3,-2,-2,7,3,7,7,-2,2,1,4,2.75,2.75,2.75,6.25,6.25,6.25,3.097887,3.131538,2.843796,6.501372,5.994252,9.697584,0.02261024,-0.4458328,1.599828,0.3975623,0.1264935,1.413273,0.2294926,0.3949926,1.712173,0.06782141,-0.4370467,1.575961,0.3517203,0.132634,1.354487,0.2163855,-0.07030162,1.710972,0.2071785,-0.393343,1.69137,0.04277976,0.1163414,1.702784,0.1183271,-0.3858927,1.660342,0.004117973,-0.1435898,1.706008,0.4341661,-0.09812756,1.614035,NA,NA,NotTracked,Unknown,
0.9145508,-0.3637695,0.1396484,-0.6220703,0.08496094,0.7167969,0,-1,-1,0,-2,-1,-1,-1,-4,-7,-12,-26,-7,0,-6,-7,4.375,4.375,4.375,-60.8125,-60.8125,-60.8125,3.103542,3.131811,2.84261,6.311801,5.987484,9.708811,0.02233794,-0.4481669,1.602104,0.3921335,0.1440681,1.412665,0.2294965,0.3950288,1.712411,0.06737898,-0.4401955,1.576871,0.3320997,0.1405641,1.363609,0.2162364,-0.07038211,1.710964,0.2072547,-0.3935441,1.691395,0.04277455,0.1163148,1.702801,0.1184748,-0.3860563,1.660295,0.004031275,-0.1436614,1.706126,0.4345204,-0.09680524,1.610449,NA,NA,NotTracked,Unknown,
0.9262695,-0.3681641,0.1464844,-0.5947266,0.8295898,0.3481445,-2,-1,0,0,0,-1,-4,0,-7,-15,-5,3,0,-3,-6,3,2.125,2.125,2.125,119.625,119.625,119.625,3.104579,3.135174,2.847184,6.480137,6.011188,9.686911,0.02273309,-0.4484282,1.600021,0.3913366,0.13647,1.406637,0.2294492,0.3951189,1.712771,0.06672775,-0.4366329,1.577084,0.3555595,0.1314183,1.346304,0.2161316,-0.07041895,1.710901,0.2072952,-0.3936199,1.691377,0.04267115,0.1162402,1.702799,0.1185466,-0.3861174,1.660273,0.004015144,-0.1438608,1.706159,0.4348599,-0.09590936,1.607239,NA,NA,NotTracked,Unknown,
0.9052734,-0.3574219,0.1469727,-0.5463867,0.3291016,0.4702148,-1,0,-3,-2,0,-2,-1,-1,-1,-1,-3,1,-1,-2,-1,-2,1.5625,1.5625,1.5625,-36.4375,-36.4375,-36.4375,3.109855,3.135923,2.846325,6.454169,5.902738,9.751084,0.02263685,-0.4486782,1.600113,0.3856091,0.12486,1.395606,0.2293638,0.3951981,1.712929,0.06720346,-0.433814,1.577463,0.340739,0.1148835,1.340625,0.2159845,-0.07046267,1.710799,0.207371,-0.3937486,1.691263,0.04255046,0.1161012,1.702902,0.1186575,-0.386281,1.660219,0.004125378,-0.1446269,1.706333,0.4336475,-0.09728482,1.611145,NA,NA,NotTracked,Unknown,
0.9370117,-0.3657227,0.1401367,-0.4194336,0.737793,0.4140625,0,-1,-2,-1,-1,-1,-1,-1,3,1,1,-1,0,0,2,7,-2.8125,-2.8125,-2.8125,98.6875,98.6875,98.6875,3.105969,3.136399,2.846857,6.553394,5.784161,9.743505,0.02298263,-0.4488645,1.600304,0.3841388,0.1039106,1.375786,0.2292193,0.3952612,1.713135,0.06701542,-0.4386239,1.576,0.3504654,0.08280134,1.312941,0.2158881,-0.07050113,1.710783,0.2073886,-0.3938172,1.69128,0.04232547,0.1160973,1.702949,0.1187121,-0.3863868,1.660259,0.004191239,-0.1447878,1.706473,0.4338734,-0.09766386,1.613973,NA,NA,NotTracked,Unknown,
0.9052734,-0.3525391,0.140625,-0.3803711,0.7495117,0.3730469,-2,-4,-6,-1,-2,-1,1,0,-3,-9,-5,-3,-2,-3,-4,-5,-0.625,-0.625,-0.625,12.3125,12.3125,12.3125,3.110318,3.139675,2.843569,6.637308,5.571208,9.772804,0.02301526,-0.4486302,1.60014,0.3804796,0.05572702,1.345678,0.2289841,0.3953287,1.713423,0.06744203,-0.434521,1.576652,0.3727543,0.01915462,1.3095,0.2158544,-0.07051181,1.710761,0.2074765,-0.3938828,1.691223,0.04208687,0.1158898,1.703112,0.1188397,-0.3864825,1.660225,0.00425422,-0.1451261,1.70656,0.4341772,-0.09749746,1.61524,NA,NA,NotTracked,Lasso,
0.9262695,-0.3637695,0.1425781,-0.1259766,0.6420898,0.5092773,0,-1,-1,-2,-2,-1,-1,0,-5,-2,-4,3,9,-1,-2,-4,-2.25,-2.25,-2.25,-4.625,-4.625,-4.625,3.107599,3.138088,2.841588,6.63108,5.137242,9.779662,0.02288402,-0.4493948,1.599659,0.3815026,-0.02542457,1.309299,0.2285569,0.3955151,1.714061,0.06736238,-0.4308328,1.577151,0.390418,-0.05657325,1.2972,0.215826,-0.07048534,1.710766,0.20763,-0.3938073,1.691249,0.04181784,0.115787,1.703248,0.1190543,-0.3864001,1.66026,0.004307189,-0.1455843,1.706766,0.4284474,-0.1010238,1.635517,NA,NA,NotTracked,Lasso,
0.9326172,-0.3686523,0.1640625,0.3291016,0.8056641,0.4052734,-1,0,-1,-2,-2,-2,-1,-1,-4,-5,-1,-2,1,-9,-14,1,-0.4375,-0.4375,-0.4375,56.75,56.75,56.75,3.106549,3.138154,2.840592,6.709404,4.63639,9.757397,0.02276077,-0.4492564,1.601311,0.3936003,-0.132353,1.295119,0.2281703,0.3956105,1.714597,0.06703012,-0.4514514,1.57714,0.395458,-0.1687397,1.29175,0.2157267,-0.07040743,1.710833,0.2077246,-0.3936687,1.691368,0.04123511,0.1157051,1.703673,0.1192428,-0.3861724,1.660468,0.004267626,-0.1457428,1.706883,0.4349101,-0.1016391,1.644817,NA,NA,NotTracked,Unknown,
0.9326172,-0.3583984,0.1484375,0.5820313,0.8920898,0.434082,0,1,0,-2,-1,0,-2,-2,-3,4,13,-2,3,3,2,-1,2.5625,2.5625,2.5625,11.3125,11.3125,11.3125,3.112482,3.139276,2.838691,6.759152,4.275015,9.751736,0.02321256,-0.4513263,1.600437,0.3976652,-0.2304439,1.313476,0.2275822,0.395731,1.715369,0.06847399,-0.4287959,1.579447,0.4012748,-0.2771427,1.312273,0.2156165,-0.07034308,1.71091,0.2078951,-0.3935108,1.691468,0.04073622,0.1153639,1.704031,0.1195065,-0.3859803,1.660626,0.004326654,-0.1458904,1.706917,0.4390826,-0.09989621,1.638781,NA,NA,NotTracked,Unknown,
0.9130859,-0.3554688,0.1362305,0.7075195,0.7260742,0.5180664,-1,0,0,0,-1,-2,-1,-2,-5,-4,-3,-2,-4,0,-1,-19,3.375,3.375,3.375,15.875,15.875,15.875,3.112597,3.139005,2.84556,6.769719,3.968187,9.747541,0.0220697,-0.4467307,1.601183,0.3968383,-0.3074097,1.359249,0.2274667,0.3957627,1.715476,0.06784387,-0.4288173,1.578237,0.3967072,-0.3738311,1.364652,0.2155659,-0.07031299,1.710933,0.2080919,-0.3934108,1.69153,0.04057909,0.1152997,1.704101,0.1197813,-0.385848,1.660698,0.00435822,-0.1461684,1.706876,0.4449034,-0.1073592,1.635151,NA,NA,NotTracked,Lasso,
0.9140625,-0.3706055,0.1474609,0.8320313,0.7089844,0.3012695,0,0,-1,-2,-3,0,-2,0,0,-1,-4,-4,-1,-1,1,3,0.0625,0.0625,0.0625,44.25,44.25,44.25,3.103276,3.135874,2.856473,6.832363,3.700445,9.757813,0.02066687,-0.445401,1.602715,0.3981487,-0.3633342,1.413603,0.2274505,0.39585,1.7156,0.06043847,-0.4540667,1.57565,0.4026957,-0.4345051,1.412941,0.2155504,-0.07029311,1.710937,0.2084838,-0.3933878,1.691594,0.04034199,0.1152133,1.704293,0.1203205,-0.3857553,1.660655,0.004269285,-0.146194,1.706958,0.4383261,-0.1097153,1.639792,NA,NA,NotTracked,Unknown,
0.9238281,-0.3691406,0.140625,0.8603516,0.7055664,0.171875,0,-1,-1,-2,-1,0,-1,0,2,-2,0,-2,-12,-6,-1,0,-0.25,-0.25,-0.25,81.4375,81.4375,81.4375,3.09613,3.132465,2.865446,6.964785,3.44104,9.814855,0.02058049,-0.4485111,1.602721,0.3994452,-0.4012188,1.457587,0.2274786,0.395859,1.71568,0.06577259,-0.4215067,1.578909,0.4303188,-0.4174483,1.432733,0.2156411,-0.070355,1.710864,0.2090364,-0.3936255,1.69152,0.04026598,0.1151709,1.704331,0.1211342,-0.3858708,1.66048,0.004291239,-0.1470242,1.707112,0.4310566,-0.1223117,1.644666,NA,NA,NotTracked,Unknown,
0.9047852,-0.3740234,0.1469727,0.9042969,0.4868164,0.1547852,1,0,-1,0,-1,1,-2,-1,-1,0,-2,-1,-3,-9,-4,0,-2.9375,-2.9375,-2.9375,-3.6875,-3.6875,-3.6875,3.090758,3.133522,2.862643,6.973135,3.314377,9.833865,0.01999294,-0.4463254,1.602864,0.4003813,-0.4292614,1.495255,0.2276016,0.3959355,1.715701,0.05870776,-0.4630683,1.571383,0.4334858,-0.4551841,1.495,0.2160462,-0.07045931,1.710766,0.2101252,-0.393884,1.691476,0.04024454,0.115151,1.70436,0.1223327,-0.3859301,1.66024,0.004365261,-0.1477058,1.70709,0.4264452,-0.1348517,1.652225,NA,NA,NotTracked,Unknown,
