ALX,ALY,ALZ,ARX,ARY,ARZ,EMG0L,EMG1L,EMG2L,EMG3L,EMG4L,EMG5L,EMG6L,EMG7L,EMG0R,EMG1R,EMG2R,EMG3R,EMG4R,EMG5R,EMG6R,EMG7R,GLX,GLY,GLZ,GRX,GRY,GRZ,ORL,OPL,OYL,ORR,OPR,OYR,LHNX,LHNY,LHNZ,RHNX,RHNY,RHNZ,HX,HY,HZ,LTX,LTY,LTZ,RTX,RTY,RTZ,SpineMidX,SpineMidY,SpineMidZ,SpineBaseX,SpineBaseY,SpineBaseZ,ShoulderLeftX,ShoulderLeftY,ShoulderLeftZ,ShoulderRightX,ShoulderRightY,ShoulderRightZ,ElbowLeftX,ElbowLeftY,ElbowLeftZ,ElbowRightX,ElbowRightY,ElbowRightZ,Myo_Pose_left,Myo_Pose_Right,Kinect_pose_left,Kinect_pose_right
0.1079102,-0.8657227,0.4433594,0.1123047,0.6005859,0.6679688,-4,1,-11,0,-3,-3,23,-5,-11,-18,-26,-1,-4,-3,-8,-16,-1.1875,-1.1875,-1.1875,-51.3125,-51.3125,-51.3125,3.230379,4.830304,2.533441,6.196482,4.709398,9.544159,0.2360297,-0.08326831,1.354835,0.2699783,-0.1372572,1.452816,0.2511029,0.3974296,1.719231,0.2622312,-0.1358056,1.432274,0.332146,-0.07198152,1.347667,0.2337106,-0.06706565,1.713385,0.2268679,-0.3869032,1.69164,0.06736008,0.1229851,1.68615,0.1401082,-0.3761091,1.658229,0.01209325,-0.0863059,1.603316,0.4524104,-0.1076411,1.686757,NA,NA,NotTracked,NotTracked,
0.1230469,-0.894043,0.4277344,-0.01464844,0.5717773,0.7231445,4,4,1,-6,-1,-5,3,6,-12,-2,-13,-48,-13,-5,-8,-12,-2.0625,-2.0625,-2.0625,-37.9375,-37.9375,-37.9375,3.224838,4.848588,2.533019,6.119188,4.962869,9.537177,0.2220213,-0.07534334,1.344703,0.2334053,-0.07441583,1.343651,0.2508454,0.3974727,1.720029,0.2701183,-0.0970392,1.345308,0.2816524,-0.06142543,1.31471,0.2335866,-0.06626654,1.713691,0.2269563,-0.3848152,1.691728,0.06820478,0.1232684,1.685101,0.1405334,-0.3746685,1.658202,0.01258585,-0.08548456,1.600884,0.4436979,-0.1080038,1.660092,NA,NA,NotTracked,NotTracked,
0.1074219,-0.8984375,0.4287109,-0.1005859,0.5864258,0.71875,-11,-6,0,-3,-4,-5,12,1,2,2,9,40,0,3,5,4,-3.25,-3.25,-3.25,-28.375,-28.375,-28.375,3.223027,4.860736,2.533309,6.057719,5.18726,9.511875,0.2301289,-0.0722343,1.34,0.2247558,-0.06759425,1.338086,0.2505981,0.3974161,1.720692,0.2954389,-0.08580945,1.341857,0.2703089,-0.05239835,1.305419,0.2332207,-0.06498764,1.714148,0.2265691,-0.3820239,1.691949,0.06739645,0.1240975,1.683315,0.1406883,-0.3724381,1.657815,0.0126739,-0.08540016,1.600616,0.4394062,-0.118872,1.648404,NA,NA,NotTracked,NotTracked,
0.09179688,-0.9082031,0.434082,-0.1147461,0.6088867,0.7617188,-9,-6,-10,4,0,1,-2,-2,4,-2,2,-4,3,-2,3,-2,-0.875,-0.875,-0.875,-10.0625,-10.0625,-10.0625,3.220026,4.863465,2.533872,6.035558,5.275411,9.499409,0.233176,-0.07068218,1.338607,0.2227644,-0.06328505,1.336309,0.2502456,0.3974552,1.721484,0.2919883,-0.08692468,1.341255,0.2633885,-0.0498463,1.303054,0.2330753,-0.0638214,1.714683,0.2265014,-0.379536,1.692397,0.06687389,0.1245644,1.682554,0.1410494,-0.3705288,1.657534,0.01385451,-0.0842482,1.596462,0.436904,-0.119879,1.644812,NA,NA,NotTracked,NotTracked,
0.07666016,-0.9248047,0.4370117,-0.2226563,0.5688477,0.8354492,5,0,5,2,0,-5,-5,-7,0,-9,-6,-10,-5,-2,2,5,-1.0625,-1.0625,-1.0625,-15.625,-15.625,-15.625,3.215645,4.865917,2.53277,6.011945,5.334766,9.500591,0.235745,-0.06950051,1.338357,0.2241388,-0.06271741,1.336395,0.2497535,0.397578,1.72223,0.2926735,-0.08606197,1.341596,0.2671483,-0.05320267,1.305906,0.2329919,-0.063233,1.714758,0.2264452,-0.3783183,1.692366,0.06652524,0.1249519,1.681925,0.1411993,-0.3695946,1.657107,0.01426848,-0.08380668,1.595105,0.4374912,-0.1222888,1.612475,NA,NA,NotTracked,NotTracked,
0.06982422,-0.9316406,0.4521484,-0.2958984,0.5419922,0.7607422,-5,-6,-5,2,-3,-1,18,-3,-14,28,14,27,4,-1,-4,-20,-0.9375,-0.9375,-0.9375,-10.125,-10.125,-10.125,3.209743,4.872333,2.532315,5.99152,5.367333,9.495479,0.2354993,-0.06758031,1.337543,0.2241898,-0.05984849,1.335065,0.2493456,0.3975006,1.722761,0.2916883,-0.08554263,1.341726,0.2657964,-0.04976272,1.302688,0.2327804,-0.06275256,1.714817,0.2261557,-0.377377,1.692239,0.06614942,0.1251882,1.681468,0.1410872,-0.3687158,1.656761,0.01480492,-0.08308354,1.592609,0.4350408,-0.1239359,1.612786,NA,NA,NotTracked,NotTracked,
0.07373047,-0.9233398,0.4887695,-0.4008789,0.5336914,0.668457,-3,-8,-28,-12,-10,-5,-16,-5,7,-7,-5,-9,-2,0,2,6,2.25,2.25,2.25,-6.9375,-6.9375,-6.9375,3.216262,4.883814,2.525607,5.979881,5.387851,9.497077,0.2377263,-0.06233264,1.336582,0.2249492,-0.05470185,1.335581,0.249056,0.397562,1.723277,0.2962116,-0.07755916,1.337686,0.2652988,-0.04433846,1.303602,0.2327174,-0.06229001,1.714802,0.2259314,-0.3766556,1.692072,0.06587972,0.1253568,1.681031,0.1410214,-0.3680874,1.656423,0.01576895,-0.08263967,1.590573,0.4370698,-0.1235086,1.606213,NA,NA,NotTracked,NotTracked,
0.1640625,-0.9360352,0.5473633,-0.4467773,0.5517578,0.6635742,6,-4,-5,-3,-7,0,-1,1,1,-13,20,48,13,-2,5,24,7.75,7.75,7.75,28.3125,28.3125,28.3125,3.233767,4.907124,2.488407,6.026426,5.3455,9.463614,0.2486363,-0.04667443,1.348475,0.2328905,-0.04054094,1.347862,0.2489384,0.3975248,1.723729,0.3035104,-0.05928423,1.348667,0.2680977,-0.01833715,1.317583,0.2326441,-0.06221362,1.714811,0.2256775,-0.376486,1.69188,0.0655412,0.1254203,1.680674,0.1408783,-0.3679453,1.656246,0.01585551,-0.08242564,1.589527,0.4265868,-0.1238793,1.605833,NA,NA,NotTracked,NotTracked,
-0.04248047,-0.9077148,0.5483398,0.5966797,0.6049805,1.257324,18,4,-1,0,0,-3,-6,-1,-10,2,-3,1,-3,-3,-28,-72,13.75,13.75,13.75,47.125,47.125,47.125,3.266129,4.97281,2.393987,6.038826,5.173141,9.420359,0.2490915,-0.02868219,1.364576,0.2676371,-0.01700763,1.361077,0.2487437,0.3978606,1.724419,0.2620743,-0.06860986,1.366775,0.3206712,-0.01556659,1.334305,0.2325944,-0.06224028,1.714849,0.2256336,-0.3769122,1.691664,0.06647839,0.1241093,1.682034,0.1408163,-0.3683376,1.656184,0.01554374,-0.08280768,1.589245,0.4071057,-0.1193723,1.585591,NA,NA,NotTracked,NotTracked,
-0.01806641,-0.8208008,0.3798828,-0.4101563,0.7104492,0.902832,-2,1,6,7,-10,-14,-36,-13,3,8,8,-17,2,1,-4,4,-16.5625,-16.5625,-16.5625,-40.125,-40.125,-40.125,3.231479,4.98938,2.37338,6.109787,5.268167,9.394555,0.2583297,-0.03573628,1.348855,0.2673258,-0.03120903,1.347046,0.2485739,0.3978556,1.725078,0.2678969,-0.08241469,1.35768,0.3018132,0.006146737,1.332391,0.2326144,-0.0621535,1.715055,0.225744,-0.3768863,1.69163,0.06752159,0.1234363,1.682886,0.1409913,-0.3683211,1.65616,0.01714031,-0.08268118,1.587692,0.3989125,-0.1211054,1.572806,NA,NA,NotTracked,NotTracked,
-0.09765625,-0.9599609,0.4589844,-0.7397461,0.7006836,0.6826172,4,-5,6,3,-6,-1,8,-6,-30,-3,-1,-13,-1,0,-4,-18,16.625,16.625,16.625,158.125,158.125,158.125,3.220921,4.931387,2.386987,6.295183,5.48906,9.349243,0.2523072,-0.04183255,1.34664,0.2634726,-0.03747322,1.343501,0.2484784,0.3981103,1.72589,0.2662067,-0.08661379,1.3474,0.298459,0.001430853,1.333874,0.2325749,-0.0620307,1.715169,0.2258033,-0.3771591,1.691443,0.0684094,0.1227829,1.6835,0.1411417,-0.3683837,1.655741,0.01956709,-0.08282256,1.586112,0.3987424,-0.1214047,1.571248,NA,NA,NotTracked,NotTracked,
0.0009765625,-0.9365234,0.4199219,-0.668457,0.855957,0.5039063,-3,-6,-21,-7,-1,-8,-11,-10,-56,0,-3,-2,1,3,10,11,-22.4375,-22.4375,-22.4375,100.25,100.25,100.25,3.169393,4.895079,2.398226,6.509532,5.685084,9.377346,0.2447539,-0.06647987,1.346833,0.2742938,0.006622546,1.344141,0.2487443,0.3982683,1.726867,0.2599917,-0.09874489,1.342893,0.2873716,0.05055492,1.326381,0.2325253,-0.06182208,1.715469,0.2258542,-0.3771039,1.69149,0.06764764,0.1235569,1.682458,0.1412115,-0.3683367,1.655747,0.02125658,-0.08191294,1.583341,0.3985692,-0.1240804,1.573218,NA,NA,NotTracked,NotTracked,
0.1347656,-0.9477539,0.4951172,-0.5961914,0.8427734,0.5224609,5,-2,-8,-4,-4,2,21,-7,-5,-4,-4,-12,-5,-3,2,7,-34,-34,-34,81.9375,81.9375,81.9375,3.125067,4.8753,2.388808,6.643687,5.856641,9.377178,0.2258323,-0.07306816,1.366925,0.2032235,-0.08049899,1.381927,0.2487847,0.3982576,1.727931,0.2424388,-0.1087187,1.353643,0.236337,-0.1012377,1.338758,0.2322649,-0.06200536,1.716061,0.2257382,-0.3779641,1.691753,0.06709389,0.1241737,1.681766,0.1409158,-0.3695102,1.657192,0.02127345,-0.08121972,1.582142,0.37255,-0.04591219,1.4907,NA,NA,NotTracked,NotTracked,
0.09667969,-0.9941406,0.4907227,-0.4863281,0.7744141,0.3383789,-4,-2,5,-17,-12,-14,-11,9,5,2,2,-53,-23,0,12,5,-21.1875,-21.1875,-21.1875,80.375,80.375,80.375,3.097711,4.905168,2.343622,6.768634,5.931445,9.364601,0.2395822,-0.06516425,1.377723,0.08298508,-0.08818454,1.483392,0.2483285,0.3984141,1.729047,0.2585053,-0.1020524,1.368375,0.04192428,-0.06351217,1.4775,0.2313574,-0.06262013,1.716395,0.2251126,-0.3813791,1.691887,0.06719267,0.1238596,1.682635,0.1396609,-0.3735335,1.660879,0.02090781,-0.08072931,1.581363,0.3415031,-0.04801127,1.425273,NA,NA,NotTracked,NotTracked,
-0.06201172,-0.9726563,0.3525391,-0.4467773,0.7773438,0.3100586,8,-4,-41,-2,-1,3,-20,-4,2,0,3,8,-24,4,-12,-18,-14.625,-14.625,-14.625,48.375,48.375,48.375,3.07925,4.985574,2.280667,6.876147,5.909152,9.37394,0.2618747,-0.04859275,1.387625,0.08732432,-0.08111759,1.48837,0.2479726,0.3983519,1.729978,0.293484,0.02334162,1.403,0.0438388,-0.05694042,1.481857,0.2309761,-0.06332242,1.716877,0.2249899,-0.3837588,1.691773,0.06819512,0.1237274,1.684368,0.1392491,-0.3760048,1.662907,0.0203733,-0.07968435,1.581204,0.342513,-0.04463729,1.42069,NA,NA,NotTracked,NotTracked,
-0.1137695,-1.008301,0.2299805,-0.409668,0.5776367,0.1733398,0,-9,-48,-22,-1,1,4,1,9,5,1,-21,12,-6,7,17,-15.0625,-15.0625,-15.0625,-19.8125,-19.8125,-19.8125,3.038949,5.06382,2.234301,6.926904,5.789218,9.395547,0.2577221,-0.04086566,1.385685,0.03056084,-0.05650245,1.562676,0.2482718,0.3981763,1.731542,0.2801696,-0.07403389,1.372167,0.05740505,-0.004717468,1.575298,0.2310949,-0.06333551,1.71778,0.2253311,-0.3833205,1.692028,0.06837922,0.1238732,1.685346,0.139782,-0.3754619,1.662858,0.02156378,-0.07897872,1.580405,0.3426918,-0.03172032,1.420646,NA,NA,NotTracked,NotTracked,
0.05126953,-1.062988,0.2539063,0.09863281,0.6538086,0.3276367,-8,2,6,13,-4,-4,-2,5,3,0,1,15,10,2,-3,24,-14.9375,-14.9375,-14.9375,4.8125,4.8125,4.8125,3.041382,5.085555,2.323884,6.862142,5.603995,9.34125,0.2365503,-0.04345436,1.373735,0.03066364,-0.05564839,1.563688,0.2481563,0.3981535,1.734135,0.3316491,-0.03834498,1.32375,0.05749268,-0.0008972328,1.575727,0.2311251,-0.06300496,1.718974,0.2256246,-0.3823987,1.692354,0.06960125,0.1235849,1.688438,0.1403105,-0.3743888,1.662787,0.02354767,-0.07743778,1.579196,0.3465692,-0.02417881,1.417368,NA,NA,NotTracked,NotTracked,
0.06298828,-0.847168,0.390625,-0.3623047,0.9150391,0.5009766,-9,-5,-7,-2,-6,-10,-24,-9,-9,-8,-6,-12,-4,3,3,4,-26.0625,-26.0625,-26.0625,-7.125,-7.125,-7.125,3.028689,5.050377,2.353613,6.847497,5.483383,9.333332,0.2659893,-0.003499405,1.239528,0.09439104,-0.07227837,1.470065,0.2475372,0.3979684,1.735888,0.266567,-0.07171402,1.205,0.07150467,-0.03805783,1.496,0.2309519,-0.06279396,1.719514,0.2255895,-0.3816787,1.692514,0.06955996,0.1232834,1.689821,0.1404216,-0.3737012,1.662719,0.02347975,-0.07686164,1.578789,0.3529105,-0.0225856,1.414724,NA,NA,NotTracked,NotTracked,
-0.06396484,-0.9208984,0.4248047,-0.3432617,0.8818359,0.3818359,7,-3,6,2,-3,-2,-2,-2,4,-1,3,20,7,1,4,-12,-4.125,-4.125,-4.125,-17.5,-17.5,-17.5,3.014919,5.011926,2.351472,6.821402,5.460823,9.34512,0.2601698,-0.01629993,1.241358,0.09382061,-0.07516728,1.469437,0.2469418,0.39792,1.737223,0.2464468,-0.07972291,1.209,0.05588685,-0.05118214,1.470834,0.2306574,-0.06252215,1.720129,0.2254542,-0.3810775,1.692533,0.06845935,0.1240634,1.690156,0.1403579,-0.3731936,1.662412,0.01956625,-0.0758248,1.579953,0.3569321,-0.02308368,1.413617,NA,NA,NotTracked,NotTracked,
-0.07568359,-0.9052734,0.3979492,-0.3305664,0.9926758,0.34375,0,0,-3,6,-9,-13,-21,-13,8,-4,-6,-5,-1,0,0,15,1.125,1.125,1.125,-5.5,-5.5,-5.5,3.019166,5.003749,2.349204,6.823975,5.451614,9.345021,0.2560783,-0.02186617,1.243157,0.0902679,-0.07810089,1.474252,0.2464424,0.3981599,1.737952,0.2556033,-0.08726797,1.209762,0.05252587,-0.05104782,1.478482,0.2305903,-0.06238611,1.720501,0.2254708,-0.3807322,1.692594,0.06824299,0.1234801,1.691884,0.1404883,-0.3728189,1.662227,0.01859667,-0.0755296,1.580285,0.3590165,-0.0287282,1.413553,NA,NA,NotTracked,NotTracked,
-0.009277344,-0.9882813,0.3364258,-0.2680664,0.8920898,0.359375,-11,-1,22,-12,-2,2,-10,9,3,1,3,3,0,-2,-1,-9,12.625,12.625,12.625,-14.1875,-14.1875,-14.1875,3.049411,4.983892,2.349002,6.810397,5.453228,9.343221,0.2519517,-0.02446583,1.241551,0.09124036,-0.08129079,1.476278,0.246224,0.3981211,1.738235,0.2327823,-0.08584108,1.207692,0.06283049,-0.0548303,1.471956,0.2305758,-0.06230869,1.720566,0.2255246,-0.380193,1.692439,0.06820546,0.1230941,1.692471,0.140733,-0.3719233,1.660984,0.01808747,-0.07634135,1.58199,0.3595576,-0.03538351,1.412939,NA,NA,NotTracked,NotTracked,
-0.002441406,-1.001953,0.3300781,-0.2875977,0.8847656,0.3740234,-6,-2,-11,-4,-1,6,7,5,5,8,-2,0,-1,-2,-7,3,5.9375,5.9375,5.9375,-19.1875,-19.1875,-19.1875,3.055902,4.986173,2.345017,6.784253,5.458891,9.320717,0.2512817,-0.02317115,1.237617,0.1004307,-0.08357854,1.468756,0.2460857,0.3980951,1.738198,0.2288385,-0.08425213,1.202,0.05670391,-0.06742879,1.471143,0.2304496,-0.06216856,1.720646,0.2254919,-0.379729,1.692417,0.06803323,0.1225175,1.69301,0.1407921,-0.371468,1.660607,0.017777,-0.0767415,1.582253,0.3595237,-0.0377175,1.412271,NA,NA,NotTracked,NotTracked,
0.02050781,-0.9277344,0.3417969,-0.2553711,0.7426758,0.4033203,-8,0,-1,0,1,-5,-5,6,19,15,-1,-2,-2,-1,-4,9,2,2,2,-32.8125,-32.8125,-32.8125,3.063812,4.985353,2.338508,6.716722,5.450831,9.278877,0.2465693,-0.02075953,1.2259,0.09984575,-0.08541498,1.468749,0.2459874,0.398153,1.737742,0.2240543,-0.07686783,1.189182,0.04854812,-0.07647153,1.4708,0.2301852,-0.06191123,1.720579,0.2254411,-0.3788117,1.6921,0.06803954,0.1223467,1.693159,0.1408674,-0.370668,1.660066,0.01845631,-0.07691963,1.582078,0.3579114,-0.0406038,1.413976,NA,NA,NotTracked,NotTracked,
0.04736328,-0.8911133,0.3374023,-0.1665039,0.699707,0.453125,-2,-1,1,0,-4,-3,-1,4,-2,1,1,-1,-1,-1,-3,1,-0.8125,-0.8125,-0.8125,-27.9375,-27.9375,-27.9375,3.064648,4.966447,2.331667,6.619491,5.37625,9.191504,0.244728,-0.02059568,1.217975,0.1011368,-0.09005594,1.469456,0.2460036,0.3981509,1.73692,0.2078916,-0.06223737,1.178087,0.05989697,-0.07726832,1.46875,0.2300042,-0.061722,1.720523,0.2253905,-0.3786061,1.692072,0.06804948,0.1223587,1.693195,0.1408412,-0.3704419,1.659905,0.01936148,-0.07698176,1.581819,0.3531996,-0.05032436,1.419835,NA,NA,NotTracked,NotTracked,
0.0625,-0.8432617,0.3320313,-0.05322266,0.6523438,0.5415039,-1,-1,0,-1,3,3,7,5,4,-2,1,1,-1,1,1,-12,8.5625,8.5625,8.5625,-11,-11,-11,3.076485,4.924028,2.332286,6.577145,5.253292,9.158881,0.2443244,-0.02875104,1.209478,0.09828448,-0.1010685,1.473247,0.246206,0.398472,1.734933,0.2566103,-0.05376509,1.1877,0.03470612,-0.07841025,1.462,0.2298532,-0.06157514,1.720316,0.225353,-0.378408,1.691955,0.06802287,0.1223064,1.693252,0.1408292,-0.3702476,1.65974,0.01997223,-0.07795822,1.583462,0.3491804,-0.06225196,1.428565,NA,NA,NotTracked,NotTracked,
0.2299805,-0.9125977,0.3862305,0.0009765625,0.9399414,0.4741211,0,-1,-3,-1,2,5,0,5,-24,-11,-6,-3,-3,-3,-7,-11,36.4375,36.4375,36.4375,-8.375,-8.375,-8.375,3.102721,4.74645,2.37194,6.624929,5.001943,9.183645,0.2544311,-0.06267615,1.210202,0.2380057,-0.06780779,1.19971,0.2468062,0.3989404,1.732417,0.2892782,-0.08570436,1.238875,0.2177051,-0.088656,1.175067,0.2295126,-0.06175173,1.719963,0.2249714,-0.3794911,1.691604,0.06793429,0.1222964,1.693591,0.1402219,-0.3711505,1.659751,0.01902836,-0.08279282,1.595082,0.351076,-0.08549736,1.442719,NA,NA,NotTracked,NotTracked,
0.3383789,-0.8876953,0.3789063,0.1152344,0.828125,0.5415039,-2,-1,-4,0,-1,-1,8,-5,0,-5,-1,-1,-1,0,0,4,26.5,26.5,26.5,6.1875,6.1875,6.1875,3.144155,4.598168,2.428188,6.613385,4.752241,9.186079,0.2767946,-0.1303434,1.227407,0.2666907,-0.1825239,1.315904,0.2475649,0.3997302,1.728196,0.2889873,-0.1507315,1.2155,0.2313736,-0.1653942,1.331917,0.2289561,-0.06235586,1.718682,0.2241347,-0.3815991,1.690603,0.06646452,0.1237535,1.69101,0.139112,-0.3727709,1.65939,0.01757441,-0.08766583,1.609981,0.4220321,-0.07173298,1.549188,NA,NA,NotTracked,NotTracked,
0.3212891,-0.7963867,0.4262695,0.3505859,0.8398438,0.4316406,-3,-3,-1,0,-3,0,18,-3,9,0,-3,-1,-2,-1,1,4,44.25,44.25,44.25,24,24,24,3.203673,4.425853,2.49273,6.642249,4.455376,9.193727,0.2955472,-0.2058317,1.251165,0.2966786,-0.2040828,1.251977,0.2481848,0.4004989,1.72438,0.2601763,-0.2399514,1.212667,0.2713803,-0.2478829,1.223333,0.2281233,-0.06352602,1.716996,0.2222606,-0.3854116,1.689343,0.06604961,0.1230922,1.691851,0.1375914,-0.3754643,1.658345,0.01568998,-0.09219448,1.626426,0.4195236,-0.09064747,1.541343,NA,NA,NotTracked,NotTracked,
0.4296875,-0.8652344,0.3549805,0.5668945,0.7983398,0.4960938,3,-2,-4,-5,-5,-3,5,4,-24,-2,1,1,-1,3,-2,-18,28.625,28.625,28.625,22.6875,22.6875,22.6875,3.219475,4.224428,2.579188,6.692438,4.032637,9.199695,0.1773174,-0.2889919,1.408914,0.3069198,-0.2942346,1.312997,0.249059,0.4011836,1.720553,0.1651029,-0.3086826,1.466867,0.2313981,-0.3285923,1.357667,0.2273906,-0.06449679,1.715698,0.2205162,-0.3881382,1.689059,0.06439718,0.1216286,1.692744,0.135726,-0.3775345,1.658073,0.01640628,-0.09652161,1.639117,0.4296111,-0.1181692,1.553874,NA,NA,NotTracked,NotTracked,
0.5913086,-0.7739258,0.4316406,0.7895508,0.6923828,0.390625,0,-1,2,-1,0,1,5,1,3,0,0,-1,0,-3,-1,-3,42.375,42.375,42.375,18.375,18.375,18.375,3.245238,3.993528,2.657969,6.726259,3.738468,9.193829,0.1475546,-0.3436641,1.449161,0.3507092,-0.3564201,1.366561,0.24984,0.4011407,1.715676,0.2033568,-0.3697078,1.500222,0.3734262,-0.3911894,1.3522,0.2272974,-0.06535842,1.714248,0.2206924,-0.3896125,1.688775,0.06217203,0.1199281,1.693308,0.1351911,-0.3800478,1.657704,0.01793658,-0.1009629,1.654658,0.4235214,-0.1167367,1.630195,NA,NA,Unknown,NotTracked,
0.7729492,-0.7558594,0.3417969,0.8793945,0.6411133,0.3393555,0,-2,1,1,2,3,17,-8,2,1,0,-1,0,0,-1,1,-1.4375,-1.4375,-1.4375,21.3125,21.3125,21.3125,3.203716,3.75786,2.746047,6.779768,3.479638,9.171375,0.1018784,-0.3825027,1.474406,0.3787914,-0.4174616,1.42548,0.2504941,0.4011976,1.712749,0.1280546,-0.3552825,1.513462,0.4166376,-0.4719151,1.4408,0.2302801,-0.06662373,1.711126,0.2279786,-0.3924143,1.686285,0.06076201,0.118331,1.693158,0.141277,-0.3845048,1.655156,0.01973047,-0.1038502,1.66412,0.4267165,-0.1247307,1.636256,NA,NA,Unknown,Unknown,
0.8388672,-0.5585938,0.3007813,0.9111328,0.5112305,0.2949219,-3,-8,0,-3,1,3,-3,-4,-12,0,0,-2,-1,1,-1,1,27.0625,27.0625,27.0625,27,27,27,3.170672,3.493365,2.888414,6.829915,3.223089,9.156038,0.06735362,-0.4122573,1.513584,0.4017481,-0.449339,1.482764,0.251191,0.4010032,1.709945,0.1009965,-0.3962747,1.5402,0.431859,-0.4508679,1.470192,0.2326742,-0.06762524,1.708253,0.2324037,-0.3940271,1.684054,0.05972205,0.1176077,1.692672,0.1449766,-0.3868737,1.652894,0.02210924,-0.1112824,1.674395,0.4319831,-0.1329711,1.645438,NA,NA,Unknown,Unknown,
0.8740234,-0.5410156,0.2421875,0.9379883,0.4858398,0.2373047,1,-26,-6,-3,-3,-4,-4,-3,5,0,0,2,-4,-7,2,7,13.6875,13.6875,13.6875,10.75,10.75,10.75,3.091619,3.305495,3.010387,6.840544,3.106056,9.169106,0.04338089,-0.4265433,1.560258,0.4147865,-0.4658054,1.536179,0.2514613,0.4003682,1.706756,0.09009515,-0.4001291,1.564313,0.44756,-0.4627504,1.520588,0.2337795,-0.0681871,1.706143,0.2334443,-0.394469,1.68306,0.05839389,0.1164075,1.69161,0.1458637,-0.3873135,1.651784,0.02062047,-0.1237763,1.679079,0.4365984,-0.1395829,1.656788,NA,NA,Unknown,Unknown,
0.9521484,-0.5063477,0.1494141,0.9091797,0.4350586,0.2119141,0,1,0,1,3,2,17,6,-2,0,0,-2,-7,-5,-4,-4,41.1875,41.1875,41.1875,44.25,44.25,44.25,2.993639,3.16505,3.172541,6.801273,3.027209,9.267262,0.03163372,-0.4390427,1.590968,0.4117619,-0.472736,1.575675,0.251335,0.3998772,1.703622,0.07612561,-0.4196894,1.5721,0.4543689,-0.456581,1.567526,0.2341376,-0.06837389,1.704569,0.2335909,-0.3943161,1.682843,0.05793135,0.1157079,1.689797,0.1460099,-0.3870858,1.651604,0.01761351,-0.1356535,1.684224,0.4405266,-0.1429953,1.666943,NA,NA,NotTracked,Unknown,
0.9614258,-0.378418,0.1147461,0.8969727,0.4101563,0.1958008,-4,-2,0,0,0,0,-14,-4,10,2,-1,-2,0,0,0,4,14,14,14,-25.875,-25.875,-25.875,2.926492,3.072451,3.300685,6.708353,2.99995,9.395005,0.02686472,-0.4399151,1.609677,0.4095171,-0.4611084,1.593093,0.2510346,0.3992385,1.701143,0.07201607,-0.4523797,1.575048,0.45024,-0.4612887,1.593846,0.2342847,-0.06858329,1.703923,0.2335189,-0.3941907,1.682954,0.05813496,0.1154652,1.688664,0.1459564,-0.3867406,1.651795,0.0154115,-0.1413339,1.689156,0.4429204,-0.1444397,1.675278,NA,NA,NotTracked,NotTracked,
0.9282227,-0.4150391,0.1503906,0.8598633,0.3637695,0.07910156,3,9,-3,-1,-1,-2,-12,2,3,1,0,-1,7,0,-2,1,-19.375,-19.375,-19.375,-16.375,-16.375,-16.375,2.912423,3.025378,3.295847,6.6583,3.013999,9.4041,0.02881944,-0.4274012,1.621248,0.407396,-0.4510078,1.599547,0.2507783,0.3985674,1.698543,0.06937891,-0.423631,1.576833,0.4424152,-0.4494041,1.599917,0.2341675,-0.06872549,1.703291,0.2331406,-0.3941779,1.682978,0.05810817,0.1153114,1.687799,0.1454897,-0.3865779,1.651864,0.01428676,-0.1446172,1.693765,0.4431903,-0.1432959,1.679547,NA,NA,NotTracked,NotTracked,
0.8588867,-0.5273438,0.1342773,0.9614258,0.3061523,0.1474609,-1,-18,-3,-2,0,0,3,0,-3,-1,-1,1,3,7,0,0,3.875,3.875,3.875,-3.5625,-3.5625,-3.5625,3.029349,3.033528,3.117471,6.735351,3.007437,9.337285,0.02976714,-0.4201495,1.619705,0.4069688,-0.4524707,1.596336,0.2506683,0.3980193,1.6965,0.06946338,-0.4165737,1.5737,0.4406037,-0.4423419,1.594273,0.2341073,-0.06890652,1.702647,0.2329012,-0.3941235,1.68302,0.05801253,0.1150949,1.687297,0.1451666,-0.3863621,1.652011,0.01410331,-0.1454056,1.695888,0.4430521,-0.1429636,1.680541,NA,NA,NotTracked,NotTracked,
0.9804688,-0.2631836,0.05566406,0.9326172,0.2290039,0.1494141,2,12,7,-1,-2,-2,-3,-1,6,0,-2,1,-1,0,-1,0,27.0625,27.0625,27.0625,18.75,18.75,18.75,2.961505,3.045315,3.230345,6.712799,2.996077,9.363404,0.02959833,-0.4202128,1.618997,0.4066783,-0.4529215,1.596157,0.2504797,0.3978038,1.695294,0.06920506,-0.4029827,1.577954,0.442755,-0.4399296,1.5985,0.2341346,-0.06905527,1.702044,0.2326921,-0.3940602,1.682994,0.05790794,0.1150571,1.686535,0.1449385,-0.3862114,1.652023,0.01406725,-0.1457345,1.696273,0.4427637,-0.1425539,1.680722,NA,NA,NotTracked,NotTracked,
0.9829102,-0.309082,0.09277344,0.9458008,0.2373047,0.08837891,1,-6,-1,3,-2,-1,6,0,1,-2,0,0,0,3,-1,-3,-26.125,-26.125,-26.125,-8.375,-8.375,-8.375,2.923306,3.04071,3.23432,6.729059,2.98843,9.348632,0.02953522,-0.4162841,1.617574,0.4058772,-0.4527269,1.595631,0.2504707,0.3975458,1.694691,0.06861773,-0.4020363,1.577673,0.4425164,-0.456255,1.595468,0.2341359,-0.06915126,1.701625,0.2324847,-0.3939959,1.682989,0.05790164,0.1149625,1.686208,0.1446583,-0.3860131,1.652135,0.01425952,-0.1459028,1.696182,0.4425403,-0.1422995,1.680634,NA,NA,NotTracked,NotTracked,
0.9414063,-0.2807617,0.08935547,0.949707,0.2363281,0.1098633,5,27,-2,-1,-1,0,9,0,2,-1,0,-1,-1,-4,-1,0,4.625,4.625,4.625,3.9375,3.9375,3.9375,2.933254,3.043362,3.216704,6.745138,2.979851,9.331002,0.02924951,-0.4157943,1.616134,0.4049554,-0.4557217,1.593554,0.2502644,0.3973389,1.693977,0.06807275,-0.4013843,1.577482,0.440641,-0.4691074,1.589667,0.2340058,-0.06931163,1.700963,0.2321953,-0.3939599,1.682819,0.05770034,0.1147902,1.685889,0.1443849,-0.3858864,1.65207,0.01447346,-0.1460295,1.696077,0.4420632,-0.1418439,1.680144,NA,NA,NotTracked,NotTracked,
0.9526367,-0.284668,0.07373047,0.940918,0.2270508,0.1245117,-1,2,-2,-2,-1,0,14,2,3,-1,-1,-1,0,-2,-1,0,4.0625,4.0625,4.0625,4.9375,4.9375,4.9375,2.931608,3.036931,3.22996,6.752761,2.971605,9.32599,0.02957381,-0.4166464,1.61743,0.4060127,-0.4562694,1.594221,0.2500771,0.3973772,1.693546,0.06899935,-0.4040124,1.576812,0.4419138,-0.4544646,1.594193,0.2339046,-0.06942468,1.700509,0.2319183,-0.3939625,1.682704,0.05771068,0.1145867,1.685372,0.1441296,-0.3858289,1.652045,0.0145261,-0.1461884,1.696104,0.4415,-0.1417264,1.679674,NA,NA,NotTracked,NotTracked,
0.9399414,-0.3330078,0.08154297,0.9262695,0.2470703,0.1254883,1,-3,2,1,-3,-2,11,1,1,-1,-1,-1,-1,-2,1,1,1.75,1.75,1.75,-3.875,-3.875,-3.875,2.938029,3.037083,3.227397,6.754845,2.971635,9.324391,0.02926422,-0.415817,1.617063,0.4057914,-0.455467,1.593392,0.2497053,0.3972477,1.692802,0.06893462,-0.4037088,1.576895,0.4420692,-0.4407909,1.596615,0.2339021,-0.06953876,1.699983,0.2317149,-0.3939386,1.682396,0.05754618,0.1143865,1.685133,0.1439599,-0.3857971,1.65188,0.01461762,-0.146566,1.696064,0.440984,-0.1415104,1.678927,NA,NA,NotTracked,NotTracked,
0.9448242,-0.3354492,0.09375,0.9350586,0.2426758,0.1210938,4,-1,1,-2,-4,-1,-3,-1,-3,-1,-2,-1,-2,5,-1,-3,5.5,5.5,5.5,4.3125,4.3125,4.3125,2.941317,3.043358,3.230603,6.753874,2.971009,9.326123,0.02930178,-0.4158625,1.616652,0.4051975,-0.4547853,1.59292,0.2495019,0.3972432,1.692594,0.06920392,-0.4027773,1.576605,0.4432392,-0.443011,1.597667,0.2338179,-0.06944615,1.699708,0.2316273,-0.3934978,1.68217,0.05736613,0.1143179,1.685108,0.1439043,-0.3854614,1.651803,0.01461536,-0.1466053,1.696139,0.4406945,-0.141115,1.678653,NA,NA,NotTracked,NotTracked,
0.9375,-0.3125,0.08984375,0.9453125,0.2368164,0.1308594,1,1,1,-2,-1,-2,-8,-2,-20,-1,-1,1,-1,-3,-1,-4,0.8125,0.8125,0.8125,2.9375,2.9375,2.9375,2.946957,3.046997,3.229473,6.760388,2.970562,9.326678,0.02857678,-0.4152654,1.614901,0.4058297,-0.4555482,1.59195,0.249276,0.3972394,1.692418,0.06840884,-0.4009578,1.575885,0.4387217,-0.4521819,1.584,0.2336106,-0.06948956,1.699371,0.2313634,-0.3935109,1.6819,0.05720007,0.1142486,1.68508,0.1436387,-0.3854352,1.651634,0.014556,-0.1467313,1.696036,0.4403667,-0.1413532,1.678224,NA,NA,NotTracked,NotTracked,
0.9550781,-0.3129883,0.07958984,0.940918,0.2368164,0.128418,1,8,1,-2,-3,-1,16,7,-6,-2,0,-1,-2,-2,-1,-1,0.8125,0.8125,0.8125,2.1875,2.1875,2.1875,2.946329,3.046857,3.228052,6.761489,2.970323,9.327311,0.02866638,-0.4150692,1.614243,0.4052202,-0.45435,1.591177,0.2490207,0.3972103,1.692047,0.06820257,-0.3964349,1.575509,0.4407437,-0.4447452,1.59084,0.2334528,-0.06962088,1.698973,0.2310377,-0.3936339,1.68149,0.05699051,0.1140354,1.684944,0.1433306,-0.3854958,1.651304,0.01468857,-0.1472745,1.695595,0.4400555,-0.1413525,1.677837,NA,NA,NotTracked,NotTracked,
