ALX,ALY,ALZ,ARX,ARY,ARZ,EMG0L,EMG1L,EMG2L,EMG3L,EMG4L,EMG5L,EMG6L,EMG7L,EMG0R,EMG1R,EMG2R,EMG3R,EMG4R,EMG5R,EMG6R,EMG7R,GLX,GLY,GLZ,GRX,GRY,GRZ,ORL,OPL,OYL,ORR,OPR,OYR,LHNX,LHNY,LHNZ,RHNX,RHNY,RHNZ,HX,HY,HZ,LTX,LTY,LTZ,RTX,RTY,RTZ,SpineMidX,SpineMidY,SpineMidZ,SpineBaseX,SpineBaseY,SpineBaseZ,ShoulderLeftX,ShoulderLeftY,ShoulderLeftZ,ShoulderRightX,ShoulderRightY,ShoulderRightZ,ElbowLeftX,ElbowLeftY,ElbowLeftZ,ElbowRightX,ElbowRightY,ElbowRightZ,Myo_Pose_left,Myo_Pose_Right,Kinect_pose_left,Kinect_pose_right
0.9360352,-0.3193359,0.1118164,0.9018555,0.3081055,0.2075195,-3,-12,-2,2,-1,-2,0,-1,-2,-2,-1,2,6,-8,2,1,-4.4375,-4.4375,-4.4375,-1.6875,-1.6875,-1.6875,3.027952,3.051015,3.26032,6.607811,3.120288,9.344452,-0.01650602,-0.4221222,1.499304,0.3214415,-0.4219783,1.476725,0.1846611,0.3990336,1.610703,-0.05832235,-0.3956544,1.504362,0.3587469,-0.4219727,1.471141,0.1764202,-0.06835756,1.606064,0.1675839,-0.3949993,1.584339,-0.004278358,0.1263511,1.58477,0.07981298,-0.3853376,1.552157,-0.03654022,-0.1478726,1.586091,0.3661018,-0.1497459,1.574432,NA,NA,NotTracked,NotTracked,
0.9360352,-0.3120117,0.1054688,0.8974609,0.3193359,0.2050781,-3,-11,-3,0,-2,-3,-28,-3,-2,-2,-1,1,-1,-14,-2,3,-1.25,-1.25,-1.25,-0.25,-0.25,-0.25,3.024502,3.049504,3.259957,6.606509,3.119669,9.34618,-0.01650301,-0.4222281,1.499325,0.3171512,-0.4421452,1.471835,0.1847528,0.3991215,1.610143,-0.05891448,-0.3941629,1.506237,0.3554237,-0.4426926,1.469667,0.1764136,-0.06832355,1.605872,0.1675788,-0.394956,1.58421,-0.004283222,0.1264115,1.584605,0.07982203,-0.3852804,1.551969,-0.03657975,-0.1481316,1.585653,0.3660465,-0.149777,1.574222,NA,NA,NotTracked,NotTracked,
0.9394531,-0.3110352,0.1005859,0.9091797,0.3100586,0.2060547,-9,-10,1,-7,-6,-1,12,2,-1,-1,-1,0,0,-4,0,3,0,0,0,1,1,1,3.022424,3.047053,3.259696,6.600129,3.118801,9.351509,-0.01638374,-0.419284,1.499078,0.3179939,-0.4420648,1.472338,0.1848353,0.3991322,1.609677,-0.05906364,-0.3905309,1.507558,0.3573534,-0.4434821,1.474364,0.1764041,-0.06827801,1.605626,0.1675397,-0.3948888,1.583933,-0.004285136,0.1264232,1.584343,0.07980134,-0.385198,1.55171,-0.03661344,-0.1482146,1.585345,0.3661163,-0.149704,1.573926,NA,NA,NotTracked,NotTracked,
0.9423828,-0.315918,0.1113281,0.9091797,0.3164063,0.2041016,4,13,6,-2,-2,-2,-2,1,-2,-1,0,-2,-3,4,1,1,-0.9375,-0.9375,-0.9375,1.375,1.375,1.375,3.022496,3.046914,3.25988,6.596588,3.119971,9.357584,-0.01286868,-0.4406162,1.494687,0.3173626,-0.4424705,1.471546,0.1848782,0.3991266,1.608766,-0.05471038,-0.4203873,1.498857,0.3600996,-0.4131535,1.474,0.1763714,-0.06826643,1.605444,0.1674473,-0.3948881,1.583811,-0.004260137,0.1264254,1.584091,0.07971356,-0.3851938,1.551539,-0.03665845,-0.1481842,1.585073,0.3661269,-0.1496142,1.573621,NA,NA,NotTracked,NotTracked,
0.9418945,-0.3115234,0.109375,0.9013672,0.3164063,0.2099609,4,-3,-1,-1,-1,-3,6,3,-1,-2,-2,0,0,2,0,1,-1,-1,-1,2.1875,2.1875,2.1875,3.022175,3.046299,3.259854,6.595592,3.120373,9.360221,-0.01572881,-0.422115,1.498718,0.316711,-0.4429259,1.472112,0.1849017,0.3991696,1.608401,-0.05767159,-0.3958594,1.501907,0.3548876,-0.4767136,1.464,0.1763746,-0.06824244,1.605271,0.1674166,-0.3948698,1.583681,-0.004248894,0.1264886,1.583914,0.0796879,-0.3851815,1.551403,-0.03675842,-0.1479546,1.58482,0.366114,-0.1496546,1.573577,NA,NA,NotTracked,NotTracked,
0.9394531,-0.3745117,0.1171875,0.9755859,0.3115234,0.144043,-4,-2,-4,-7,-4,0,-2,-4,1,-1,0,-1,0,-4,4,6,20.8125,20.8125,20.8125,-20.3125,-20.3125,-20.3125,3.028911,3.051195,3.267793,6.586844,3.134062,9.353411,-0.01598154,-0.4269619,1.496429,0.3208072,-0.4230855,1.475337,0.1849525,0.3991314,1.607502,-0.05881612,-0.3948699,1.501063,0.3533596,-0.4461363,1.462273,0.1763806,-0.06820348,1.605018,0.1674387,-0.394848,1.583454,-0.004271135,0.1264514,1.58369,0.07970391,-0.3851876,1.55122,-0.03680942,-0.1482187,1.584302,0.366167,-0.1495895,1.5734,NA,NA,NotTracked,NotTracked,
1.078125,-0.2485352,-0.03466797,1.050293,0.3310547,0.1982422,-3,-3,-5,-8,-20,-33,-26,-8,-3,4,0,-2,-2,-5,-2,-6,152,152,152,-30.8125,-30.8125,-30.8125,3.154097,3.095901,3.329151,6.527777,3.198617,9.358164,-0.01586563,-0.4230976,1.490045,0.3128485,-0.4420874,1.462945,0.1849747,0.3991613,1.606886,-0.0510848,-0.4314051,1.477122,0.3471547,-0.4494646,1.452291,0.1763334,-0.06821904,1.604848,0.1673532,-0.3948842,1.583353,-0.004304274,0.1264184,1.583499,0.07957765,-0.3852088,1.551124,-0.03736173,-0.1479149,1.58493,0.3664544,-0.1494035,1.57387,NA,NA,NotTracked,NotTracked,
0.9892578,-0.4711914,0.3320313,0.8857422,0.5834961,0.425293,-1,-1,2,2,-3,10,-13,-3,0,-8,-5,7,13,7,3,9,95.125,95.125,95.125,-54.8125,-54.8125,-54.8125,3.438796,3.259904,3.326639,6.436183,3.365002,9.378548,-0.0102553,-0.4238499,1.459775,0.2997275,-0.4210389,1.43997,0.1849492,0.3991944,1.60612,-0.04276594,-0.4137554,1.425011,0.301469,-0.4155815,1.384757,0.1762392,-0.06818037,1.604571,0.1671726,-0.3947997,1.58317,-0.004345436,0.126431,1.583375,0.07932745,-0.3851107,1.550916,-0.04100762,-0.1408204,1.59354,0.3683871,-0.1484953,1.577775,NA,NA,NotTracked,Unknown,
0.7314453,-0.5195313,0.5073242,0.7788086,0.5566406,0.6074219,-12,0,-2,4,3,-3,-9,-6,-55,-5,-3,5,-3,-11,-3,-21,39.1875,39.1875,39.1875,-126.8125,-126.8125,-126.8125,3.601116,3.471467,3.265841,6.224304,3.642949,9.385596,-0.01095049,-0.3922308,1.423489,0.2955704,-0.3794788,1.403163,0.1849227,0.399232,1.605181,-0.03649378,-0.3749404,1.369165,0.3026591,-0.363247,1.344538,0.1761632,-0.06819939,1.604381,0.1671155,-0.3948211,1.583135,-0.004364297,0.1265085,1.583282,0.07922135,-0.3851322,1.550856,-0.04371133,-0.138068,1.59944,0.3707136,-0.145237,1.582424,NA,NA,NotTracked,Unknown,
0.7158203,-0.6098633,0.4970703,0.5288086,0.5717773,0.5219727,3,2,0,2,-1,2,7,12,6,-7,-8,5,4,10,-3,0,27.5625,27.5625,27.5625,0.0625,0.0625,0.0625,3.650834,3.682291,3.219138,6.152627,3.956766,9.392321,0.008743085,-0.3562863,1.411875,0.2689377,-0.3419843,1.383232,0.1848039,0.3992374,1.604378,-0.03611083,-0.3105776,1.36414,0.3075567,-0.3026193,1.326111,0.1761554,-0.06819945,1.604227,0.1670908,-0.3948134,1.583075,-0.00439861,0.126621,1.583209,0.07917666,-0.3851319,1.550843,-0.04787062,-0.1235939,1.604797,0.3721849,-0.1352661,1.584727,NA,NA,Unknown,Open,
0.6376953,-0.3251953,0.5712891,0.5771484,0.3720703,0.6831055,3,-5,-2,1,-3,-3,4,10,-15,-7,-6,-5,-7,11,1,-1,58.9375,58.9375,58.9375,-53.1875,-53.1875,-53.1875,3.787184,3.88037,3.192634,6.071605,4.16591,9.375539,-0.006996521,-0.3070147,1.367531,0.2808203,-0.279548,1.324325,0.1847015,0.3991328,1.604059,-0.04482555,-0.27173,1.344027,0.3057629,-0.2619999,1.278154,0.1761395,-0.06820554,1.604184,0.16707,-0.3948235,1.583089,-0.00438662,0.1267536,1.583171,0.07915919,-0.3851729,1.550867,-0.0486379,-0.1125225,1.60643,0.37186,-0.1300049,1.584627,NA,NA,Unknown,Unknown,
0.6430664,-0.5244141,0.5922852,0.3857422,0.4580078,0.6655273,2,-1,0,-4,-2,-2,-1,6,25,-3,-2,3,3,0,4,3,53.75,53.75,53.75,-16.6875,-16.6875,-16.6875,3.857813,4.066484,3.210826,6.036055,4.333727,9.360778,-0.01995805,-0.2574887,1.343956,0.2868607,-0.234708,1.300929,0.1846521,0.3992346,1.603954,-0.05479604,-0.2447464,1.3051,0.3096182,-0.2264042,1.26125,0.1760762,-0.06815287,1.604162,0.1669241,-0.3947127,1.583166,-0.004354931,0.1269083,1.583171,0.07908542,-0.3850652,1.550915,-0.04735138,-0.1075444,1.605092,0.3704664,-0.1225661,1.583416,NA,NA,Unknown,Unknown,
0.4775391,-0.5170898,0.6069336,0.3212891,0.480957,0.6967773,-17,0,-2,1,6,0,2,4,-2,-3,-2,3,-4,-9,-6,-9,24.4375,24.4375,24.4375,-8.125,-8.125,-8.125,3.92885,4.258377,3.234834,6.02287,4.469679,9.343729,-0.02506828,-0.2286779,1.331572,0.2933562,-0.2057781,1.296314,0.1846226,0.3992747,1.604013,-0.05929693,-0.2219703,1.296167,0.3116893,-0.2052405,1.2549,0.1760366,-0.06809977,1.604174,0.1667209,-0.3945447,1.583294,-0.004292453,0.127058,1.583155,0.07898882,-0.3849409,1.551106,-0.04579229,-0.1048898,1.603425,0.3699185,-0.1152655,1.581709,NA,NA,Unknown,Unknown,
0.4077148,-0.5214844,0.6606445,0.2856445,0.5375977,0.7714844,5,-2,-8,2,-8,-19,22,0,-10,1,1,-11,0,3,-17,-8,13.625,13.625,13.625,-6.1875,-6.1875,-6.1875,3.94945,4.340587,3.236193,6.014251,4.518088,9.327806,-0.02743843,-0.2150714,1.320782,0.2888558,-0.1934742,1.277034,0.1845277,0.3993726,1.604362,-0.05442515,-0.2067421,1.282857,0.3191606,-0.1862241,1.262429,0.1759658,-0.06803226,1.604227,0.1665777,-0.3944356,1.583445,-0.004253249,0.1271331,1.583166,0.07893209,-0.3848722,1.551253,-0.04359792,-0.1027382,1.602074,0.3876712,-0.1292429,1.52997,NA,NA,Unknown,Unknown,
0.3779297,-0.5268555,0.7138672,0.2836914,0.5600586,0.7670898,-2,0,-22,3,2,1,3,6,-3,0,0,-6,-27,-7,-2,-23,8.4375,8.4375,8.4375,-3.75,-3.75,-3.75,3.969338,4.387521,3.235952,6.013382,4.541007,9.311593,-0.02488473,-0.204434,1.303256,0.292466,-0.1855723,1.271671,0.1844905,0.3994418,1.604668,-0.04442547,-0.2332211,1.27575,0.3133833,-0.1794641,1.247591,0.1759093,-0.06798189,1.604225,0.1663448,-0.3943126,1.583452,-0.00417848,0.1272592,1.583151,0.07877878,-0.3847588,1.551267,-0.04216871,-0.101601,1.601039,0.3847208,-0.1311049,1.525603,NA,NA,Unknown,Unknown,
0.3701172,-0.6142578,0.7416992,0.253418,0.5776367,0.7973633,3,2,9,-7,-4,-5,21,20,21,7,4,0,1,-2,3,6,3.5625,3.5625,3.5625,-7.125,-7.125,-7.125,3.976277,4.430758,3.25065,6.018113,4.566879,9.292464,-0.02654359,-0.1975241,1.297086,0.2938268,-0.1833992,1.268955,0.1844407,0.3994872,1.604994,-0.04902356,-0.2114631,1.259583,0.3131686,-0.200093,1.251375,0.1758349,-0.0679289,1.604238,0.1661263,-0.3942118,1.583553,-0.004120736,0.1273577,1.583138,0.07862543,-0.3846445,1.551377,-0.0408991,-0.09867407,1.598925,0.3856837,-0.1297332,1.52786,NA,NA,Closed,Unknown,
0.3496094,-0.6098633,0.7749023,0.2749023,0.6142578,0.8046875,2,-5,0,0,3,1,4,-3,21,0,-5,-6,-16,4,-6,3,4.0625,4.0625,4.0625,-15.4375,-15.4375,-15.4375,3.978796,4.461213,3.266587,6.013348,4.599879,9.261794,-0.03179257,-0.1904696,1.290844,0.3002023,-0.1766261,1.26806,0.1844192,0.3995501,1.605298,-0.0472793,-0.213992,1.26889,0.324215,-0.1784757,1.249,0.1757529,-0.06787755,1.604247,0.1658396,-0.3940703,1.583699,-0.004048259,0.1274455,1.583095,0.07841499,-0.3844988,1.551476,-0.04170308,-0.1081182,1.592541,0.3849765,-0.129518,1.527837,NA,NA,Closed,Unknown,
0.3408203,-0.6176758,0.7363281,0.2080078,0.6000977,0.7260742,15,-2,-5,0,3,10,12,-2,-7,-14,-10,-23,-17,0,-1,9,14.5625,14.5625,14.5625,-11.9375,-11.9375,-11.9375,3.98107,4.506682,3.32983,6.00198,4.63273,9.205956,-0.04164828,-0.1819854,1.286916,0.3107221,-0.1697154,1.26475,0.1843733,0.3996694,1.605312,-0.05172418,-0.2083587,1.271595,0.3287065,-0.1838122,1.244,0.1757065,-0.06784015,1.604269,0.1656599,-0.3939963,1.583902,-0.003971492,0.127522,1.582997,0.07828704,-0.3844578,1.551603,-0.04055122,-0.1194232,1.570588,0.3838739,-0.1237937,1.542563,NA,NA,Closed,Unknown,
0.2905273,-0.5791016,0.6899414,0.2231445,0.5551758,0.7856445,-10,-5,-7,-3,-13,-17,1,0,-22,-4,-2,-3,4,-3,3,11,9.5625,9.5625,9.5625,0.1875,0.1875,0.1875,3.973511,4.531452,3.413273,6.009,4.626399,9.123723,-0.05864748,-0.1769819,1.286963,0.3138446,-0.1553006,1.202212,0.1843921,0.3997332,1.605294,-0.07359981,-0.2007853,1.2699,0.2949841,-0.1520234,1.1796,0.1756565,-0.06779306,1.604282,0.1655209,-0.3938998,1.584063,-0.003877666,0.1276475,1.582895,0.07818973,-0.3843781,1.551708,-0.04067974,-0.113328,1.582206,0.3785253,-0.1274074,1.537446,NA,NA,Closed,Unknown,
0.2524414,-0.5717773,0.6860352,0.2416992,0.519043,0.8388672,-1,0,6,-4,4,-4,16,8,-21,-7,-3,0,-5,-8,-2,-30,4.5,4.5,4.5,0.25,0.25,0.25,3.957558,4.535213,3.47709,6.008694,4.593013,9.079288,-0.07853345,-0.1820223,1.301221,0.3436564,-0.1729995,1.275147,0.1844451,0.3996959,1.605072,-0.05293887,-0.1906098,1.273,0.3092116,-0.1602085,1.227429,0.1756478,-0.06780025,1.604298,0.1654604,-0.3940521,1.584298,-0.003819535,0.1277316,1.582793,0.07808276,-0.3845622,1.551931,-0.0385297,-0.1138496,1.594122,0.3708191,-0.1146773,1.582953,NA,NA,Closed,Unknown,
0.3964844,-0.5244141,0.8139648,0.2373047,0.5229492,0.8569336,14,0,-3,-4,4,10,22,4,1,2,2,5,1,-4,-20,11,1.25,1.25,1.25,0.4375,0.4375,0.4375,3.937273,4.480158,3.594778,6.003037,4.557003,9.063722,-0.0915689,-0.1910359,1.308643,0.3523385,-0.1828978,1.289125,0.1845295,0.3997605,1.604872,-0.07582172,-0.1832782,1.261714,0.316562,-0.1726676,1.2315,0.1756205,-0.06788418,1.604292,0.1653738,-0.394487,1.584412,-0.003683854,0.1278138,1.58263,0.07789109,-0.3850178,1.551973,-0.03486401,-0.1184308,1.600089,0.3719815,-0.120594,1.587947,NA,NA,Closed,Closed,
0.3662109,-0.5029297,0.8095703,0.2216797,0.5136719,0.871582,-2,-2,6,-1,-3,2,8,25,5,-7,1,-2,-3,13,6,6,-9.25,-9.25,-9.25,0.5,0.5,0.5,3.944778,4.430177,3.592601,5.987274,4.526691,9.113414,-0.08809928,-0.2011138,1.314123,0.3499675,-0.1921443,1.296085,0.184649,0.399774,1.604568,-0.06184876,-0.2128219,1.285357,0.3178553,-0.1822837,1.25425,0.1756103,-0.06787636,1.604289,0.1653688,-0.3944826,1.584456,-0.003616638,0.1278972,1.582523,0.07787418,-0.3850017,1.551969,-0.03441044,-0.1176604,1.604854,0.3757366,-0.1201298,1.594639,NA,NA,Closed,Closed,
0.3164063,-0.4785156,0.8198242,0.2680664,0.6000977,0.8491211,0,10,2,4,5,16,-16,-17,-7,2,1,0,-9,-1,2,-3,-5.375,-5.375,-5.375,0.75,0.75,0.75,3.969818,4.390753,3.522349,5.970283,4.527265,9.182476,-0.07331807,-0.2114616,1.31249,0.3376033,-0.1972552,1.297037,0.1847522,0.3998605,1.604429,-0.07758255,-0.2434933,1.293875,0.2984446,-0.1918575,1.2265,0.1756188,-0.0678585,1.604273,0.1653714,-0.3944254,1.584475,-0.003538781,0.1279316,1.58244,0.07789417,-0.3849497,1.551935,-0.03468761,-0.1169698,1.605663,0.376706,-0.1201605,1.594244,NA,NA,Closed,Closed,
0.3950195,-0.6108398,0.7832031,0.3046875,0.6347656,0.8344727,-6,-10,1,-7,-6,-3,-26,-20,-7,0,3,6,13,-8,-7,-10,-1.3125,-1.3125,-1.3125,4.1875,4.1875,4.1875,4.000375,4.376899,3.426584,5.955535,4.550633,9.253124,-0.04925261,-0.2128042,1.314575,0.3208623,-0.1963065,1.29279,0.1848247,0.399803,1.604224,-0.03210292,-0.2378403,1.3041,0.2848819,-0.1988045,1.29075,0.1756189,-0.06783789,1.604214,0.1653953,-0.3943871,1.584393,-0.003450118,0.1279566,1.582353,0.07792593,-0.3849298,1.551827,-0.03403355,-0.1107259,1.602955,0.3800794,-0.1293925,1.549801,NA,NA,Closed,Unknown,
0.3925781,-0.6318359,0.7739258,0.2431641,0.5712891,0.8520508,-2,-1,4,-2,-3,-4,-17,-15,6,-5,-3,7,54,-6,-19,9,-12.25,-12.25,-12.25,7.875,7.875,7.875,4.029527,4.40871,3.289923,5.948191,4.60955,9.347282,-0.0280406,-0.2059913,1.306795,0.3056119,-0.1899932,1.287051,0.1848505,0.3997684,1.60421,-0.04096574,-0.2327959,1.278125,0.2633699,-0.1825683,1.27,0.1756147,-0.06782838,1.604205,0.1653943,-0.394351,1.584377,-0.00340876,0.1279607,1.58235,0.07793812,-0.384881,1.551814,-0.0341047,-0.1060593,1.600652,0.3794482,-0.1297408,1.546726,NA,NA,Closed,Unknown,
0.3178711,-0.5888672,0.7915039,0.2172852,0.5825195,0.8261719,15,0,8,1,2,9,50,2,25,-2,-4,-17,-33,-6,3,-1,-9.5625,-9.5625,-9.5625,5.5625,5.5625,5.5625,4.034783,4.464867,3.195095,5.950199,4.664565,9.396253,-0.01154846,-0.1936256,1.311574,0.279869,-0.1814071,1.239417,0.184824,0.3997316,1.604202,-0.03926025,-0.1931316,1.274917,0.2412316,-0.1713505,1.214,0.1755859,-0.06781713,1.604194,0.1653539,-0.3943161,1.584355,-0.003360568,0.1279844,1.582356,0.07793169,-0.3848165,1.551792,-0.03407721,-0.1001607,1.597325,0.3820545,-0.1271525,1.542457,NA,NA,Unknown,Unknown,
0.2919922,-0.597168,0.7700195,0.2060547,0.6245117,0.8066406,-4,-7,2,3,-1,-9,-50,-15,-17,-1,1,8,22,10,-6,3,-6.375,-6.375,-6.375,1.1875,1.1875,1.1875,4.037102,4.537781,3.125233,5.955856,4.722464,9.408786,0.004225198,-0.1762833,1.291845,0.2809457,-0.1653301,1.270744,0.1847372,0.3996441,1.604424,-0.02224372,-0.1738468,1.272111,0.2294071,-0.1542604,1.2214,0.175534,-0.06776753,1.604249,0.1652792,-0.3941627,1.584426,-0.003279817,0.1280455,1.582361,0.07791356,-0.3846072,1.551773,-0.04209882,-0.09974161,1.595116,0.3903672,-0.1184074,1.545439,NA,NA,Unknown,Unknown,
0.2827148,-0.5722656,0.7392578,0.2060547,0.6308594,0.7978516,-3,-3,-1,2,9,17,63,21,-2,0,-1,0,5,-4,-25,-6,-0.75,-0.75,-0.75,-1.875,-1.875,-1.875,4.037739,4.601137,3.089774,5.974855,4.795225,9.357603,0.005327812,-0.1615608,1.283928,0.2824047,-0.1530324,1.262687,0.1844563,0.3996436,1.60483,-0.02098515,-0.1646738,1.258133,0.3047271,-0.1613163,1.240384,0.1753654,-0.06770648,1.604407,0.1649863,-0.3939648,1.584692,-0.003228105,0.1280718,1.582357,0.07773933,-0.3844213,1.551909,-0.04997268,-0.1035229,1.586432,0.3914708,-0.1172929,1.545988,NA,NA,Unknown,Unknown,
0.2797852,-0.6020508,0.7558594,0.1157227,0.5908203,0.8046875,-3,2,0,-6,-6,-2,16,-11,2,5,2,-1,8,-5,-9,0,7.25,7.25,7.25,6,6,6,4.033587,4.658628,3.10332,5.990253,4.841512,9.286696,-0.001983969,-0.1476354,1.274162,0.2954746,-0.1407412,1.253314,0.1842138,0.3996358,1.605081,-0.02382863,-0.1661449,1.255667,0.3240966,-0.1357633,1.234333,0.1752509,-0.0676417,1.604511,0.1647019,-0.3937841,1.584857,-0.003215927,0.1280641,1.582382,0.07753426,-0.3842149,1.552025,-0.05465193,-0.1040542,1.582251,0.3902219,-0.112454,1.548332,NA,NA,Unknown,Unknown,
0.184082,-0.581543,0.7919922,0.07617188,0.5375977,0.8129883,8,5,0,0,0,0,3,15,-32,-11,-6,-5,-5,-7,-1,-14,3.5,3.5,3.5,4.9375,4.9375,4.9375,4.022002,4.735638,3.176577,6.001183,4.872815,9.202252,-0.01993806,-0.1360562,1.262986,0.3151224,-0.1283972,1.24699,0.1839472,0.3996254,1.605361,-0.04364226,-0.1493979,1.255364,0.3215269,-0.1523104,1.240377,0.1751029,-0.06767912,1.604637,0.1643663,-0.3939239,1.585021,-0.003189773,0.1281031,1.582395,0.07722711,-0.3843274,1.552133,-0.05600135,-0.09975928,1.580028,0.3691527,-0.1089401,1.573174,NA,NA,Unknown,Unknown,
0.1323242,-0.5571289,0.8188477,0.07373047,0.5351563,0.8344727,-10,5,-3,6,5,15,27,-22,0,-7,-5,-1,-13,1,-5,13,-3.5,-3.5,-3.5,4.3125,4.3125,4.3125,4.003591,4.788016,3.271549,6.004439,4.888576,9.096107,-0.03555208,-0.1282034,1.261253,0.3353955,-0.1217284,1.245938,0.1837762,0.3998092,1.605866,-0.05777014,-0.1409977,1.252273,0.3645412,-0.1043388,1.2224,0.1750015,-0.06782614,1.604791,0.164149,-0.3944465,1.585256,-0.00318435,0.1281541,1.582426,0.07689299,-0.3849147,1.552376,-0.0497041,-0.09220792,1.588283,0.3641978,-0.1092251,1.575554,NA,NA,Unknown,Closed,
0.1176758,-0.5341797,0.8251953,0.07128906,0.5263672,0.8525391,-9,-4,1,3,5,10,4,-22,20,-2,-4,-5,-24,2,11,5,-3.75,-3.75,-3.75,2.8125,2.8125,2.8125,3.99462,4.803161,3.338639,6.003241,4.877527,9.041827,-0.04976871,-0.1251814,1.261102,0.3513589,-0.1215862,1.249552,0.1837291,0.3997606,1.606159,-0.06253833,-0.1454309,1.255417,0.3194338,-0.1114928,1.234357,0.1749558,-0.06785426,1.604884,0.1641155,-0.3945475,1.585313,-0.003143827,0.1282545,1.582447,0.07683095,-0.3850005,1.552414,-0.03875435,-0.09230596,1.600903,0.3546291,-0.1415248,1.52776,NA,NA,Unknown,Closed,
0.1655273,-0.5493164,0.8378906,0.06298828,0.5302734,0.8842773,12,7,-14,-6,-3,3,9,-9,4,4,10,34,31,3,0,1,1.8125,1.8125,1.8125,-4.625,-4.625,-4.625,3.993584,4.791883,3.394411,5.99695,4.857388,9.031414,-0.06407616,-0.1140716,1.231879,0.3592977,-0.1258226,1.259996,0.1837781,0.3997386,1.606495,-0.08019592,-0.1111238,1.2105,0.3302075,-0.1136557,1.211667,0.1749203,-0.06788258,1.605028,0.1640849,-0.394683,1.585478,-0.003074439,0.1284144,1.582492,0.07676982,-0.3852324,1.552606,-0.04045771,-0.09489103,1.573571,0.3597727,-0.10936,1.578075,NA,NA,Closed,Unknown,
0.1381836,-0.5029297,0.8598633,0.06787109,0.5361328,0.8930664,0,-1,0,0,-2,-6,-16,-5,16,1,-5,-7,-3,7,0,1,-4.875,-4.875,-4.875,2.875,2.875,2.875,3.999216,4.774763,3.385622,5.982011,4.836857,9.067114,-0.04783124,-0.1347723,1.27201,0.3555198,-0.1331894,1.26677,0.1838332,0.399678,1.606689,-0.05959753,-0.1564104,1.259364,0.3249987,-0.1221803,1.213571,0.174866,-0.06786118,1.605106,0.1640094,-0.3946396,1.585548,-0.003038187,0.1284984,1.582507,0.07670046,-0.3851496,1.552736,-0.03896005,-0.09394078,1.587636,0.3582236,-0.1406797,1.538672,NA,NA,Unknown,Unknown,
0.1381836,-0.5405273,0.8427734,0.1015625,0.6166992,0.8725586,-3,10,-6,-4,-5,-13,-14,4,-12,-3,-7,-4,-1,3,-17,-3,2.5625,2.5625,2.5625,-0.75,-0.75,-0.75,4.023555,4.742341,3.303406,5.958719,4.827274,9.15586,-0.0320232,-0.1423906,1.276082,0.3414194,-0.1399405,1.271668,0.1839995,0.3996738,1.606851,-0.03277509,-0.1654554,1.263938,0.3066524,-0.140457,1.241,0.1748386,-0.06783885,1.605174,0.1639114,-0.3945632,1.585653,-0.003012631,0.1285421,1.582533,0.07663022,-0.3850326,1.552918,-0.05036797,-0.09145186,1.589988,0.3590507,-0.133855,1.551773,NA,NA,Closed,Unknown,
0.2055664,-0.6582031,0.8032227,0.09521484,0.6484375,0.8305664,1,11,10,3,10,23,1,-2,29,2,-1,4,-2,-7,-7,6,-4.0625,-4.0625,-4.0625,0.9375,0.9375,0.9375,4.03247,4.730479,3.197963,5.958245,4.834664,9.225715,-0.01074798,-0.1420221,1.279529,0.3230859,-0.1409214,1.272747,0.1841691,0.3996823,1.60703,-0.02659138,-0.1699026,1.266143,0.2871081,-0.1396063,1.235455,0.1747861,-0.06778165,1.605256,0.1638144,-0.3944499,1.585745,-0.00296778,0.1285724,1.582555,0.07657122,-0.3848841,1.552974,-0.05305386,-0.09110032,1.587589,0.3664435,-0.1188247,1.571074,NA,NA,Unknown,Unknown,
0.1875,-0.6235352,0.8051758,0.1015625,0.5932617,0.7563477,-7,0,5,-1,-4,-3,-12,-12,-67,-12,-6,0,0,-3,-25,-47,-1.75,-1.75,-1.75,15.75,15.75,15.75,4.033522,4.731027,3.153887,5.979566,4.840078,9.281227,-0.001720963,-0.1406184,1.275254,0.3137834,-0.1397135,1.266892,0.1843582,0.3997627,1.607376,-0.02854598,-0.1427588,1.260308,0.2695806,-0.1305717,1.2056,0.1740035,-0.06761377,1.604854,0.1637356,-0.3941565,1.585947,-0.002926184,0.1286175,1.582528,0.07646062,-0.3844692,1.553126,-0.05688453,-0.09371424,1.584732,0.3709973,-0.1113209,1.569798,NA,NA,Unknown,Closed,
0.1748047,-0.6259766,0.7167969,0.07763672,0.5249023,0.7480469,9,-1,-9,-4,-6,-3,-8,1,-1,-2,-1,3,8,10,6,-3,-15.5,-15.5,-15.5,22.1875,22.1875,22.1875,4.015339,4.723893,3.129299,6.006609,4.804759,9.287908,-0.003348668,-0.1472681,1.283024,0.3087607,-0.1410539,1.268966,0.1844178,0.3997372,1.607364,-0.02347432,-0.1608741,1.259108,0.2633548,-0.1411582,1.2265,0.1740176,-0.06758934,1.604882,0.1636619,-0.3940774,1.585946,-0.002827349,0.1286679,1.582469,0.07642633,-0.3843845,1.553116,-0.05640514,-0.1075281,1.55291,0.3731647,-0.109034,1.569747,NA,NA,Unknown,Closed,
0.1669922,-0.5239258,0.7177734,0.1416016,0.5288086,0.7602539,-1,-1,-11,-2,-4,-3,10,24,-31,-4,0,-1,-1,-1,-2,-11,-25.4375,-25.4375,-25.4375,29.5,29.5,29.5,3.978913,4.672364,3.141372,6.054264,4.720935,9.280211,-0.004877963,-0.1612764,1.285231,0.3099394,-0.1548252,1.272727,0.1845749,0.3997492,1.607468,-0.03189944,-0.1648856,1.26403,0.2634637,-0.164298,1.202,0.1740606,-0.06754204,1.604935,0.1636638,-0.3940087,1.585928,-0.002761908,0.1287737,1.582442,0.0764503,-0.3843078,1.553089,-0.0574873,-0.09900591,1.577537,0.3769402,-0.1086525,1.565001,NA,NA,Unknown,Unknown,
0.2871094,-0.5678711,0.7749023,0.2456055,0.5371094,0.7285156,6,-1,-3,-5,-6,-1,-16,-6,16,5,0,1,4,-4,4,3,-19.5,-19.5,-19.5,20.625,20.625,20.625,3.939455,4.57894,3.151246,6.118431,4.542869,9.283955,-0.003702795,-0.1925832,1.297421,0.2999569,-0.1994425,1.229396,0.1846684,0.3997346,1.607544,-0.03413874,-0.2041063,1.2653,0.2710656,-0.2038626,1.233222,0.1741536,-0.06749472,1.604931,0.1638096,-0.393908,1.585717,-0.002743485,0.1287902,1.582436,0.07668408,-0.3841877,1.552833,-0.05930856,-0.1022082,1.579752,0.3834087,-0.112671,1.557799,NA,NA,Lasso,Unknown,
0.4658203,-0.715332,0.815918,0.3896484,0.4521484,0.6401367,2,-1,-7,-5,-4,-5,-3,-8,0,-4,-4,-3,3,-5,-8,-2,-18.8125,-18.8125,-18.8125,89.3125,89.3125,89.3125,3.892558,4.402567,3.151572,6.202515,4.333678,9.278571,0.002028166,-0.2318187,1.30196,0.29912,-0.235379,1.281128,0.1847496,0.3997758,1.607859,-0.02128673,-0.2319456,1.24125,0.2641162,-0.2579754,1.256647,0.1742738,-0.06745744,1.604924,0.1641836,-0.3938724,1.585402,-0.002727163,0.1288052,1.582458,0.07712884,-0.384231,1.552563,-0.06098681,-0.09986752,1.584214,0.3825738,-0.1158927,1.561977,NA,NA,Unknown,Unknown,
0.265625,-0.4375,0.5332031,0.6196289,0.7050781,0.5,-3,4,6,3,-2,-2,-5,-12,5,-3,0,3,-3,-13,-1,-10,-82.75,-82.75,-82.75,85.625,85.625,85.625,3.833575,4.22939,3.166481,6.382289,4.105793,9.262734,0.005863773,-0.2911236,1.303402,0.2945334,-0.2971832,1.290743,0.1848229,0.3999443,1.608343,-0.02493107,-0.2560684,1.282077,0.268568,-0.3241006,1.289734,0.1745222,-0.06745651,1.604925,0.1648513,-0.3940319,1.585001,-0.002743881,0.1287676,1.582513,0.07787748,-0.3844899,1.552162,-0.01180792,-0.1639907,1.562411,0.3740851,-0.1216332,1.562905,NA,NA,Unknown,Open,
0.675293,-0.5371094,0.425293,0.8007813,0.6367188,0.5068359,-4,-5,-6,0,-2,-1,2,2,0,0,-2,0,-3,-3,-3,-5,-40.5625,-40.5625,-40.5625,71.75,71.75,71.75,3.649343,3.895253,3.214578,6.488803,3.895096,9.278898,0.002946826,-0.3436908,1.360154,0.2956893,-0.3413082,1.314231,0.1848404,0.4000117,1.608634,-0.02520068,-0.2996123,1.33395,0.2726006,-0.399433,1.314533,0.1751193,-0.06756085,1.604558,0.1664525,-0.3945047,1.583374,-0.002784691,0.1286323,1.582525,0.07908472,-0.3852346,1.550655,-0.04115553,-0.1023682,1.588564,0.3710837,-0.1223165,1.56586,NA,NA,Unknown,Unknown,
0.9238281,-0.5537109,0.4584961,0.7407227,0.5185547,0.4042969,-4,-4,-8,-5,-5,-11,-25,-8,-3,1,-1,-2,0,-2,5,1,-34,-34,-34,23.75,23.75,23.75,3.548282,3.661004,3.260964,6.571992,3.642993,9.298514,-0.01940516,-0.3728063,1.378522,0.3006243,-0.3753411,1.357029,0.1848927,0.4000049,1.608765,-0.02838871,-0.3594694,1.333111,0.3144903,-0.4143282,1.339875,0.175383,-0.06763484,1.604241,0.1667935,-0.3946877,1.582557,-0.002845768,0.1285423,1.582509,0.07925522,-0.3854191,1.550014,-0.0386085,-0.1106569,1.585566,0.3693428,-0.1257642,1.567305,NA,NA,Unknown,Unknown,
0.9555664,-0.449707,0.2246094,0.8417969,0.4492188,0.3012695,-1,-16,-4,0,-1,3,-8,20,-11,0,0,13,40,-10,-1,-3,-109.875,-109.875,-109.875,49.8125,49.8125,49.8125,3.373456,3.454326,3.322281,6.623608,3.435288,9.312728,-0.02494942,-0.4019095,1.418372,0.3079042,-0.4212824,1.398189,0.1848855,0.400048,1.608815,-0.03564176,-0.4062975,1.3707,0.3415017,-0.4112314,1.408818,0.1754144,-0.06769047,1.604101,0.1666766,-0.3948448,1.582291,-0.002956751,0.1283868,1.582446,0.07911858,-0.3855503,1.549796,-0.03845242,-0.1203039,1.584234,0.3686022,-0.135824,1.568627,NA,NA,Unknown,Unknown,
