ALX,ALY,ALZ,ARX,ARY,ARZ,EMG0L,EMG1L,EMG2L,EMG3L,EMG4L,EMG5L,EMG6L,EMG7L,EMG0R,EMG1R,EMG2R,EMG3R,EMG4R,EMG5R,EMG6R,EMG7R,GLX,GLY,GLZ,GRX,GRY,GRZ,ORL,OPL,OYL,ORR,OPR,OYR,LHNX,LHNY,LHNZ,RHNX,RHNY,RHNZ,HX,HY,HZ,LTX,LTY,LTZ,RTX,RTY,RTZ,SpineMidX,SpineMidY,SpineMidZ,SpineBaseX,SpineBaseY,SpineBaseZ,ShoulderLeftX,ShoulderLeftY,ShoulderLeftZ,ShoulderRightX,ShoulderRightY,ShoulderRightZ,ElbowLeftX,ElbowLeftY,ElbowLeftZ,ElbowRightX,ElbowRightY,ElbowRightZ,Myo_Pose_left,Myo_Pose_Right,Kinect_pose_left,Kinect_pose_right
0.6923828,-0.5688477,0.5073242,0.5493164,0.5991211,0.5976563,3,-5,1,1,13,20,21,7,3,-4,-5,1,-3,-4,0,-5,29.8125,29.8125,29.8125,-18.8125,-18.8125,-18.8125,3.680437,3.755024,3.058105,6.210772,4.018661,7.201603,0.01773995,-0.3520075,1.4147,0.2697206,-0.3178054,1.352486,0.1865548,0.4022315,1.625726,0.06311829,-0.3839527,1.464464,0.2971567,-0.2786128,1.316054,0.1721098,-0.06690806,1.615555,0.1668471,-0.3927398,1.592428,-0.003488885,0.1281635,1.591092,0.07849483,-0.3832762,1.560079,-0.03818185,-0.1177971,1.608738,0.3639964,-0.1275583,1.592693,NA,NA,Unknown,Open,
0.6704102,-0.6113281,0.5566406,0.5576172,0.5683594,0.6181641,2,3,5,8,21,14,37,12,5,-5,-5,-6,-11,1,-1,1,34.9375,34.9375,34.9375,-20.9375,-20.9375,-20.9375,3.72794,3.85962,3.054732,6.17174,4.110508,7.208404,0.006612563,-0.3259669,1.379013,0.2693949,-0.2932196,1.332323,0.1864566,0.4022325,1.625712,0.03752751,-0.3578625,1.318154,0.2946102,-0.2689138,1.289571,0.1726143,-0.06686779,1.615558,0.1669836,-0.3927964,1.592549,-0.003490566,0.1282409,1.591148,0.07868497,-0.3833549,1.560139,-0.0391067,-0.1129159,1.609632,0.3643077,-0.1207051,1.594539,NA,NA,Unknown,Open,
0.6176758,-0.5161133,0.5473633,0.4731445,0.5883789,0.6513672,-4,7,4,2,6,7,-9,-3,25,8,6,3,16,-8,2,7,27.125,27.125,27.125,-24.5,-24.5,-24.5,3.796163,3.971143,3.064797,6.126603,4.233915,7.200676,-0.006641794,-0.2887344,1.349764,0.2694826,-0.2701657,1.320267,0.1863266,0.4021917,1.625679,0.02846714,-0.3116849,1.324348,0.2962808,-0.2500895,1.276673,0.1728744,-0.06684835,1.615596,0.1669719,-0.3927393,1.592661,-0.003509193,0.1283067,1.59122,0.07877147,-0.3832764,1.560192,-0.03925051,-0.1088248,1.61002,0.3642098,-0.1180012,1.594304,NA,NA,Open,Unknown,
0.6123047,-0.6171875,0.6181641,0.3955078,0.5957031,0.7260742,-4,-3,1,4,3,-5,-25,-2,16,-1,-2,0,1,8,8,15,46.5,46.5,46.5,-29.75,-29.75,-29.75,3.821616,4.097692,3.093147,6.089676,4.333225,7.184672,-0.01549465,-0.2536869,1.336206,0.272855,-0.2462595,1.309765,0.1860609,0.4020134,1.62561,0.02030888,-0.2672407,1.3296,0.2986841,-0.2310514,1.27,0.1724149,-0.06680474,1.615748,0.1668495,-0.392471,1.592902,-0.003555507,0.1284596,1.591289,0.07880671,-0.3829742,1.560318,-0.03887641,-0.1076662,1.609882,0.3633478,-0.1159365,1.593593,NA,NA,Unknown,Unknown,
0.4707031,-0.5732422,0.6420898,0.3251953,0.578125,0.7314453,7,2,3,-3,4,-9,40,15,19,4,2,2,-1,-1,5,-2,26.625,26.625,26.625,-9.4375,-9.4375,-9.4375,3.875293,4.224938,3.111804,6.06792,4.440498,7.155951,-0.02348874,-0.2236688,1.322723,0.2825423,-0.2191077,1.299428,0.1858879,0.4018722,1.625559,0.009738128,-0.2243176,1.318438,0.3067556,-0.2061112,1.265684,0.1719642,-0.0667803,1.615942,0.1664438,-0.3921617,1.593292,-0.003557967,0.1285491,1.591289,0.07857981,-0.3826182,1.560594,-0.03864349,-0.1045558,1.608169,0.3631327,-0.1111233,1.592741,NA,NA,Unknown,Unknown,
0.4194336,-0.5742188,0.7573242,0.2856445,0.5444336,0.784668,-7,-5,-4,-1,8,24,26,-10,-24,-6,-5,-11,-2,-1,3,-1,28.5625,28.5625,28.5625,-20.625,-20.625,-20.625,3.929629,4.405449,3.14523,6.041338,4.582286,7.109009,-0.03110956,-0.1998065,1.310355,0.289382,-0.192217,1.290745,0.1856611,0.4017275,1.625393,-0.001802724,-0.2029396,1.226818,0.2984572,-0.2197255,1.266029,0.1714726,-0.06681916,1.615911,0.1660052,-0.3919668,1.593453,-0.003562547,0.1286179,1.591277,0.07826084,-0.3824124,1.560658,-0.03820014,-0.1011938,1.606021,0.3803691,-0.1203522,1.545809,NA,NA,Closed,Unknown,
0.3227539,-0.6323242,0.722168,0.2236328,0.6503906,0.7504883,-3,-2,0,-1,-2,-1,7,6,3,5,11,5,-3,1,2,2,23.625,23.625,23.625,-13.1875,-13.1875,-13.1875,3.959949,4.503924,3.188271,6.03881,4.68358,7.043709,-0.04098499,-0.1792971,1.299621,0.3045915,-0.1669605,1.279138,0.1853145,0.4015465,1.625155,-0.02379443,-0.1676396,1.2316,0.3261071,-0.1566426,1.255294,0.1709615,-0.06672163,1.615947,0.1655149,-0.3915863,1.593785,-0.003588547,0.1287013,1.591233,0.07784136,-0.3819261,1.560883,-0.03695853,-0.09664856,1.603134,0.3580354,-0.1074812,1.594255,NA,NA,Unknown,Closed,
0.269043,-0.5849609,0.7163086,0.1591797,0.5727539,0.753418,-3,0,1,-1,5,7,2,1,-5,4,11,5,-3,-7,-5,-8,26.625,26.625,26.625,-7.875,-7.875,-7.875,3.982327,4.594287,3.250005,6.035071,4.762373,6.965737,-0.05418607,-0.1609958,1.28989,0.3216123,-0.148839,1.273181,0.1849644,0.40133,1.624693,-0.04909321,-0.1386823,1.249,0.3261164,-0.1754387,1.2608,0.1705554,-0.06686035,1.616037,0.1651874,-0.3918386,1.594135,-0.003306803,0.1266652,1.591694,0.07755804,-0.3821723,1.56112,-0.03652969,-0.1029755,1.594232,0.3607153,-0.1093775,1.593014,NA,NA,Closed,Closed,
0.206543,-0.5209961,0.7792969,0.07617188,0.515625,0.7797852,-25,-14,-5,-3,3,0,-11,-13,12,5,2,4,1,1,6,16,9.5,9.5,9.5,-2.625,-2.625,-2.625,3.981867,4.675687,3.337933,6.034622,4.813354,6.860533,-0.06767868,-0.1483064,1.28753,0.3428941,-0.135904,1.274524,0.1846903,0.4012127,1.624362,-0.04834536,-0.1363659,1.242842,0.3738733,-0.1281546,1.259714,0.1701652,-0.0671522,1.616057,0.164932,-0.3924762,1.594505,-0.002413757,0.1251243,1.592265,0.07718514,-0.3827938,1.561358,-0.03485014,-0.1056743,1.5889,0.3606119,-0.1265186,1.544996,NA,NA,Closed,Closed,
0.1879883,-0.5288086,0.7768555,0.09423828,0.5385742,0.7919922,2,1,3,-3,0,14,31,1,12,8,14,7,14,2,-21,24,-0.9375,-0.9375,-0.9375,-0.1875,-0.1875,-0.1875,3.981705,4.693076,3.396048,6.035093,4.797691,6.796622,-0.08053178,-0.1443758,1.285943,0.3595191,-0.1360952,1.278797,0.1843406,0.4010606,1.623936,-0.06873982,-0.131309,1.2208,0.3813153,-0.1374904,1.2534,0.169945,-0.06728242,1.615939,0.1647406,-0.3926384,1.59463,-0.002468713,0.1252901,1.591983,0.07699787,-0.3829681,1.561368,-0.03055502,-0.1094425,1.586403,0.3599563,-0.1100139,1.593258,NA,NA,Closed,Unknown,
0.1870117,-0.4853516,0.7529297,0.1557617,0.5307617,0.831543,-10,-6,-3,0,2,-8,-12,-15,-32,-8,-8,15,-14,1,1,-1,-7.1875,-7.1875,-7.1875,-1.25,-1.25,-1.25,3.986977,4.662,3.426865,6.027091,4.744228,6.775038,-0.08435632,-0.1599538,1.294828,0.3675114,-0.148269,1.285132,0.1839831,0.4010819,1.623546,-0.05524698,-0.1659774,1.265462,0.390938,-0.1288724,1.2742,0.1697229,-0.06741732,1.615764,0.1646951,-0.3927997,1.594673,-0.002465914,0.1259026,1.591377,0.0769417,-0.3831423,1.561327,-0.03117737,-0.1241024,1.558558,0.3597517,-0.1351822,1.581134,NA,NA,Closed,Unknown,
0.2788086,-0.4604492,0.7900391,0.152832,0.5131836,0.8725586,25,11,-3,-7,-5,-3,14,33,-6,0,11,2,-3,7,9,-9,-10.625,-10.625,-10.625,-2.9375,-2.9375,-2.9375,4.005834,4.55316,3.374004,6.005287,4.685338,6.804725,-0.07336488,-0.1848406,1.303856,0.364344,-0.1662442,1.289635,0.1837514,0.4009944,1.623195,-0.08576472,-0.2206677,1.2856,0.3940023,-0.1476279,1.266778,0.1696695,-0.06744941,1.615692,0.1647779,-0.3928322,1.594641,-0.002399784,0.1257703,1.591216,0.07700313,-0.383249,1.561233,-0.03063959,-0.1122214,1.595237,0.3600324,-0.1336384,1.589351,NA,NA,Closed,Unknown,
0.3764648,-0.6274414,0.8637695,0.1791992,0.625,0.8530273,4,2,1,9,1,4,1,77,-7,-1,4,1,-4,-1,1,-10,-17.75,-17.75,-17.75,1.375,1.375,1.375,3.997516,4.459968,3.273682,5.985649,4.618222,6.889297,-0.05023481,-0.203223,1.311612,0.3502919,-0.182035,1.291258,0.183615,0.4008991,1.622949,-0.01411657,-0.2110518,1.299,0.3808233,-0.1615251,1.277125,0.1696916,-0.0674335,1.615608,0.1649605,-0.3925994,1.594576,-0.00254377,0.126507,1.590757,0.07721601,-0.3830414,1.561153,-0.03141583,-0.1085758,1.596261,0.3608076,-0.1299438,1.596112,NA,NA,Closed,Unknown,
0.4111328,-0.6582031,0.7597656,0.2675781,0.5664063,0.8530273,22,2,2,1,-2,15,42,48,-9,-5,-10,21,30,-2,-7,-1,-19.875,-19.875,-19.875,-3.25,-3.25,-3.25,3.991328,4.394769,3.166017,5.961812,4.585317,6.965044,-0.02902139,-0.2169021,1.310766,0.3321474,-0.191646,1.291719,0.1835865,0.4008475,1.622856,0.01041079,-0.2192933,1.313636,0.3589233,-0.1763947,1.271385,0.1697044,-0.06739172,1.61546,0.165154,-0.3923602,1.594493,-0.00253841,0.1269008,1.590428,0.07747582,-0.3828236,1.561021,-0.03259045,-0.1063842,1.596794,0.3656725,-0.123882,1.593234,NA,NA,Unknown,Unknown,
0.4121094,-0.6030273,0.7260742,0.3056641,0.6000977,0.8354492,-6,-3,-11,-6,1,5,14,-19,11,2,-4,-20,-13,11,-2,-3,-10.5,-10.5,-10.5,2.375,2.375,2.375,3.994418,4.362498,3.060753,5.948812,4.578003,7.033773,-0.0127912,-0.2215975,1.31209,0.3153031,-0.193434,1.28856,0.1835123,0.4008036,1.622709,0.02124153,-0.2279172,1.283667,0.343619,-0.1834095,1.264,0.1697401,-0.06730826,1.61534,0.165251,-0.3921764,1.594422,-0.002542719,0.1272794,1.590156,0.07763454,-0.3826581,1.560945,-0.03206223,-0.1014945,1.595468,0.3602121,-0.1123937,1.580432,NA,NA,Unknown,Unknown,
0.4013672,-0.5375977,0.7670898,0.2431641,0.5605469,0.8291016,-4,4,8,4,11,13,25,4,-13,-11,-6,-13,-23,1,-8,-9,-14.875,-14.875,-14.875,4.375,4.375,4.375,3.99281,4.370677,2.986491,5.942827,4.597155,7.113218,0.003900056,-0.2180245,1.308523,0.3052472,-0.1969151,1.264851,0.1835144,0.4007531,1.622401,0.04216146,-0.2238306,1.29325,0.3092751,-0.1975624,1.206714,0.1698036,-0.06729443,1.615188,0.1652906,-0.3920754,1.594339,-0.002487995,0.1276623,1.589928,0.07772949,-0.3825714,1.560858,-0.03144272,-0.09847597,1.593695,0.3723232,-0.1151123,1.562476,NA,NA,Unknown,Closed,
0.3691406,-0.6030273,0.7519531,0.3027344,0.5893555,0.8056641,-11,1,-14,3,5,-2,-25,-29,-26,-2,-5,3,24,-3,-7,-16,-10.8125,-10.8125,-10.8125,-1,-1,-1,3.992062,4.407337,2.924248,5.93911,4.631927,7.141432,0.01679367,-0.2050546,1.309375,0.2928067,-0.1920489,1.256524,0.18359,0.4007293,1.622227,0.05396916,-0.2108607,1.28325,0.303485,-0.1877863,1.212667,0.1698394,-0.06728248,1.615108,0.1653515,-0.3919894,1.594288,-0.002407822,0.1280093,1.589747,0.07787629,-0.3824321,1.560736,-0.03042851,-0.09770949,1.59288,0.3698347,-0.1101328,1.568907,NA,NA,Unknown,Unknown,
0.3442383,-0.6479492,0.7128906,0.2788086,0.6113281,0.7768555,0,-1,5,-4,-6,-3,-22,13,-7,2,13,5,-4,-2,0,4,-2.6875,-2.6875,-2.6875,-5.6875,-5.6875,-5.6875,3.98519,4.455359,2.899586,5.947893,4.666518,7.114245,0.01340442,-0.1911888,1.315227,0.2943722,-0.174013,1.28478,0.1837543,0.4006003,1.622039,0.04672388,-0.1892213,1.310438,0.3178605,-0.1900321,1.261556,0.1698377,-0.06727023,1.615095,0.1653679,-0.3919288,1.594299,-0.002392692,0.1281136,1.589667,0.0779442,-0.3823182,1.560719,-0.02971436,-0.09624436,1.591765,0.359543,-0.1093104,1.572004,NA,NA,Closed,Unknown,
0.3393555,-0.6523438,0.7036133,0.1503906,0.5322266,0.8095703,1,-1,10,-5,-11,-16,9,11,23,0,0,-13,-15,1,3,-2,18.375,18.375,18.375,-12.0625,-12.0625,-12.0625,3.980146,4.5074,2.954888,5.942735,4.710656,7.020362,-0.008275606,-0.1794762,1.296912,0.3044068,-0.1659566,1.286216,0.1838433,0.4005322,1.621947,0.02184932,-0.1707689,1.275818,0.3324678,-0.1473788,1.269,0.1698284,-0.06725452,1.615112,0.1653041,-0.3918403,1.594358,-0.002347091,0.1282928,1.589568,0.07792626,-0.3822151,1.560784,-0.02880795,-0.09578054,1.591505,0.3660789,-0.1087748,1.570562,NA,NA,Unknown,Unknown,
0.1977539,-0.4726563,0.7436523,0.1000977,0.440918,0.8676758,0,-6,-2,-4,-4,15,38,-7,-12,-4,-1,-4,-12,0,-6,4,21.0625,21.0625,21.0625,-11,-11,-11,3.970066,4.565642,3.121709,5.925355,4.730943,6.950605,-0.03324583,-0.172189,1.294807,0.3207502,-0.1595858,1.286233,0.1840202,0.4004687,1.621836,-0.01088972,-0.1671087,1.2225,0.3459219,-0.1407749,1.272667,0.169877,-0.06726181,1.615092,0.1653485,-0.3917804,1.594381,-0.002352672,0.1284462,1.58953,0.07797299,-0.3821442,1.560813,-0.03123018,-0.0966113,1.592292,0.3642567,-0.1088875,1.573306,NA,NA,Closed,Closed,
0.2607422,-0.4643555,0.7910156,0.1337891,0.4975586,0.871582,-9,2,-3,6,4,4,11,1,-8,6,1,1,10,-2,7,-13,13.375,13.375,13.375,-8.0625,-8.0625,-8.0625,3.965461,4.585143,3.248872,5.922377,4.732902,6.903866,-0.05082267,-0.1695899,1.296952,0.3365454,-0.1569592,1.283914,0.1840828,0.4004351,1.621738,-0.0788281,-0.1871405,1.26975,0.3453407,-0.1874805,1.264,0.1698894,-0.06726335,1.615073,0.1653509,-0.3917356,1.594375,-0.002349192,0.1285842,1.589498,0.07797273,-0.3820917,1.560808,-0.0322882,-0.09913535,1.588954,0.3605987,-0.1125639,1.577407,NA,NA,Closed,Unknown,
0.2387695,-0.5761719,0.7861328,0.1933594,0.5258789,0.871582,-16,-9,-6,-8,-8,12,38,5,11,1,-5,-1,6,-4,1,-6,12.3125,12.3125,12.3125,2.4375,2.4375,2.4375,3.968272,4.581501,3.299863,5.916843,4.717609,6.883259,-0.0598559,-0.1727959,1.297398,0.344034,-0.1612316,1.284027,0.1841916,0.4002759,1.621681,-0.06782093,-0.2005495,1.274072,0.3721375,-0.1454031,1.27055,0.169899,-0.06727172,1.61507,0.1653528,-0.3917158,1.594389,-0.002334283,0.1286611,1.589476,0.07798592,-0.3820632,1.560868,-0.03200161,-0.1007264,1.588163,0.3561853,-0.1194254,1.581062,NA,NA,Closed,Unknown,
0.2905273,-0.5830078,0.7998047,0.1787109,0.4575195,0.9238281,-6,3,4,1,-2,-4,14,3,-13,3,-1,-5,-4,1,7,5,1.5625,1.5625,1.5625,6.4375,6.4375,6.4375,3.977039,4.567254,3.312535,5.903964,4.688845,6.912925,-0.05987364,-0.1769732,1.29772,0.3450312,-0.1673774,1.285123,0.1842088,0.4002234,1.621708,-0.07578959,-0.2037362,1.271815,0.3742927,-0.1511197,1.264714,0.1699387,-0.06727831,1.615075,0.1653563,-0.3916754,1.594383,-0.002342034,0.1288395,1.58946,0.07799542,-0.3820456,1.560875,-0.03245693,-0.1006733,1.589534,0.3540024,-0.1169226,1.573147,NA,NA,Closed,Unknown,
0.2783203,-0.484375,0.8383789,0.1640625,0.5180664,0.9145508,6,-11,-13,3,13,3,4,7,-10,-7,-3,-3,-14,-11,2,1,-6.375,-6.375,-6.375,8.3125,8.3125,8.3125,3.999304,4.548497,3.266635,5.899271,4.677391,6.973917,-0.04486826,-0.1820637,1.300307,0.3338526,-0.1731725,1.287872,0.184203,0.4001706,1.621774,-0.05529939,-0.2131823,1.277273,0.3319583,-0.146591,1.284778,0.1699407,-0.06726492,1.615104,0.1653849,-0.3915864,1.594451,-0.002392535,0.1289192,1.589498,0.07800735,-0.3819672,1.560941,-0.03226347,-0.1012389,1.589597,0.3581316,-0.1165755,1.582876,NA,NA,Closed,Unknown,
0.2797852,-0.5805664,0.8330078,0.2036133,0.5673828,0.8466797,-8,3,22,2,0,-2,-16,-9,10,1,2,11,25,3,4,6,-12.625,-12.625,-12.625,17.4375,17.4375,17.4375,4.017227,4.535572,3.135399,5.906214,4.672922,7.053939,-0.02257855,-0.183442,1.300094,0.3141395,-0.1759119,1.287523,0.1841545,0.400133,1.621804,-0.05599759,-0.1707891,1.277909,0.3416815,-0.1630958,1.262133,0.1699485,-0.06726716,1.615106,0.1654044,-0.3915282,1.594471,-0.002445619,0.1289731,1.589503,0.07804137,-0.3819083,1.561013,-0.03285152,-0.100759,1.59072,0.364925,-0.1126171,1.579272,NA,NA,Unknown,Unknown,
0.2983398,-0.6469727,0.7705078,0.222168,0.5849609,0.7944336,-27,14,-14,-4,-2,-14,10,5,22,3,3,-1,0,9,-14,5,-20,-20,-20,13.4375,13.4375,13.4375,4.020711,4.54094,3.032715,5.92351,4.677172,7.153557,-0.001269496,-0.1830215,1.300226,0.296945,-0.1763264,1.286126,0.1840134,0.4000536,1.621804,-0.03220607,-0.175021,1.273214,0.3255419,-0.1699132,1.254875,0.1698803,-0.06725157,1.615081,0.1653908,-0.3914614,1.594384,-0.002474649,0.129008,1.589508,0.07805761,-0.3818234,1.560941,-0.03711464,-0.1001543,1.591907,0.3711397,-0.1102964,1.562413,NA,NA,Closed,Closed,
0.3266602,-0.6108398,0.7851563,0.2675781,0.6166992,0.7993164,-30,-4,-1,-5,-6,-12,30,19,-6,1,0,2,4,-4,-5,7,-12,-12,-12,5.875,5.875,5.875,4.016848,4.541661,2.951939,5.943984,4.675555,7.189639,0.01297846,-0.1846609,1.297924,0.2868742,-0.1743385,1.282043,0.1838509,0.3999715,1.621783,-0.01289427,-0.193405,1.271176,0.2959093,-0.2106186,1.271833,0.1698236,-0.06724703,1.61504,0.1653762,-0.3913407,1.594208,-0.002486406,0.1290101,1.589498,0.07809483,-0.3816943,1.560785,-0.04207679,-0.101271,1.590809,0.3718644,-0.1119246,1.556643,NA,NA,Unknown,Unknown,
0.3364258,-0.6147461,0.7163086,0.1625977,0.5566406,0.7460938,-2,-2,-6,-3,-1,-4,0,21,-9,1,1,-3,3,-3,2,-2,-6.5,-6.5,-6.5,6.1875,6.1875,6.1875,4.008786,4.536431,2.923868,5.963963,4.645639,7.183393,0.01311931,-0.1855783,1.298933,0.2846802,-0.1739322,1.279906,0.1835878,0.3999297,1.621797,-0.02072926,-0.182333,1.273584,0.3122439,-0.172102,1.251531,0.1697884,-0.06723368,1.615027,0.1653408,-0.3912827,1.594158,-0.002513088,0.129012,1.589484,0.07808773,-0.3815726,1.560729,-0.04937641,-0.1016022,1.584619,0.3762927,-0.110234,1.558632,NA,NA,Unknown,Unknown,
0.2587891,-0.46875,0.7128906,0.2290039,0.3896484,0.8066406,-22,-13,-1,1,-3,-1,-3,0,32,5,4,-2,8,6,-5,9,-10.125,-10.125,-10.125,32.375,32.375,32.375,3.982224,4.501538,2.932341,5.983312,4.58,7.176392,0.008214693,-0.1944966,1.302058,0.2869891,-0.1942375,1.243784,0.1833494,0.3999271,1.621694,-0.02039799,-0.1899187,1.272105,0.2799772,-0.1936509,1.189167,0.1697465,-0.06720725,1.614937,0.1653289,-0.3912341,1.594098,-0.002532466,0.1290245,1.589481,0.0781088,-0.3815057,1.560667,-0.04984293,-0.1010512,1.585636,0.3763866,-0.1126777,1.553826,NA,NA,Closed,Unknown,
0.3037109,-0.4658203,0.706543,0.3374023,0.5834961,0.6865234,3,1,-39,-8,1,-3,-11,-8,-6,5,7,2,3,4,-10,-7,-16.1875,-16.1875,-16.1875,26.375,26.375,26.375,3.927781,4.404488,2.947218,6.043828,4.469557,7.167143,0.008550127,-0.2153377,1.307291,0.2832032,-0.2073137,1.28361,0.1830907,0.3999491,1.621902,-0.02411601,-0.2030823,1.280769,0.3110763,-0.1901635,1.254853,0.1696226,-0.0671499,1.614806,0.1652028,-0.3911922,1.593753,-0.002581535,0.1290918,1.589486,0.07802365,-0.3814807,1.560408,-0.05013889,-0.1008425,1.586785,0.3735032,-0.1123085,1.558787,NA,NA,Unknown,Closed,
0.5268555,-0.6152344,0.6650391,0.4321289,0.5141602,0.6513672,-10,-3,34,1,-1,-8,-11,-4,2,3,-1,-1,1,-1,7,30,-77.8125,-77.8125,-77.8125,60.5,60.5,60.5,3.825652,4.259577,2.967039,6.103692,4.318091,7.160778,0.007136802,-0.2489105,1.316555,0.2803085,-0.240893,1.290045,0.1829296,0.4000396,1.621956,-0.02501582,-0.2651837,1.2952,0.3074651,-0.2141177,1.260934,0.169605,-0.06707686,1.614466,0.1651843,-0.3911024,1.593087,-0.002618654,0.1291209,1.58948,0.078044,-0.3814433,1.559906,-0.04029476,-0.1017269,1.588847,0.3771812,-0.1141738,1.560419,NA,NA,Unknown,Unknown,
0.4145508,-0.3867188,0.4799805,0.4951172,0.4868164,0.5810547,17,-8,-17,-2,0,-4,-14,3,-10,-5,-2,16,-3,-2,-8,-25,-30.1875,-30.1875,-30.1875,76.1875,76.1875,76.1875,3.761468,4.093106,2.997786,6.262413,4.083459,7.148953,0.003338647,-0.2922759,1.330776,0.2770811,-0.2879041,1.30059,0.182872,0.4000723,1.622048,-0.0219862,-0.2612453,1.304128,0.2990347,-0.25442,1.262737,0.1696986,-0.06712161,1.614118,0.1655231,-0.3913007,1.592352,-0.002681457,0.1291308,1.589485,0.07834014,-0.3816307,1.559215,-0.03959547,-0.100365,1.590291,0.3674859,-0.1176385,1.569384,NA,NA,Unknown,Open,
0.8759766,-0.6655273,0.4995117,0.6181641,0.5229492,0.5356445,7,-4,-8,-3,-4,-1,1,9,-3,-4,-4,4,5,4,16,-12,-54.625,-54.625,-54.625,46.9375,46.9375,46.9375,3.493277,3.751246,3.077839,6.366162,3.900336,7.133857,-0.002785497,-0.3557027,1.358135,0.2842302,-0.332851,1.319534,0.1828269,0.4001889,1.62213,-0.02528613,-0.3228301,1.320709,0.3009318,-0.2913901,1.277022,0.1698373,-0.06714877,1.613632,0.16602,-0.3915434,1.591071,-0.002752283,0.1291377,1.589448,0.07854844,-0.3818554,1.557897,-0.03931369,-0.1012415,1.590932,0.364805,-0.1197148,1.571693,NA,NA,Unknown,Unknown,
0.7270508,-0.3339844,0.4003906,0.8051758,0.5366211,0.4165039,2,0,0,-2,0,-2,20,-1,-13,-7,-3,3,-10,-2,11,-1,-53,-53,-53,103.875,103.875,103.875,3.409545,3.527003,3.160566,6.515122,3.696292,7.117453,-0.02148377,-0.3822663,1.397909,0.2973217,-0.3654218,1.348919,0.1828017,0.4003223,1.622197,-0.024515,-0.3690737,1.349556,0.3077706,-0.3303488,1.307848,0.1698622,-0.06715085,1.613322,0.1659654,-0.3916895,1.590673,-0.002896898,0.1290593,1.589354,0.07844564,-0.3820237,1.557689,-0.03803049,-0.114057,1.588144,0.363741,-0.1233956,1.572878,NA,NA,Unknown,Unknown,
0.965332,-0.7856445,0.3486328,0.8554688,0.2973633,0.4013672,-31,1,8,10,7,2,-4,9,12,2,3,1,-14,-27,-9,10,-53,-53,-53,105.9375,105.9375,105.9375,3.148633,3.34263,3.281005,6.643546,3.423498,7.162943,-0.0307249,-0.4155014,1.438458,0.3055707,-0.395795,1.384429,0.1827525,0.4004281,1.622213,-0.03947958,-0.4218251,1.387982,0.2894556,-0.3813908,1.343,0.1695646,-0.06717701,1.612917,0.1652663,-0.3919833,1.590202,-0.003143092,0.1288955,1.589126,0.07769139,-0.3823773,1.557341,-0.03813262,-0.1251676,1.583305,0.3631127,-0.1298841,1.572355,NA,NA,Unknown,Unknown,
1.01123,-0.06787109,0.09667969,1.006348,0.4174805,0.1606445,-18,4,9,3,1,2,24,3,-10,-1,1,0,-9,-13,-3,-5,-93.0625,-93.0625,-93.0625,137.375,137.375,137.375,3.068084,3.186098,3.307958,6.797288,3.226028,7.247009,-0.02350152,-0.4392224,1.474221,0.305268,-0.4216985,1.444373,0.1826311,0.4005971,1.622291,-0.05543996,-0.4344267,1.450151,0.3295172,-0.4257199,1.414067,0.1690332,-0.06735374,1.612241,0.1643963,-0.3924651,1.589561,-0.003340471,0.1287653,1.588872,0.07677194,-0.3828964,1.556831,-0.0363215,-0.1412679,1.577335,0.3630611,-0.1348403,1.571158,NA,NA,Unknown,Unknown,
1.03418,-0.4482422,0.08496094,1.039063,0.7978516,-0.07714844,14,-18,4,-2,3,-3,-12,0,3,-1,-2,5,7,-40,-2,30,-108.4375,-108.4375,-108.4375,2.4375,2.4375,2.4375,2.913875,3.077742,3.255654,6.91377,3.131551,7.228415,-0.01631786,-0.4175386,1.496704,0.3045504,-0.4258826,1.474779,0.1823797,0.4007429,1.621908,-0.05622204,-0.4087521,1.49344,0.3480127,-0.4113771,1.477438,0.1688306,-0.06745698,1.611217,0.1640905,-0.3927386,1.588878,-0.003508634,0.1285493,1.588459,0.07630493,-0.3832818,1.556328,-0.03569828,-0.1436761,1.577044,0.362887,-0.1363368,1.570963,NA,NA,NotTracked,Unknown,
0.8427734,-0.6542969,0.01171875,0.7705078,0.1801758,0.4594727,8,8,28,17,1,1,1,1,-5,0,1,-2,-20,1,4,-10,-11.6875,-11.6875,-11.6875,32.75,32.75,32.75,2.941392,3.063716,3.113885,6.844363,3.173051,7.285994,-0.006891388,-0.4309966,1.495834,0.3046397,-0.4282603,1.471001,0.1822,0.4009556,1.621111,-0.04924626,-0.4188635,1.503524,0.3387428,-0.439873,1.46175,0.1689249,-0.06734066,1.610223,0.164173,-0.3926514,1.588566,-0.003640403,0.1284199,1.588075,0.07632102,-0.3832366,1.556154,-0.03541726,-0.1434604,1.578358,0.3633083,-0.1362732,1.571852,NA,NA,NotTracked,Unknown,
0.9301758,-0.359375,0.1396484,0.9238281,0.4013672,-0.001464844,6,4,-7,-4,-1,-3,2,2,-8,-4,-2,1,3,2,2,-6,-9.9375,-9.9375,-9.9375,51.3125,51.3125,51.3125,2.88482,3.07449,3.168404,6.866632,3.152404,7.330444,-0.007849056,-0.4320494,1.494698,0.3033202,-0.4283247,1.471483,0.182057,0.4015,1.620199,-0.05250759,-0.4103943,1.497191,0.3478756,-0.4069284,1.475273,0.1694898,-0.06709605,1.609713,0.164103,-0.3925872,1.588388,-0.003729395,0.1283569,1.58769,0.07621451,-0.3831858,1.556051,-0.03534502,-0.1421942,1.579198,0.3634719,-0.136018,1.571899,NA,NA,NotTracked,Unknown,
0.9858398,-0.2592773,0.1743164,0.9589844,0.2827148,0.1904297,-8,13,5,-5,-5,-2,-1,-3,-5,-4,-2,0,4,-20,-4,-3,-38.625,-38.625,-38.625,-34.3125,-34.3125,-34.3125,2.900589,3.058777,3.099107,6.870713,3.150464,7.30778,-0.005984821,-0.4323735,1.492651,0.302605,-0.429073,1.470369,0.1820211,0.4017164,1.619421,-0.04722062,-0.4294438,1.495267,0.3418262,-0.4226541,1.469076,0.1695074,-0.0669945,1.609014,0.1641127,-0.3924439,1.588045,-0.003796058,0.128308,1.587288,0.07615086,-0.3830238,1.555712,-0.03518553,-0.1414356,1.579452,0.3631756,-0.1363806,1.571678,NA,NA,NotTracked,Unknown,
0.9160156,-0.3847656,-0.00390625,0.8828125,0.3583984,0.1699219,-5,-11,1,4,-1,0,7,-4,-2,-1,0,5,-2,3,6,3,8.3125,8.3125,8.3125,-1.0625,-1.0625,-1.0625,2.901996,3.066492,3.082217,6.850254,3.147373,7.316948,-0.005346154,-0.4342374,1.492994,0.3037629,-0.428789,1.469756,0.1821124,0.4019552,1.618804,-0.0496691,-0.4099556,1.501,0.3459332,-0.4122482,1.470314,0.1694792,-0.06687281,1.608325,0.164176,-0.3923268,1.58754,-0.003860396,0.1282539,1.587024,0.07612863,-0.3829671,1.555231,-0.03485531,-0.1415024,1.579522,0.3630832,-0.1362224,1.571545,NA,NA,NotTracked,Unknown,
0.9414063,-0.2983398,0.1533203,0.9023438,0.3300781,0.1826172,-6,-16,2,1,0,1,12,2,-7,1,1,-2,-5,4,2,-9,0.375,0.375,0.375,6.125,6.125,6.125,2.92303,3.070618,3.098094,6.845346,3.148215,7.331509,-0.005864208,-0.4339039,1.492278,0.30388,-0.4288849,1.469519,0.1821751,0.4022355,1.618078,-0.04807993,-0.4226159,1.494684,0.3391093,-0.4386414,1.46316,0.1691694,-0.06674301,1.607654,0.1639967,-0.3921379,1.587085,-0.003911288,0.1282088,1.586871,0.07592507,-0.382772,1.554836,-0.0346137,-0.1417973,1.579558,0.3629849,-0.1362291,1.571453,NA,NA,NotTracked,NotTracked,
0.9204102,-0.3432617,0.1142578,0.9199219,0.3383789,0.1547852,-11,0,-7,-12,-4,-1,1,-5,8,-1,-1,2,16,8,5,1,-2.9375,-2.9375,-2.9375,4.125,4.125,4.125,2.930204,3.072739,3.088487,6.838253,3.148653,7.35012,-0.005919291,-0.4334815,1.492241,0.3034399,-0.4293258,1.469076,0.1823106,0.402261,1.617639,-0.04591056,-0.4496816,1.497222,0.3423106,-0.4319034,1.468498,0.1691219,-0.06672782,1.60731,0.1640304,-0.3920879,1.586741,-0.003950879,0.1281572,1.586682,0.07594184,-0.3827767,1.554549,-0.03454724,-0.1419165,1.579632,0.3630024,-0.1362786,1.571264,NA,NA,NotTracked,NotTracked,
0.940918,-0.3393555,0.07470703,0.902832,0.328125,0.1958008,2,2,1,-2,0,2,1,0,2,-3,-1,-4,-1,-4,-2,1,1.4375,1.4375,1.4375,-3.125,-3.125,-3.125,2.927151,3.073174,3.089815,6.823923,3.147347,7.352343,-0.005960142,-0.4334528,1.492023,0.30353,-0.4294119,1.468642,0.1824162,0.4023581,1.61742,-0.04820834,-0.438207,1.499416,0.3476301,-0.4081147,1.471077,0.1697168,-0.06662878,1.607186,0.1639843,-0.3920853,1.586491,-0.003958147,0.1280917,1.586443,0.07589412,-0.3827512,1.554313,-0.0343948,-0.1415601,1.579754,0.3626194,-0.1373981,1.570545,NA,NA,NotTracked,NotTracked,
0.9296875,-0.3457031,0.1054688,0.8920898,0.3378906,0.1796875,6,2,-1,-2,-3,-1,1,-3,-23,-2,-1,-1,-3,-14,-1,0,3.25,3.25,3.25,5.4375,5.4375,5.4375,2.934789,3.07385,3.088905,6.819679,3.147492,7.361935,-0.006192817,-0.433795,1.491909,0.3094805,-0.4045357,1.474895,0.1826064,0.4024475,1.617292,-0.04880003,-0.4294389,1.494583,0.3448473,-0.4326477,1.470312,0.169664,-0.06650487,1.606754,0.1639698,-0.3919523,1.586185,-0.003983988,0.1280401,1.586316,0.07584122,-0.3826412,1.554095,-0.03443596,-0.1408888,1.579874,0.362675,-0.1371192,1.570403,NA,NA,NotTracked,NotTracked,
