ALX,ALY,ALZ,ARX,ARY,ARZ,EMG0L,EMG1L,EMG2L,EMG3L,EMG4L,EMG5L,EMG6L,EMG7L,EMG0R,EMG1R,EMG2R,EMG3R,EMG4R,EMG5R,EMG6R,EMG7R,GLX,GLY,GLZ,GRX,GRY,GRZ,ORL,OPL,OYL,ORR,OPR,OYR,LHNX,LHNY,LHNZ,RHNX,RHNY,RHNZ,HX,HY,HZ,LTX,LTY,LTZ,RTX,RTY,RTZ,SpineMidX,SpineMidY,SpineMidZ,SpineBaseX,SpineBaseY,SpineBaseZ,ShoulderLeftX,ShoulderLeftY,ShoulderLeftZ,ShoulderRightX,ShoulderRightY,ShoulderRightZ,ElbowLeftX,ElbowLeftY,ElbowLeftZ,ElbowRightX,ElbowRightY,ElbowRightZ,Myo_Pose_left,Myo_Pose_Right,Kinect_pose_left,Kinect_pose_right
0.9658203,-0.3164063,0.09472656,0.4208984,0.7666016,0.5185547,0,-2,-1,-2,-1,1,0,0,-3,-11,-1,0,7,1,2,1,-6.5625,-6.5625,-6.5625,111.5625,111.5625,111.5625,2.962931,3.043088,3.04793,6.615752,4.373103,1.809273,0.03740003,-0.4170441,1.529634,0.1976264,-0.2461398,1.449247,0.2347582,0.4021897,1.65842,-0.004419927,-0.4243342,1.538117,0.204888,-0.3058204,1.478267,0.2158703,-0.06698649,1.645145,0.2082866,-0.3938985,1.626199,0.03990747,0.1165192,1.617337,0.1197757,-0.3839549,1.592919,0.007143053,-0.135844,1.61588,0.4219967,-0.1100525,1.590991,NA,NA,NotTracked,Lasso,
0.9418945,-0.3168945,0.09863281,0.09033203,0.7426758,0.5322266,-1,3,1,-1,0,0,1,0,9,0,2,2,9,5,-1,2,-4.5,-4.5,-4.5,66.3125,66.3125,66.3125,2.956313,3.039636,3.043444,6.723938,4.811562,2.090193,0.04416357,-0.4478295,1.526002,0.1229637,-0.1577495,1.45761,0.2349192,0.4021492,1.659318,-0.004317162,-0.4669558,1.538276,0.1240046,-0.2160416,1.496,0.2159128,-0.06653673,1.645713,0.2083745,-0.3929434,1.62658,0.04079229,0.1170015,1.617624,0.12001,-0.3830755,1.593688,0.007293576,-0.1325927,1.616062,0.4158228,-0.1054621,1.559251,NA,NA,NotTracked,Lasso,
0.9438477,-0.2944336,0.08496094,-0.05029297,0.7568359,0.4482422,0,0,-3,-1,-2,0,0,1,22,-1,-2,1,14,-15,1,-1,-3.4375,-3.4375,-3.4375,52.125,52.125,52.125,2.943707,3.040132,3.045478,6.806596,5.074431,2.264137,0.04451587,-0.4480621,1.526075,0.1357087,-0.08317131,1.485584,0.2355706,0.402207,1.660907,-0.003956178,-0.466298,1.536994,0.1190229,-0.1416993,1.520205,0.2161903,-0.06576743,1.646439,0.2089309,-0.3913971,1.627034,0.04185417,0.1175176,1.618209,0.1210602,-0.381588,1.594585,0.009580634,-0.1463219,1.603217,0.4032451,-0.09992788,1.530205,NA,NA,NotTracked,Unknown,
0.9545898,-0.3203125,0.09228516,0.05566406,0.7163086,0.3754883,1,5,0,-2,-1,1,0,2,-7,-2,0,-3,-59,-21,-9,-6,-2.25,-2.25,-2.25,37.5,37.5,37.5,2.927617,3.038995,3.055712,6.912853,5.280066,2.445812,0.04425083,-0.4461646,1.526068,0.1397497,-0.0478393,1.500891,0.2362498,0.4021075,1.662575,-0.004035912,-0.4574752,1.5395,0.1155396,-0.1024173,1.526556,0.2164638,-0.06531908,1.646974,0.2091634,-0.3906623,1.627221,0.0411014,0.1165989,1.617301,0.1214569,-0.3810943,1.59477,0.01029367,-0.1414526,1.603356,0.3863878,-0.09409699,1.51318,NA,NA,NotTracked,Unknown,
0.9462891,-0.3037109,0.0625,-0.1147461,0.8618164,0.3491211,-1,1,-1,1,0,-2,-1,-2,-11,-1,-1,-24,-44,0,7,-4,3.6875,3.6875,3.6875,20,20,20,2.907118,3.040879,3.078674,6.961965,5.327907,2.532265,0.04309062,-0.440315,1.527037,0.08465449,0.01060081,1.508649,0.237063,0.4020025,1.664066,-0.005156485,-0.4529927,1.541667,0.1027903,-0.06560077,1.540536,0.2165997,-0.06492987,1.647627,0.2089847,-0.3901315,1.627419,0.04107719,0.1167832,1.617312,0.1213758,-0.3805904,1.595137,0.01119161,-0.1412989,1.608178,0.3735473,-0.09063066,1.503995,NA,NA,NotTracked,Unknown,
0.9228516,-0.3129883,0.07910156,-0.2255859,0.9472656,0.3476563,-3,5,-6,0,-1,-1,-4,-3,-17,5,8,10,-32,4,9,3,-0.25,-0.25,-0.25,25.0625,25.0625,25.0625,2.904462,3.04251,3.084396,7.008193,5.329616,2.599758,0.04109367,-0.4212304,1.529837,0.08438388,0.01769387,1.516061,0.2377388,0.4014397,1.66557,-0.005439357,-0.4345569,1.54275,0.0505784,-0.0311819,1.50155,0.2167526,-0.06487817,1.648102,0.2088993,-0.3899523,1.62745,0.04006184,0.1160971,1.616405,0.1213456,-0.3804507,1.595384,0.01197465,-0.1419856,1.611377,0.3649039,-0.08637157,1.495539,NA,NA,NotTracked,Unknown,
0.9379883,-0.3432617,0.09423828,-0.2285156,0.9189453,0.3032227,0,-2,-6,-1,-1,1,1,2,-3,-4,-1,7,0,-12,-5,4,-3.5625,-3.5625,-3.5625,39.25,39.25,39.25,2.896944,3.038789,3.089612,7.076932,5.33421,2.674744,0.04057747,-0.4207907,1.531793,0.1542705,-0.02767251,1.518087,0.2383756,0.4012378,1.666737,-0.00568737,-0.4241671,1.542824,0.1585499,-0.1096947,1.51227,0.2169429,-0.06456419,1.648748,0.2087647,-0.389365,1.627759,0.04005696,0.116207,1.616382,0.1213439,-0.3799402,1.596004,0.01223288,-0.1419137,1.613514,0.3553466,-0.07972978,1.485234,NA,NA,NotTracked,NotTracked,
0.9316406,-0.3623047,0.09960938,-0.1679688,0.8745117,0.2250977,-2,-8,13,0,1,0,-2,-1,-13,1,1,-11,-30,-3,-6,-4,-6.9375,-6.9375,-6.9375,23.75,23.75,23.75,2.892194,3.038989,3.083138,7.165617,5.359356,2.756305,0.04082676,-0.4203913,1.53153,0.08877514,0.02874023,1.529417,0.2390663,0.4012392,1.667811,-0.005344545,-0.4292025,1.541023,0.109453,-0.07332953,1.535228,0.217157,-0.06412815,1.649551,0.2087774,-0.3889093,1.628084,0.04006125,0.1163602,1.616159,0.1214444,-0.3795304,1.596781,0.01242489,-0.1403376,1.615213,0.3493641,-0.07506546,1.47898,NA,NA,NotTracked,NotTracked,
0.9355469,-0.3100586,0.08007813,-0.09912109,0.8730469,0.2470703,-1,3,13,1,-2,-2,-2,-1,103,-18,-10,-13,-5,-28,-21,10,-8.3125,-8.3125,-8.3125,17.9375,17.9375,17.9375,2.891623,3.040793,3.071422,7.189267,5.370633,2.781271,0.04072773,-0.4169903,1.530564,0.09289913,0.03120375,1.531252,0.239619,0.4011801,1.668491,-0.005289558,-0.4355033,1.542812,0.1099117,-0.06955931,1.534999,0.2173933,-0.06393608,1.650158,0.2089766,-0.3887487,1.6284,0.03935682,0.114991,1.614488,0.1217184,-0.3795883,1.597433,0.01261857,-0.1391291,1.615993,0.3414901,-0.06987219,1.472156,NA,NA,NotTracked,NotTracked,
0.9482422,-0.3120117,0.05810547,-0.08447266,0.9047852,0.1748047,0,3,9,-2,1,-3,-5,-4,-45,9,8,6,14,0,-4,7,-3.625,-3.625,-3.625,15.5625,15.5625,15.5625,2.886362,3.042127,3.064854,7.217148,5.364158,2.781968,0.04094787,-0.4174778,1.531227,0.09416874,0.03125962,1.53336,0.2400784,0.4012397,1.669422,-0.003914624,-0.413465,1.541069,0.1074241,-0.05090554,1.541964,0.2178122,-0.0637224,1.650952,0.2093264,-0.3885552,1.628751,0.0390951,0.1144106,1.614046,0.1222147,-0.3795444,1.598105,0.01285397,-0.1384526,1.616569,0.3382981,-0.06810752,1.47024,NA,NA,NotTracked,NotTracked,
0.9291992,-0.3168945,0.08789063,-0.2182617,0.9350586,0.2216797,-1,1,8,0,-2,1,0,1,-12,-10,-5,0,-23,4,16,-18,-0.1875,-0.1875,-0.1875,-16.1875,-16.1875,-16.1875,2.88981,3.041629,3.062036,7.171404,5.348893,2.740296,0.04117114,-0.417509,1.53141,0.09523244,0.03270949,1.533327,0.2404899,0.401159,1.670295,-0.004250289,-0.4312097,1.544714,0.1080819,-0.05548104,1.540413,0.2179258,-0.0635023,1.651513,0.2095595,-0.3881299,1.629186,0.03947502,0.1149866,1.614659,0.122541,-0.3791347,1.598755,0.012937,-0.1381443,1.616821,0.3378519,-0.06773226,1.470779,NA,NA,NotTracked,NotTracked,
0.949707,-0.3432617,0.08007813,-0.1064453,0.972168,0.2304688,-1,-1,-5,-1,-1,-3,-3,-1,34,-1,-1,-1,-37,-9,-1,5,1.8125,1.8125,1.8125,-20.25,-20.25,-20.25,2.888803,3.041537,3.062573,7.121398,5.341221,2.672853,0.04123803,-0.4174875,1.53193,0.09276132,0.03400971,1.531559,0.2406331,0.401154,1.670859,-0.003348415,-0.440445,1.540875,0.1123589,-0.06436131,1.535,0.2179176,-0.06346304,1.651807,0.2096225,-0.3880874,1.62932,0.04003885,0.1149263,1.614253,0.1225792,-0.3791429,1.599012,0.01302264,-0.1377924,1.617376,0.3387603,-0.06848633,1.471389,NA,NA,NotTracked,NotTracked,
0.9594727,-0.3237305,0.07080078,-0.3149414,0.9941406,0.3530273,1,3,1,-1,-2,-2,0,1,9,3,11,14,7,18,26,0,3.375,3.375,3.375,-26.6875,-26.6875,-26.6875,2.883841,3.042222,3.072047,7.050694,5.354407,2.583582,0.04116685,-0.4174565,1.53148,0.08582997,0.04097809,1.530004,0.2406003,0.4011548,1.671108,-0.003257785,-0.4312254,1.540851,0.1033642,-0.03880279,1.551042,0.2178428,-0.06335074,1.652089,0.2096027,-0.3879363,1.629431,0.04134722,0.1162907,1.614434,0.1225642,-0.3790197,1.599096,0.01297679,-0.1375564,1.617558,0.3499764,-0.07511643,1.480971,NA,NA,NotTracked,NotTracked,
0.934082,-0.3374023,0.05957031,-0.1113281,0.859375,0.2724609,0,-2,0,-1,-1,-3,-3,-2,57,-18,-24,-15,11,-1,-16,-9,-2.4375,-2.4375,-2.4375,-14.25,-14.25,-14.25,2.869416,3.043324,3.089692,6.992759,5.376694,2.465053,0.04240347,-0.4377181,1.52845,0.08708654,0.04301281,1.526016,0.2405182,0.4011815,1.671291,-0.005437612,-0.4532914,1.5427,0.06995472,-0.01134392,1.520784,0.2177941,-0.06333303,1.652189,0.2095667,-0.3879009,1.629444,0.04215556,0.1169597,1.614834,0.122508,-0.3789556,1.599003,0.01303303,-0.1373684,1.617788,0.3654974,-0.08141869,1.4901,NA,NA,NotTracked,NotTracked,
0.9467773,-0.3041992,0.06640625,-0.4365234,0.9042969,0.3720703,1,2,-7,-1,-1,-2,3,0,8,-4,4,-2,-8,-8,-8,1,-3.9375,-3.9375,-3.9375,-13.3125,-13.3125,-13.3125,2.864401,3.042749,3.092986,6.909455,5.400773,2.302708,0.04001176,-0.4176558,1.530616,0.09729912,0.04333676,1.517958,0.2403987,0.4011446,1.671463,-0.005095265,-0.4291299,1.54325,0.1060595,-0.05537929,1.543,0.2177373,-0.06340662,1.65222,0.2095031,-0.3879231,1.629432,0.04333506,0.1173974,1.615295,0.1223999,-0.3790208,1.598892,0.0129145,-0.13647,1.61821,0.3826683,-0.0859881,1.498827,NA,NA,NotTracked,NotTracked,
0.9243164,-0.3354492,0.08007813,-0.5,0.8588867,0.4003906,-2,-6,0,-2,-1,0,4,2,-12,-15,-16,-12,7,0,-1,-5,3.625,3.625,3.625,-6.25,-6.25,-6.25,2.86209,3.043866,3.091825,6.872605,5.416119,2.233542,0.03961957,-0.413975,1.530722,0.1068572,0.0433769,1.51139,0.2404073,0.4011129,1.671559,-0.004752465,-0.4291937,1.53784,0.1080123,-0.05320293,1.540875,0.2177225,-0.06340431,1.652224,0.2092997,-0.3877288,1.629403,0.04464146,0.1183306,1.61609,0.1222621,-0.3787748,1.598786,0.01233276,-0.1340126,1.618532,0.3927663,-0.08753385,1.503249,NA,NA,NotTracked,Unknown,
0.9477539,-0.3427734,0.08154297,-0.487793,0.8212891,0.3955078,-1,-6,2,-2,0,-1,-3,-2,2,0,-2,3,-4,-11,-6,-1,-1.875,-1.875,-1.875,14.4375,14.4375,14.4375,2.865211,3.041738,3.088537,6.876242,5.454012,2.242561,0.03969161,-0.4144205,1.530225,0.1629089,0.001276112,1.501242,0.2404291,0.4010693,1.671717,-0.004465117,-0.4311244,1.538418,0.1372516,-0.06018269,1.521883,0.2177062,-0.06341222,1.652227,0.2091817,-0.387604,1.629379,0.04534698,0.1187469,1.616723,0.1221777,-0.3786134,1.598703,0.01186499,-0.1321831,1.618422,0.3975795,-0.08716604,1.503396,NA,NA,NotTracked,Unknown,
0.9399414,-0.3271484,0.07226563,-0.4472656,0.9667969,0.453125,2,1,2,0,-1,-1,0,-3,1,-6,-3,-10,-11,-30,-12,4,-7.8125,-7.8125,-7.8125,17.125,17.125,17.125,2.866083,3.040369,3.076889,6.92137,5.486945,2.300471,0.04001132,-0.4141617,1.529764,0.1091543,0.04635458,1.498787,0.2404898,0.4010782,1.671729,-0.0048123,-0.4273373,1.539271,0.1129497,-0.02885021,1.538334,0.2177098,-0.06339717,1.652206,0.2091908,-0.3874923,1.629299,0.04432311,0.1177165,1.61571,0.1221973,-0.3784791,1.598577,0.01170939,-0.1309761,1.618267,0.3974676,-0.08684695,1.503443,NA,NA,NotTracked,Unknown,
0.9492188,-0.3081055,0.06738281,-0.4975586,0.8798828,0.2397461,-1,7,-2,-2,-1,-2,-1,-1,15,28,5,1,0,-7,-1,8,-3.125,-3.125,-3.125,64.5625,64.5625,64.5625,2.861039,3.039762,3.073737,7.025233,5.55321,2.395939,0.04026773,-0.4136349,1.528987,0.1126506,0.05008553,1.499768,0.2406714,0.4010487,1.671723,-0.005464688,-0.4390491,1.55,0.1535285,0.09714811,1.523295,0.2178256,-0.06341363,1.652204,0.2093021,-0.3873813,1.629281,0.04355875,0.1173459,1.614991,0.1223245,-0.3783765,1.598585,0.01171584,-0.1310357,1.618178,0.3912038,-0.08508576,1.498894,NA,NA,NotTracked,Unknown,
0.9467773,-0.3461914,0.06542969,-0.2993164,1.026855,0.1586914,0,2,6,-1,-1,-3,-2,1,-3,-10,-9,-6,23,-17,-61,-34,-6.5625,-6.5625,-6.5625,110.625,110.625,110.625,2.849541,3.036276,3.075876,7.361791,5.570511,2.61289,0.0441098,-0.4356278,1.525697,0.1106337,0.05140268,1.504453,0.2408272,0.400996,1.671741,-0.0003900128,-0.447111,1.52975,0.1314473,0.1014816,1.525171,0.2178658,-0.06346571,1.652168,0.2093743,-0.3873866,1.62923,0.04285723,0.1168665,1.6142,0.1223784,-0.378409,1.598584,0.01212236,-0.1315296,1.61756,0.3677675,-0.07524883,1.480256,NA,NA,NotTracked,Unknown,
0.9399414,-0.3203125,0.06982422,-0.1889648,1.056152,0.03173828,-1,-31,-12,-2,0,-2,-3,0,58,34,17,7,55,15,55,45,-9.625,-9.625,-9.625,85.4375,85.4375,85.4375,2.838706,3.032523,3.073264,7.574979,5.57337,2.778987,0.04531434,-0.4352627,1.525398,0.1271976,0.0449244,1.510519,0.2414708,0.4010124,1.671732,0.0001171558,-0.4384246,1.52858,0.1081025,-0.001347318,1.543097,0.2181921,-0.06336801,1.652194,0.2097813,-0.3872461,1.629095,0.0426921,0.1166623,1.613774,0.1227928,-0.3783235,1.598594,0.01258191,-0.1320928,1.616828,0.3537945,-0.06632215,1.467394,NA,NA,NotTracked,Unknown,
0.9511719,-0.2919922,0.05175781,-0.2285156,0.737793,-0.1123047,-2,1,-2,-1,-2,1,-1,-4,5,5,2,6,6,-22,4,-15,-7.125,-7.125,-7.125,49.75,49.75,49.75,2.821953,3.029575,3.071272,7.70897,5.589839,2.913111,0.04637938,-0.4348405,1.524448,0.1356758,0.03923643,1.514328,0.2422357,0.4011283,1.671585,-0.0009523408,-0.4402792,1.533193,0.1095805,-0.004913543,1.540825,0.2184543,-0.06318323,1.652206,0.2102197,-0.386876,1.628928,0.04286247,0.1162999,1.613314,0.1231868,-0.3780875,1.598655,0.0130648,-0.1317249,1.615926,0.3421353,-0.05752619,1.458221,NA,NA,NotTracked,NotTracked,
0.9516602,-0.2988281,0.05126953,-0.1806641,0.6914063,-0.06542969,-5,-5,3,0,-1,0,2,-2,12,5,0,-12,-82,6,-31,-29,1.75,1.75,1.75,-6.0625,-6.0625,-6.0625,2.80478,3.026946,3.085213,7.778093,5.559129,2.969292,0.04622958,-0.4345388,1.524406,0.1461956,0.03706516,1.510611,0.2428358,0.4011128,1.671595,-0.00143535,-0.4385955,1.533496,0.126187,-0.0165986,1.530162,0.2188614,-0.06289577,1.652129,0.2107484,-0.3865159,1.628596,0.04318183,0.1156805,1.612683,0.1235725,-0.3778955,1.598505,0.01349077,-0.1313376,1.615437,0.3340444,-0.05086304,1.45209,NA,NA,NotTracked,Unknown,
0.9306641,-0.2998047,0.06884766,-0.1884766,0.7431641,-0.02246094,1,4,23,2,-1,-1,-3,0,-2,-7,-7,-3,15,-7,-7,-16,7.1875,7.1875,7.1875,-5,-5,-5,2.799015,3.029039,3.106227,7.774451,5.526619,2.946959,0.042192,-0.4097118,1.527385,0.07676897,0.08038666,1.522014,0.2434803,0.4011827,1.67167,-0.0007962777,-0.4329422,1.531933,0.1222506,0.1164269,1.531742,0.2190808,-0.06268655,1.652054,0.2109303,-0.3861836,1.628343,0.04350739,0.1153553,1.612349,0.123706,-0.377665,1.598353,0.0138473,-0.1310572,1.615203,0.3305059,-0.04774,1.449281,NA,NA,NotTracked,NotTracked,
0.9428711,-0.3310547,0.05322266,-0.262207,0.8374023,-0.01464844,-1,-9,19,1,-1,1,2,-2,-27,-13,-14,1,24,7,-89,-65,3.0625,3.0625,3.0625,-29.625,-29.625,-29.625,2.787611,3.029326,3.126407,7.716944,5.465002,2.901948,0.04448533,-0.4343939,1.524652,0.07479133,0.07536284,1.519671,0.2440258,0.4011579,1.671732,-0.005443276,-0.4565111,1.544375,0.1181969,0.114105,1.53242,0.2191938,-0.06262567,1.652037,0.2109458,-0.3860564,1.628227,0.04367828,0.1153005,1.612201,0.1237439,-0.3775914,1.598378,0.0139718,-0.1306846,1.615391,0.3297814,-0.04765757,1.449264,NA,NA,NotTracked,NotTracked,
0.9311523,-0.3388672,0.06152344,-0.09326172,0.9238281,-0.02978516,0,14,-8,-2,-2,-3,0,-2,-7,-8,1,-6,-4,-32,-46,23,0.5625,0.5625,0.5625,-31.375,-31.375,-31.375,2.767892,3.027595,3.15203,7.621116,5.279549,2.85696,0.04390008,-0.43424,1.525919,0.1347607,0.02360651,1.511607,0.2445609,0.4010493,1.671713,-0.003628072,-0.4454072,1.539047,0.1272937,0.08819577,1.520854,0.2192166,-0.06259023,1.651972,0.2107634,-0.385959,1.627996,0.04394064,0.1155556,1.612042,0.1236662,-0.3775102,1.598313,0.01400652,-0.1308069,1.615446,0.3307115,-0.04915072,1.450458,NA,NA,NotTracked,NotTracked,
0.9458008,-0.3505859,0.07177734,-0.09375,1.166504,0.02001953,-1,-9,5,-1,-1,0,-2,0,-4,22,11,-1,-1,1,-30,-59,-1.75,-1.75,-1.75,-32.4375,-32.4375,-32.4375,2.758319,3.026518,3.158473,7.566045,5.10282,2.848525,0.04342436,-0.4339744,1.524332,0.09414653,0.01531316,1.522057,0.2451624,0.4011704,1.671733,-0.003575524,-0.4374856,1.53156,0.114125,0.07663409,1.525075,0.2192155,-0.06250383,1.651662,0.2104871,-0.3858816,1.627638,0.04595272,0.1176589,1.613665,0.1234643,-0.3773808,1.598064,0.01567464,-0.126677,1.608344,0.3354786,-0.05473112,1.456224,NA,NA,NotTracked,NotTracked,
0.9443359,-0.3129883,0.05322266,-0.01660156,1.032227,-0.009765625,0,3,9,-2,-3,-3,-5,-2,1,7,6,9,-6,19,0,2,1.1875,1.1875,1.1875,-22.6875,-22.6875,-22.6875,2.758181,3.027154,3.158644,7.495324,4.971266,2.805894,0.04363023,-0.4375056,1.523301,0.1046986,-0.006883677,1.526615,0.2454967,0.4011568,1.671577,-0.003519678,-0.4431748,1.534081,0.1128897,0.06522389,1.523756,0.2192111,-0.06251802,1.651354,0.2101901,-0.3860717,1.62715,0.04699859,0.1183271,1.615261,0.123168,-0.3775069,1.597456,0.01529741,-0.1276145,1.602366,0.34232,-0.06369963,1.466098,NA,NA,NotTracked,NotTracked,
0.9570313,-0.315918,0.0703125,0.01757813,1.200195,0.05810547,-2,1,8,-1,-1,-1,1,-2,-7,-9,-18,-20,-43,-23,2,-2,-7.25,-7.25,-7.25,-22,-22,-22,2.752325,3.023798,3.156344,7.451653,4.846387,2.788491,0.04421398,-0.443767,1.521684,0.1173494,-0.02451103,1.532877,0.2458067,0.4010358,1.671382,-0.004499061,-0.4476534,1.535306,0.1181162,0.05367923,1.521713,0.2192672,-0.06268842,1.650875,0.2099982,-0.386367,1.626589,0.04868696,0.1202491,1.616685,0.1229171,-0.3776793,1.596513,0.016477,-0.1358509,1.59544,0.3460838,-0.07179424,1.477087,NA,NA,NotTracked,NotTracked,
0.9487305,-0.2998047,0.04541016,0.09423828,1.205566,0.03271484,1,5,10,1,0,0,-2,-1,1,-8,-9,0,0,6,14,-15,-7.6875,-7.6875,-7.6875,-5.75,-5.75,-5.75,2.749766,3.019065,3.145365,7.420847,4.793095,2.779993,0.04561878,-0.4539899,1.518739,0.1244611,-0.02963964,1.536968,0.2463023,0.4009472,1.670862,-0.003096734,-0.4656616,1.532222,0.1176236,0.04579766,1.523043,0.2192784,-0.06293644,1.650357,0.2097867,-0.3869772,1.625798,0.04939638,0.1208751,1.617027,0.1226864,-0.3781539,1.59571,0.021663,-0.1516797,1.584328,0.3479658,-0.07426907,1.479626,NA,NA,NotTracked,NotTracked,
0.9658203,-0.3041992,0.03662109,0.1069336,1.003418,-0.01123047,-1,-2,7,-1,-1,0,0,-3,-20,-10,-5,1,11,7,-10,-12,-0.625,-0.625,-0.625,6.375,6.375,6.375,2.752576,3.015154,3.133051,7.424816,4.7965,2.781711,0.04616293,-0.4537087,1.518598,0.1249328,-0.03057204,1.537891,0.2467341,0.4008551,1.670431,-0.00356885,-0.4651617,1.535331,0.1152776,0.04696597,1.524231,0.2193172,-0.0630884,1.649913,0.2098067,-0.3873453,1.625271,0.04973474,0.1210235,1.617072,0.1226514,-0.3784208,1.594972,0.02141942,-0.1512123,1.584124,0.3499736,-0.07726371,1.484034,NA,NA,Unknown,NotTracked,
0.9438477,-0.3046875,0.04101563,0.1689453,0.9199219,0.1079102,1,-1,-3,0,1,2,1,1,-1,2,-2,-3,-7,-5,-2,16,-0.625,-0.625,-0.625,-1.1875,-1.1875,-1.1875,2.756426,3.015512,3.128124,7.417981,4.791062,2.78311,0.04659453,-0.4535948,1.518548,0.1237879,-0.02937388,1.537602,0.247035,0.4008687,1.669894,-0.003172528,-0.481212,1.534462,0.1174032,0.04665481,1.522568,0.2192817,-0.06319883,1.649592,0.2097543,-0.3875343,1.62496,0.04994527,0.1214146,1.617115,0.1226009,-0.3785636,1.594547,0.02118635,-0.1506102,1.583417,0.3507246,-0.07849561,1.485738,NA,NA,Unknown,NotTracked,
0.9384766,-0.2944336,0.05517578,0.1040039,0.9628906,0.140625,1,-2,-12,-2,-1,1,-3,0,-1,11,3,1,3,-1,-6,-9,-2.125,-2.125,-2.125,-15.625,-15.625,-15.625,2.7626,3.014733,3.119427,7.396382,4.786382,2.779232,0.04685046,-0.4522208,1.518783,0.1240084,-0.03253926,1.536977,0.2471808,0.4008601,1.669541,-0.001761181,-0.4642242,1.531546,0.1191503,0.04327561,1.522737,0.2192727,-0.06331564,1.649152,0.2097723,-0.387804,1.624531,0.05014072,0.1215663,1.616986,0.1225884,-0.3787782,1.594057,0.02103808,-0.1495864,1.582862,0.3510529,-0.07893814,1.485809,NA,NA,NotTracked,NotTracked,
0.9477539,-0.3134766,0.03417969,0.1474609,0.9228516,0.1137695,0,-2,-7,-2,-3,-3,-5,-3,-1,-2,-2,0,1,1,6,-4,2.75,2.75,2.75,-43.4375,-43.4375,-43.4375,2.768031,3.011442,3.115191,7.339579,4.793709,2.741056,0.04675493,-0.4524298,1.518795,0.1241625,-0.03281515,1.537595,0.2472476,0.4008084,1.669165,-0.001800193,-0.4599602,1.528684,0.1198043,0.04338498,1.52262,0.2192408,-0.06349878,1.648792,0.209761,-0.3880303,1.62424,0.05022665,0.1216443,1.616979,0.1225642,-0.3789717,1.593752,0.02085213,-0.1494071,1.582547,0.3503149,-0.07964745,1.48647,NA,NA,NotTracked,NotTracked,
0.9492188,-0.3076172,0.07470703,0.2084961,0.7890625,0.1079102,0,4,1,-1,-3,-1,-1,1,-1,-1,1,2,-3,7,0,-3,2.3125,2.3125,2.3125,-77.25,-77.25,-77.25,2.782068,3.010447,3.10555,7.209536,4.796004,2.60504,0.04639453,-0.4520734,1.519148,0.1239209,-0.03749514,1.537984,0.2472374,0.4008344,1.668874,-0.002838835,-0.4622892,1.530542,0.106963,0.03199941,1.528229,0.2191211,-0.06362287,1.648477,0.2096883,-0.3881871,1.624059,0.05019531,0.1217123,1.616951,0.1224691,-0.3790736,1.59354,0.02056568,-0.1493677,1.582039,0.3507189,-0.08160061,1.489956,NA,NA,NotTracked,NotTracked,
0.9462891,-0.2724609,0.04736328,0.3183594,0.7397461,0.1630859,0,-4,2,-1,0,-1,-3,0,0,-3,0,3,-3,4,3,1,14.4375,14.4375,14.4375,-119.125,-119.125,-119.125,2.802754,3.015847,3.103042,7.065269,4.733121,2.422826,0.04639223,-0.4518573,1.51944,0.1264969,-0.04930948,1.541053,0.2468192,0.4010407,1.667996,-0.002892796,-0.4670192,1.532256,0.09679469,0.01023907,1.54703,0.2189812,-0.06367929,1.648083,0.2095799,-0.3881739,1.623908,0.05005085,0.1217132,1.617038,0.1223594,-0.3790322,1.59344,0.01995268,-0.1488688,1.582589,0.3578412,-0.08807985,1.499697,NA,NA,NotTracked,NotTracked,
0.9580078,-0.300293,0.04980469,0.3916016,0.6586914,0.3901367,-1,2,0,0,0,-1,-2,-1,-2,0,0,-2,-3,-5,0,-1,22.3125,22.3125,22.3125,-81.4375,-81.4375,-81.4375,2.827532,3.02086,3.112342,6.928432,4.555649,2.237206,0.04608951,-0.4510724,1.519681,0.1440532,-0.1368938,1.49542,0.2458935,0.4012055,1.667003,-0.003213019,-0.4649077,1.532123,0.1065577,-0.1178616,1.532822,0.2182307,-0.06386591,1.647506,0.2084045,-0.3883769,1.623752,0.04926169,0.1214292,1.617465,0.1208528,-0.3790794,1.59323,0.008805341,-0.1026365,1.613682,0.3690684,-0.09458398,1.510312,NA,NA,NotTracked,Unknown,
0.9521484,-0.324707,0.04931641,0.6083984,0.9448242,0.4345703,1,-1,1,0,-1,0,-1,1,1,1,2,-3,-1,-3,1,1,22.25,22.25,22.25,-112.625,-112.625,-112.625,2.846493,3.028302,3.130607,6.863572,4.274872,2.043808,0.03844191,-0.4249237,1.525134,0.1436576,-0.2415519,1.463592,0.2446131,0.4014457,1.666347,-0.002981181,-0.4429487,1.527426,0.121431,-0.1931641,1.508672,0.2170616,-0.06420849,1.646749,0.206834,-0.3888718,1.623276,0.0476155,0.1209349,1.618257,0.1197078,-0.379295,1.592775,0.008688616,-0.1152532,1.614519,0.3842115,-0.1016597,1.527667,NA,NA,NotTracked,NotTracked,
0.921875,-0.3183594,0.08300781,0.6967773,0.7924805,0.5,-2,-3,-3,-2,0,-1,-3,-2,-2,-10,-6,0,0,-1,2,-2,31.875,31.875,31.875,-90.375,-90.375,-90.375,2.895963,3.04142,3.145376,6.784486,3.857564,1.800819,0.03372425,-0.4134605,1.52954,0.190869,-0.3103298,1.465055,0.2429726,0.4015566,1.66548,-0.008966308,-0.4246377,1.548167,0.1365399,-0.2755691,1.489847,0.2164747,-0.06463431,1.646414,0.2064154,-0.3896214,1.623445,0.04545927,0.1203032,1.619302,0.1194291,-0.3798025,1.592806,0.007830502,-0.1245703,1.615474,0.404844,-0.1064249,1.553467,NA,NA,NotTracked,NotTracked,
0.9321289,-0.3642578,0.1044922,0.7583008,0.7177734,0.3222656,0,0,-2,-2,-1,-2,1,1,1,1,-1,-1,1,15,-11,-3,27.375,27.375,27.375,-130.3125,-130.3125,-130.3125,2.936319,3.043153,3.15342,6.761074,3.610045,1.568564,0.03702585,-0.4415924,1.525772,0.2601182,-0.3708324,1.444108,0.2413794,0.401935,1.664698,-0.008856653,-0.4504594,1.529722,0.2196762,-0.3752861,1.407308,0.2153471,-0.06500342,1.646057,0.2048643,-0.3906333,1.623733,0.04427848,0.1199309,1.61977,0.1174018,-0.3802702,1.592951,0.007938987,-0.1296234,1.61625,0.4125979,-0.1085116,1.569754,NA,NA,NotTracked,Unknown,
0.9526367,-0.34375,0.1318359,0.9360352,0.5810547,0.3398438,-1,-4,-2,-2,-2,-1,1,1,-4,-1,0,-1,-1,-2,-1,-2,9.5625,9.5625,9.5625,-121.5625,-121.5625,-121.5625,2.963466,3.040409,3.152338,6.769702,3.393651,1.296308,0.03786932,-0.4443122,1.526802,0.311413,-0.403861,1.460233,0.2395286,0.4021751,1.663772,-0.009375626,-0.4502958,1.533797,0.269473,-0.4166386,1.450118,0.213133,-0.0651177,1.645149,0.2003431,-0.3909633,1.623649,0.04307481,0.1197696,1.619804,0.1115639,-0.379889,1.592682,0.007810302,-0.1317342,1.616428,0.4143001,-0.1102572,1.582742,NA,NA,NotTracked,Closed,
0.9267578,-0.3012695,0.09472656,1.005859,0.4482422,0.3188477,-1,1,0,-1,-2,-2,-1,0,1,-1,-1,0,-1,-2,2,2,7.125,7.125,7.125,-43.3125,-43.3125,-43.3125,2.998276,3.039641,3.136758,6.877968,3.155812,1.008314,0.03703704,-0.4413307,1.526906,0.3545296,-0.4274408,1.481585,0.2367977,0.4024063,1.662259,-0.009597639,-0.4452974,1.538118,0.3092763,-0.4209093,1.485222,0.212848,-0.06524231,1.644628,0.200924,-0.3913445,1.623816,0.04179085,0.1196199,1.619507,0.112293,-0.3805798,1.592655,0.007359552,-0.1322681,1.616467,0.4140167,-0.1238859,1.591305,NA,NA,NotTracked,Unknown,
0.9213867,-0.3105469,0.105957,0.9462891,0.2426758,0.2817383,-1,1,-2,-1,-1,-1,-1,2,-4,0,2,0,-5,-7,-17,-5,8.5625,8.5625,8.5625,-30.875,-30.875,-30.875,3.018142,3.038617,3.131621,6.881663,3.027564,0.9248527,0.03316623,-0.4138577,1.531464,0.3796448,-0.4542849,1.501,0.2349667,0.4027798,1.661262,-0.006882568,-0.4464899,1.534019,0.3302348,-0.4317667,1.499555,0.2132432,-0.06553595,1.644032,0.2036754,-0.3922718,1.624131,0.04079863,0.1191985,1.619094,0.1154361,-0.3819794,1.592603,0.007415806,-0.1348673,1.6161,0.4168245,-0.1327467,1.595828,NA,NA,NotTracked,NotTracked,
0.9492188,-0.2783203,0.112793,0.940918,0.4033203,0.2651367,0,3,0,0,-1,0,-2,-2,0,-1,-1,0,-1,-7,14,0,9.8125,9.8125,9.8125,15.375,15.375,15.375,3.037676,3.038293,3.133232,6.783757,2.948409,1.069398,0.03409352,-0.4215291,1.530479,0.3876161,-0.4575429,1.521335,0.2334589,0.4028747,1.66048,-0.01039318,-0.4233422,1.543091,0.3350415,-0.4488085,1.501744,0.2135742,-0.0657571,1.643715,0.2061978,-0.3930179,1.624575,0.03980314,0.1187158,1.618852,0.1181702,-0.3831877,1.593069,0.00738492,-0.1356198,1.616211,0.4185258,-0.137286,1.600859,NA,NA,NotTracked,NotTracked,
0.9575195,-0.3325195,0.105957,0.7719727,0.4208984,0.1679688,-2,-2,-1,-1,-1,0,0,0,-3,-1,-2,0,-12,-26,-4,-3,10.6875,10.6875,10.6875,-14.25,-14.25,-14.25,3.044591,3.040003,3.139896,6.595103,2.969904,1.255511,0.03618604,-0.4424692,1.527214,0.3811072,-0.4470502,1.533297,0.231542,0.403077,1.659351,-0.006240314,-0.4612568,1.5312,0.3343823,-0.4226168,1.502091,0.2137401,-0.06583865,1.643395,0.2071802,-0.3931271,1.624843,0.03888754,0.1184206,1.618674,0.1191038,-0.3835215,1.593417,0.007262145,-0.1359511,1.616342,0.4190826,-0.1378139,1.606773,NA,NA,NotTracked,NotTracked,
