ALX,ALY,ALZ,ARX,ARY,ARZ,EMG0L,EMG1L,EMG2L,EMG3L,EMG4L,EMG5L,EMG6L,EMG7L,EMG0R,EMG1R,EMG2R,EMG3R,EMG4R,EMG5R,EMG6R,EMG7R,GLX,GLY,GLZ,GRX,GRY,GRZ,ORL,OPL,OYL,ORR,OPR,OYR,LHNX,LHNY,LHNZ,RHNX,RHNY,RHNZ,HX,HY,HZ,LTX,LTY,LTZ,RTX,RTY,RTZ,SpineMidX,SpineMidY,SpineMidZ,SpineBaseX,SpineBaseY,SpineBaseZ,ShoulderLeftX,ShoulderLeftY,ShoulderLeftZ,ShoulderRightX,ShoulderRightY,ShoulderRightZ,ElbowLeftX,ElbowLeftY,ElbowLeftZ,ElbowRightX,ElbowRightY,ElbowRightZ,Myo_Pose_left,Myo_Pose_Right,Kinect_pose_left,Kinect_pose_right
0.9082031,-0.3481445,0.1552734,0.9204102,0.2973633,0.1230469,-1,-1,-2,-2,-1,-1,-2,0,-1,-2,0,0,-1,0,3,1,0.0625,0.0625,0.0625,-1.0625,-1.0625,-1.0625,3.189544,3.131833,6.907722,6.904352,3.03535,3.596008,-0.03372509,-0.415058,1.65708,0.3321453,-0.4208824,1.642012,0.165591,0.4230712,1.767643,-0.08181419,-0.4228462,1.668776,0.379091,-0.4301969,1.628896,0.153698,-0.04909673,1.767965,0.1491486,-0.3823668,1.754135,-0.0212354,0.147554,1.739572,0.06200369,-0.3754373,1.723847,-0.05953749,-0.1258952,1.749566,0.3671656,-0.1244521,1.724519,NA,NA,NotTracked,NotTracked,
0.921875,-0.3520508,0.1567383,0.9233398,0.3032227,0.1254883,-1,0,0,0,-2,1,-1,-2,3,0,2,0,-1,7,0,5,-0.375,-0.375,-0.375,-3.875,-3.875,-3.875,3.187661,3.129873,6.90819,6.898016,3.035699,3.597406,-0.03384056,-0.4150879,1.657366,0.3326692,-0.4207194,1.641704,0.1657707,0.4230655,1.767473,-0.08261692,-0.4219871,1.668131,0.3848031,-0.4391985,1.632333,0.1538318,-0.04903192,1.767687,0.1491643,-0.3821783,1.753992,-0.02061032,0.1498451,1.739614,0.0620534,-0.3751555,1.72367,-0.05938552,-0.1257143,1.749654,0.3673797,-0.1247486,1.724309,NA,NA,NotTracked,NotTracked,
0.9345703,-0.3286133,0.1606445,0.9130859,0.2944336,0.1274414,-5,-1,-2,-1,-1,-2,-1,1,-3,-1,-2,-2,-2,-1,-2,-2,-2,-2,-2,-2.4375,-2.4375,-2.4375,3.18912,3.125248,6.905584,6.890131,3.036664,3.600037,-0.03358271,-0.4153405,1.658125,0.332589,-0.4206379,1.64113,0.165974,0.4230784,1.767365,-0.08188049,-0.4268991,1.670192,0.3868911,-0.4433598,1.638875,0.153963,-0.04896094,1.767514,0.1491346,-0.3820009,1.753886,-0.01983569,0.1519269,1.739593,0.06202845,-0.374774,1.72348,-0.05892082,-0.1264104,1.749581,0.3675258,-0.1245274,1.724207,NA,NA,NotTracked,NotTracked,
0.9165039,-0.3452148,0.1699219,0.9238281,0.3022461,0.1176758,1,-2,-3,1,0,-1,0,-1,0,-1,0,-3,-3,6,2,-2,-6.625,-6.625,-6.625,-2.6875,-2.6875,-2.6875,3.193573,3.120334,6.890875,6.890212,3.039576,3.595433,-0.03267007,-0.4160878,1.659211,0.3326404,-0.4202155,1.641418,0.1662644,0.4231115,1.767336,-0.08166496,-0.4226558,1.669335,0.3828967,-0.4359473,1.632852,0.1540728,-0.04890763,1.767453,0.1491359,-0.3817952,1.753781,-0.01943133,0.1526701,1.73953,0.06203471,-0.374441,1.723393,-0.05892672,-0.1254007,1.749936,0.3675591,-0.1242866,1.724268,NA,NA,NotTracked,NotTracked,
0.9423828,-0.359375,0.1542969,0.9326172,0.3129883,0.1137695,0,-2,-2,-4,-1,-1,-2,0,-4,-3,-1,-1,-2,-2,1,0,1.25,1.25,1.25,-1.4375,-1.4375,-1.4375,3.196167,3.120173,6.881973,6.896097,3.041234,3.587766,-0.03249762,-0.415812,1.659218,0.3323326,-0.420181,1.640844,0.1664161,0.4231638,1.767308,-0.08053654,-0.427545,1.672361,0.3824551,-0.4331461,1.632001,0.1541656,-0.04884115,1.767357,0.1490771,-0.3816153,1.753633,-0.01913687,0.1527931,1.739518,0.06199789,-0.3742069,1.723271,-0.05874072,-0.1254987,1.750255,0.3675542,-0.1245266,1.724237,NA,NA,NotTracked,NotTracked,
0.9160156,-0.3466797,0.144043,0.9243164,0.2949219,0.1157227,-1,-1,-1,-1,-1,-2,0,-1,1,0,0,-1,-2,1,5,4,-0.75,-0.75,-0.75,-0.4375,-0.4375,-0.4375,3.193426,3.121685,6.884302,6.893275,3.041656,3.586207,-0.03246969,-0.4161607,1.660674,0.3322611,-0.4209914,1.642299,0.1664904,0.423097,1.767308,-0.0807303,-0.4238281,1.673814,0.3815261,-0.4304601,1.632306,0.1542388,-0.0488759,1.767339,0.1491076,-0.3816659,1.753619,-0.01938756,0.1493098,1.739017,0.06202018,-0.3742556,1.723258,-0.05864811,-0.125794,1.75046,0.3675574,-0.1247844,1.724247,NA,NA,NotTracked,NotTracked,
0.9140625,-0.3505859,0.168457,0.9121094,0.347168,0.1030273,0,-1,-1,-2,-1,-1,-1,-3,-9,-14,-1,4,0,1,-1,-1,1.5625,1.5625,1.5625,-8.625,-8.625,-8.625,3.192498,3.12555,6.884271,6.903856,3.046946,3.572381,-0.03250966,-0.4168662,1.660133,0.3323324,-0.4232057,1.641696,0.1666139,0.4230427,1.767394,-0.08112992,-0.4259281,1.6724,0.3823037,-0.435579,1.632061,0.1543151,-0.04889527,1.767383,0.1492233,-0.3817427,1.753615,-0.01949366,0.1475427,1.739006,0.06212251,-0.3743368,1.723207,-0.05851881,-0.1261773,1.750819,0.3676107,-0.124964,1.724552,NA,NA,NotTracked,NotTracked,
0.9228516,-0.347168,0.1650391,1.03125,0.3613281,0.02783203,0,0,0,-1,-1,-2,0,-1,-7,3,-6,2,0,-1,-3,2,2.0625,2.0625,2.0625,-63.875,-63.875,-63.875,3.193501,3.128392,6.886642,6.882471,3.089801,3.510022,-0.03318426,-0.4164233,1.660891,0.3313303,-0.4226553,1.639269,0.1666426,0.4229878,1.767526,-0.08188397,-0.4271528,1.676257,0.3828312,-0.4349329,1.630761,0.1543659,-0.04894226,1.767459,0.1492258,-0.3817905,1.753636,-0.01969988,0.1464332,1.739197,0.06211981,-0.3743853,1.723218,-0.0584562,-0.1267047,1.751351,0.3677165,-0.1249721,1.724891,NA,NA,NotTracked,NotTracked,
0.9233398,-0.347168,0.1655273,1.128418,0.4101563,0.184082,-1,0,-1,0,-1,0,-2,-2,-2,-24,28,-13,-8,1,-3,1,0.6875,0.6875,0.6875,-79.25,-79.25,-79.25,3.195677,3.130541,6.886162,6.754302,3.215127,3.501736,-0.03267303,-0.4167272,1.660399,0.3213602,-0.4128297,1.62219,0.1665924,0.4228436,1.767898,-0.08112231,-0.4263878,1.67238,0.3642188,-0.420112,1.603087,0.1542273,-0.04888847,1.767672,0.1489263,-0.3816388,1.753779,-0.01952733,0.1498821,1.740273,0.06183078,-0.3741764,1.723234,-0.05833581,-0.126723,1.751981,0.3686109,-0.125264,1.725567,NA,NA,NotTracked,NotTracked,
0.9248047,-0.3364258,0.1655273,1.078125,0.6005859,0.5078125,-2,-1,-2,-1,1,-1,-1,-2,-7,15,36,-7,-9,-3,-3,-1,-0.875,-0.875,-0.875,-13.5625,-13.5625,-13.5625,3.198512,3.130269,6.885288,6.617516,3.469538,3.584651,-0.03287831,-0.4170544,1.660121,0.2925456,-0.3706777,1.581975,0.16647,0.4228507,1.76797,-0.08210109,-0.4252778,1.675902,0.2962894,-0.3675951,1.523604,0.1534774,-0.04875495,1.767735,0.1464828,-0.3811815,1.754051,-0.01944899,0.151372,1.740712,0.059221,-0.3731607,1.723518,-0.05860261,-0.1259698,1.752276,0.37743,-0.1158394,1.730078,NA,NA,NotTracked,NotTracked,
0.9233398,-0.3520508,0.1787109,0.5395508,0.7661133,0.6367188,-1,-1,-2,-1,0,-2,-1,0,1,12,34,-19,-7,-2,-3,1,1.375,1.375,1.375,-36.25,-36.25,-36.25,3.194108,3.12834,6.887858,6.49163,4.02889,3.682883,-0.03379345,-0.4165492,1.66117,0.2426627,-0.2739981,1.567281,0.1664078,0.4227971,1.768025,-0.08200386,-0.4154288,1.679833,0.2532816,-0.2655384,1.485368,0.1524111,-0.04880081,1.767731,0.1432664,-0.3813228,1.75385,-0.01984273,0.1478062,1.740791,0.05620631,-0.3728593,1.723551,-0.05873531,-0.1248031,1.752685,0.3879925,-0.08899844,1.733815,NA,NA,NotTracked,Unknown,
0.9223633,-0.3608398,0.1884766,0.1743164,0.730957,0.5351563,-2,0,-2,-1,-1,0,-1,-2,-4,4,-14,-1,-4,-2,-3,2,-4.75,-4.75,-4.75,-32.875,-32.875,-32.875,3.190495,3.125209,6.889355,6.408827,4.531643,3.731481,-0.03284846,-0.4176307,1.660122,0.2059805,-0.1568647,1.507056,0.1664434,0.4227206,1.767978,-0.08197755,-0.4235878,1.677524,0.225403,-0.1542735,1.453,0.1524378,-0.04876785,1.767785,0.1434415,-0.3809881,1.754093,-0.01992232,0.1467519,1.740854,0.05640553,-0.3727528,1.723794,-0.05832247,-0.1248289,1.753215,0.3891011,-0.0759208,1.730047,NA,NA,NotTracked,Closed,
0.9179688,-0.3510742,0.1606445,-0.1811523,0.8417969,0.4462891,-1,-1,0,-1,-3,-1,-1,-1,-2,-47,-39,-32,-17,-3,4,3,3.6875,3.6875,3.6875,14.4375,14.4375,14.4375,3.188221,3.127701,6.893884,6.410222,5.171714,3.845083,-0.0323349,-0.4167711,1.659513,0.1937726,-0.04075659,1.532192,0.1666112,0.4227102,1.767901,-0.08050659,-0.4267432,1.672209,0.2187739,-0.05087312,1.48749,0.1523656,-0.04873454,1.767752,0.1436006,-0.3806001,1.754286,-0.01958763,0.1458189,1.740705,0.05671695,-0.3724657,1.724179,-0.05806234,-0.1242321,1.753345,0.384855,-0.07607216,1.706895,NA,NA,NotTracked,Unknown,
0.9130859,-0.3232422,0.1333008,-0.3862305,0.7329102,0.5200195,0,0,-2,0,0,0,-1,-2,-9,-21,-28,9,-3,1,1,-3,-0.875,-0.875,-0.875,47,47,47,3.190799,3.130936,6.895942,6.506368,5.554662,3.993911,-0.03113041,-0.417329,1.659122,0.1797076,0.0842803,1.527992,0.1669334,0.4225034,1.767757,-0.07985175,-0.4245061,1.672113,0.1961407,0.08825113,1.482923,0.152469,-0.04868264,1.767969,0.1436859,-0.380281,1.754614,-0.01858467,0.150192,1.741002,0.05685509,-0.3722742,1.724365,-0.05795131,-0.1229296,1.753105,0.3873412,-0.07499064,1.685053,NA,NA,NotTracked,Lasso,
0.9189453,-0.3383789,0.1621094,-0.4897461,0.668457,0.5185547,-1,0,-1,0,-1,-1,-2,-1,-1,-1,-9,-17,-3,1,1,4,-4.5,-4.5,-4.5,46.6875,46.6875,46.6875,3.186647,3.129231,6.888739,6.658699,5.826793,4.162717,-0.03043141,-0.416579,1.657791,0.1978369,0.1100194,1.575334,0.1671522,0.4224906,1.767571,-0.07645909,-0.427049,1.664643,0.2416451,0.07770524,1.53475,0.1522511,-0.04875687,1.767764,0.1436905,-0.3803517,1.754759,-0.01809806,0.1535423,1.741467,0.05683983,-0.3724374,1.724842,-0.05769449,-0.1220985,1.752944,0.3858353,-0.07064943,1.654022,NA,NA,NotTracked,Unknown,
0.9208984,-0.3300781,0.1689453,-0.5664063,0.6220703,0.4477539,-1,-1,0,-2,0,0,0,-1,-11,-3,8,-12,-6,0,1,2,11.5,11.5,11.5,35.1875,35.1875,35.1875,3.189561,3.132364,6.898735,6.811049,6.017481,4.32521,-0.03062249,-0.4163208,1.658826,0.1925086,0.1785234,1.575074,0.1671394,0.4227522,1.767623,-0.07918604,-0.4342806,1.670232,0.2048027,0.1955586,1.531083,0.1512542,-0.04962971,1.766931,0.1438225,-0.3811344,1.755054,-0.01862761,0.1530689,1.742411,0.05679033,-0.3739669,1.72655,-0.0574285,-0.1225154,1.753078,0.3797847,-0.06173187,1.619923,NA,NA,NotTracked,Unknown,
0.9272461,-0.3339844,0.1645508,-0.5239258,0.6259766,0.3632813,0,0,1,0,0,-2,1,-1,4,0,-1,-9,0,0,-10,-1,9.1875,9.1875,9.1875,7.5625,7.5625,7.5625,3.199411,3.132201,6.908372,6.966045,6.174932,4.502246,-0.03019659,-0.417162,1.661278,0.1965177,0.1976327,1.591155,0.1661602,0.4239259,1.767842,-0.07861699,-0.4273417,1.670993,0.2038512,0.1905057,1.545159,0.1504651,-0.05024225,1.766062,0.1440426,-0.3819084,1.755223,-0.01904881,0.1504905,1.743635,0.05688802,-0.3752324,1.727968,-0.05702319,-0.1213829,1.754044,0.3746899,-0.05303096,1.60004,NA,NA,NotTracked,Unknown,
0.9360352,-0.3818359,0.1660156,-0.5922852,0.6352539,0.2724609,-3,0,-2,0,-1,0,1,1,35,45,27,7,4,-1,-18,-4,7.5,7.5,7.5,1,1,1,3.204859,3.131382,6.914412,7.045488,6.229272,4.625381,-0.03015819,-0.417476,1.662439,0.1930846,0.2044033,1.608129,0.1648477,0.4250508,1.768266,-0.07844649,-0.4257862,1.672456,0.2180301,0.2129453,1.557161,0.1495981,-0.05087999,1.765256,0.1439458,-0.3824517,1.755313,-0.01929691,0.1511798,1.744232,0.05661152,-0.3759272,1.729073,-0.05657839,-0.1203049,1.75499,0.3674904,-0.04643507,1.584644,NA,NA,NotTracked,Unknown,
0.9106445,-0.3583984,0.1552734,-0.565918,0.6914063,0.2202148,0,0,-2,-2,-1,-1,-2,0,-19,13,19,9,17,-5,2,-10,9.25,9.25,9.25,-7.8125,-7.8125,-7.8125,3.209269,3.135299,6.926872,7.086139,6.235965,4.703202,-0.03006788,-0.4182342,1.66231,0.1841665,0.2142601,1.618671,0.1639621,0.4256572,1.768267,-0.07828908,-0.4268578,1.676436,0.2069813,0.2529948,1.569789,0.1488923,-0.05125709,1.764677,0.1438888,-0.3826365,1.755395,-0.01890883,0.1535046,1.744541,0.05644757,-0.3762136,1.729929,-0.05658706,-0.1204959,1.756281,0.3624064,-0.04238904,1.576171,NA,NA,NotTracked,Unknown,
0.909668,-0.3701172,0.1689453,-0.6728516,0.7055664,0.1772461,2,-3,-3,-2,-2,-1,-1,-1,-1,4,-1,-32,4,2,4,0,5.75,5.75,5.75,-16,-16,-16,3.209138,3.138686,6.936855,7.087207,6.237831,4.739994,-0.03069253,-0.4178608,1.662657,0.1812411,0.2180388,1.622924,0.1629957,0.4261129,1.76797,-0.07904094,-0.4273018,1.675012,0.2050763,0.2545615,1.573721,0.1482169,-0.05165283,1.764125,0.1436589,-0.3829024,1.755422,-0.02004038,0.1515539,1.745247,0.05611574,-0.3765312,1.730499,-0.05666021,-0.1162032,1.758502,0.3580048,-0.04030367,1.571495,NA,NA,NotTracked,NotTracked,
0.9272461,-0.3623047,0.1699219,-0.6987305,0.7094727,0.1674805,-1,-2,-2,-1,0,0,-1,-1,-11,-14,-26,-19,-13,0,-15,-19,-0.6875,-0.6875,-0.6875,6.9375,6.9375,6.9375,3.210729,3.136426,6.941414,7.080497,6.240436,4.731672,-0.03074563,-0.4171881,1.662883,0.1958324,0.200823,1.615839,0.1621301,0.4269195,1.767883,-0.07835232,-0.4299213,1.67262,0.2054187,0.2563402,1.575474,0.1475068,-0.0520507,1.763713,0.1434479,-0.3834452,1.755413,-0.02170862,0.1472351,1.746238,0.05581144,-0.3772265,1.730963,-0.05667642,-0.1174386,1.759236,0.3555395,-0.03926797,1.569299,NA,NA,NotTracked,NotTracked,
0.9101563,-0.375,0.1728516,-0.6850586,0.6904297,0.1845703,-1,-2,1,0,-1,-2,-2,-2,13,3,4,8,-1,0,3,8,-1.6875,-1.6875,-1.6875,3.375,3.375,3.375,3.207511,3.136035,6.94056,7.080523,6.244823,4.722752,-0.03171775,-0.4187999,1.66282,0.1803817,0.2178829,1.624437,0.1617106,0.4272498,1.767714,-0.0796268,-0.4277566,1.674805,0.2044418,0.2559822,1.575403,0.1469584,-0.05240117,1.763254,0.143121,-0.3837919,1.75524,-0.02127121,0.1499982,1.745718,0.05553437,-0.3774534,1.731007,-0.05738474,-0.1143585,1.759841,0.3545205,-0.03957091,1.569039,NA,NA,NotTracked,NotTracked,
0.9140625,-0.3618164,0.1894531,-0.6948242,0.6943359,0.1884766,0,-1,-1,-1,-1,-1,0,-1,18,17,7,1,-1,-1,2,0,-5.625,-5.625,-5.625,9.9375,9.9375,9.9375,3.205306,3.137615,6.935199,7.090398,6.243818,4.707871,-0.03170962,-0.419424,1.660624,0.1822175,0.2122778,1.622947,0.1613474,0.4273037,1.767517,-0.07930154,-0.4270709,1.673319,0.2060041,0.2557063,1.574142,0.14638,-0.05282995,1.7628,0.1427668,-0.3843999,1.75506,-0.02216586,0.1465038,1.745607,0.05516567,-0.3780034,1.731032,-0.05751969,-0.1156899,1.759374,0.3541915,-0.0396448,1.568909,NA,NA,NotTracked,NotTracked,
0.9233398,-0.3378906,0.1894531,-0.746582,0.7109375,0.1381836,-2,-2,-2,-1,-2,-1,-2,-1,9,-18,-22,-10,-6,-2,-2,-2,-3.4375,-3.4375,-3.4375,12.875,12.875,12.875,3.209691,3.140927,6.924104,7.085596,6.259762,4.678182,-0.03252011,-0.4186297,1.660759,0.1821507,0.2207357,1.622421,0.1609436,0.4275707,1.767426,-0.0814318,-0.4311794,1.676358,0.2054124,0.2597624,1.574383,0.146152,-0.05295645,1.762573,0.1426463,-0.3845413,1.75493,-0.02152256,0.1493862,1.745018,0.05499215,-0.3780085,1.731039,-0.0576935,-0.1180706,1.758616,0.354079,-0.03952954,1.569111,NA,NA,NotTracked,NotTracked,
0.9272461,-0.3305664,0.1699219,-0.7749023,0.7290039,0.1640625,0,1,-1,-1,-1,-1,0,-1,-27,7,5,7,3,-2,-9,-5,-2.5625,-2.5625,-2.5625,20,20,20,3.216094,3.139112,6.913619,7.085905,6.299057,4.629734,-0.03231098,-0.4186483,1.659868,0.1876202,0.2300933,1.621292,0.1601806,0.4277918,1.7672,-0.08026247,-0.42698,1.676036,0.2118957,0.2708204,1.572158,0.1460561,-0.05307827,1.762333,0.1425196,-0.3846293,1.754795,-0.02152728,0.1501202,1.744591,0.05481002,-0.3780724,1.730981,-0.05758632,-0.1186528,1.758152,0.3540142,-0.03964812,1.569319,NA,NA,NotTracked,NotTracked,
0.9189453,-0.3378906,0.1582031,-0.8139648,0.6191406,0.1035156,-2,0,-3,0,0,-1,-1,0,-9,-13,-20,-14,-11,1,-5,-2,0.3125,0.3125,0.3125,21.6875,21.6875,21.6875,3.219784,3.136186,6.907239,7.113038,6.388554,4.599106,-0.03161075,-0.4185124,1.660108,0.1961038,0.2353224,1.624054,0.1587471,0.4273017,1.766779,-0.07936211,-0.4275315,1.674069,0.2245152,0.2709995,1.57041,0.1460879,-0.05304947,1.762202,0.1424861,-0.3847347,1.75475,-0.02217982,0.1465257,1.74404,0.05475389,-0.3782459,1.731059,-0.05793555,-0.1175608,1.757802,0.3541645,-0.03995178,1.569499,NA,NA,NotTracked,NotTracked,
0.9248047,-0.3491211,0.171875,-0.8251953,0.6015625,0.1523438,0,0,0,0,0,0,-2,-1,-1,8,-1,15,-2,0,-1,-3,-0.1875,-0.1875,-0.1875,14.625,14.625,14.625,3.219015,3.13423,6.908136,7.174451,6.443073,4.619483,-0.03188479,-0.4186958,1.659971,0.2056879,0.2397826,1.625743,0.1577602,0.425889,1.7657,-0.07848081,-0.4250161,1.672067,0.2375369,0.2752973,1.577316,0.1463948,-0.05276956,1.762004,0.1425261,-0.3847617,1.754656,-0.02202216,0.1441367,1.743147,0.05478782,-0.3782837,1.731059,-0.05763846,-0.117922,1.757574,0.3559428,-0.03871532,1.570803,NA,NA,NotTracked,NotTracked,
0.9257813,-0.3579102,0.1738281,-0.8203125,0.5634766,0.1396484,-2,-1,-2,-2,0,0,-1,-1,-13,-10,-4,4,4,0,-1,-6,1.625,1.625,1.625,15.1875,15.1875,15.1875,3.218774,3.134091,6.909218,7.235496,6.482383,4.667332,-0.03133819,-0.4190771,1.660099,0.2109025,0.2495206,1.628661,0.1572426,0.4248088,1.764845,-0.07881401,-0.4268588,1.673233,0.2455881,0.2744067,1.580313,0.1481502,-0.05136298,1.761292,0.1426703,-0.3846451,1.754481,-0.02156406,0.142943,1.742674,0.0549411,-0.3782078,1.730983,-0.05742357,-0.117863,1.757706,0.3591347,-0.03482391,1.567816,NA,NA,NotTracked,NotTracked,
0.9145508,-0.3525391,0.1621094,-0.8344727,0.5205078,0.09570313,0,0,-1,-3,-1,-4,-1,-2,-9,-3,-6,1,-3,-1,-2,3,-0.875,-0.875,-0.875,3.625,3.625,3.625,3.220172,3.134488,6.908803,7.297282,6.517636,4.737223,-0.03141503,-0.4184669,1.660657,0.2106851,0.254246,1.63245,0.1569796,0.4239011,1.763912,-0.07926381,-0.4271634,1.673351,0.2486307,0.2757902,1.588302,0.1489435,-0.05075027,1.761091,0.1426998,-0.3845911,1.754441,-0.02095884,0.141785,1.742201,0.05497557,-0.3781642,1.730992,-0.05729992,-0.1179464,1.757583,0.3608151,-0.03147867,1.564704,NA,NA,NotTracked,NotTracked,
0.9287109,-0.3583984,0.1674805,-0.8242188,0.5444336,0.06152344,0,-1,-2,0,-1,-4,-2,-2,8,-12,-10,-7,-1,0,0,9,-0.75,-0.75,-0.75,-4.6875,-4.6875,-4.6875,3.216749,3.134218,6.91012,7.321377,6.526747,4.772024,-0.03101378,-0.4177864,1.660643,0.2059126,0.2674369,1.635231,0.157081,0.4231763,1.763168,-0.07792534,-0.4242057,1.672973,0.242963,0.2815659,1.590982,0.1494606,-0.05054379,1.76092,0.1428182,-0.384453,1.754309,-0.02045655,0.1411242,1.741706,0.05510805,-0.378069,1.730912,-0.05664361,-0.1165012,1.757469,0.3614789,-0.0295024,1.562525,NA,NA,NotTracked,NotTracked,
0.9228516,-0.3408203,0.1640625,-0.7924805,0.5805664,0.05273438,0,-2,0,0,-1,-1,-2,-2,-4,35,19,-3,5,-1,8,-5,0.5625,0.5625,0.5625,-7.25,-7.25,-7.25,3.210441,3.132376,6.913195,7.331501,6.525141,4.792264,-0.03103925,-0.4182975,1.6591,0.2036889,0.2674657,1.63652,0.1574285,0.4226178,1.762679,-0.07887164,-0.4266626,1.673412,0.2439665,0.2786414,1.590753,0.150049,-0.05058456,1.760416,0.1429262,-0.3844795,1.754133,-0.02011282,0.1408182,1.741397,0.05519694,-0.3780958,1.730837,-0.05663131,-0.1166733,1.757172,0.360938,-0.02834716,1.560644,NA,NA,NotTracked,NotTracked,
0.9213867,-0.3554688,0.1728516,-0.8178711,0.5810547,0.04443359,-1,-2,-2,-2,-1,-2,0,-1,-14,-5,-15,-19,-8,2,-1,-3,0.625,0.625,0.625,2.875,2.875,2.875,3.207828,3.13229,6.912863,7.332685,6.525717,4.789152,-0.03090137,-0.4175819,1.660361,0.2044216,0.2674747,1.63721,0.1582047,0.4220541,1.76217,-0.07820447,-0.4245941,1.673456,0.2464462,0.2797871,1.589676,0.1501417,-0.0507169,1.760422,0.1430514,-0.3844749,1.754077,-0.01989871,0.1404548,1.741145,0.05533588,-0.3781095,1.730841,-0.05652191,-0.1171287,1.757168,0.3605513,-0.02783299,1.559882,NA,NA,NotTracked,NotTracked,
0.9262695,-0.3422852,0.1606445,-0.8422852,0.5732422,0.06787109,-1,-1,-1,-2,-2,-2,-1,-1,4,-5,-5,-5,-2,-5,0,-1,-0.5625,-0.5625,-0.5625,-2.125,-2.125,-2.125,3.210925,3.131403,6.912979,7.320305,6.52042,4.766727,-0.03069184,-0.418113,1.659588,0.2024119,0.2679064,1.635731,0.1585238,0.4218616,1.761817,-0.07738483,-0.4233131,1.671608,0.242638,0.276544,1.589921,0.1503062,-0.05082611,1.760225,0.1431138,-0.3845162,1.75387,-0.01965789,0.1401782,1.740944,0.05540528,-0.378135,1.730749,-0.05649761,-0.1173827,1.756983,0.3606922,-0.02772895,1.559844,NA,NA,NotTracked,NotTracked,
0.9072266,-0.3564453,0.1655273,-0.8378906,0.5668945,0.05419922,0,0,0,-1,0,0,0,1,2,-1,4,8,2,-2,-8,-5,0.5,0.5,0.5,-7.0625,-7.0625,-7.0625,3.208643,3.130206,6.914129,7.316611,6.520246,4.772727,-0.03099902,-0.418266,1.660029,0.2022148,0.2639145,1.637845,0.1587451,0.421656,1.761694,-0.07854124,-0.4245183,1.673905,0.2415719,0.2777573,1.590178,0.1501477,-0.05101741,1.760305,0.1430725,-0.3845513,1.753819,-0.01964454,0.1400733,1.74092,0.05538316,-0.3781634,1.730753,-0.05650545,-0.1171676,1.756912,0.3601321,-0.02717883,1.558854,NA,NA,NotTracked,NotTracked,
0.9208984,-0.3466797,0.1728516,-0.8071289,0.5756836,0.08154297,-1,1,-1,-2,1,-1,0,-3,22,-14,-5,-12,2,2,10,2,-0.875,-0.875,-0.875,-2.75,-2.75,-2.75,3.208513,3.130042,6.91538,7.307463,6.516826,4.769075,-0.03091126,-0.4182316,1.660161,0.2013926,0.2639428,1.638386,0.1588758,0.4215442,1.76164,-0.07764721,-0.4259346,1.671994,0.2369739,0.2751701,1.591978,0.1502063,-0.05107004,1.760112,0.1430529,-0.3845725,1.753797,-0.01963352,0.1399611,1.740893,0.05535734,-0.3781796,1.730745,-0.05647805,-0.1174365,1.756878,0.3596444,-0.02699542,1.558356,NA,NA,NotTracked,NotTracked,
0.9238281,-0.3408203,0.159668,-0.7661133,0.5864258,0.1074219,-1,0,-1,0,0,-2,0,-1,-5,-11,-10,6,-5,-4,-8,-14,-0.125,-0.125,-0.125,-4.6875,-4.6875,-4.6875,3.213846,3.130798,6.912856,7.272418,6.504714,4.73266,-0.0311437,-0.4182459,1.660066,0.2021178,0.2630985,1.63607,0.1588725,0.4215714,1.761604,-0.07808624,-0.425172,1.672989,0.2392496,0.2789252,1.591179,0.1503294,-0.05091047,1.759757,0.1428529,-0.3842678,1.753734,-0.01837045,0.1466263,1.740877,0.0552,-0.3778525,1.730719,-0.05654992,-0.1172703,1.756795,0.359558,-0.02739895,1.559114,NA,NA,NotTracked,NotTracked,
0.9194336,-0.3461914,0.1665039,-0.7192383,0.5776367,0.1274414,-1,-2,-1,0,-2,-1,-1,0,-9,-19,-2,-3,-1,-1,-2,-2,-0.0625,-0.0625,-0.0625,-4.6875,-4.6875,-4.6875,3.213846,3.130798,6.912856,7.216638,6.483179,4.673502,-0.03121656,-0.4185812,1.660537,0.202391,0.2616284,1.634305,0.1588063,0.4214327,1.761531,-0.07879291,-0.4262613,1.673703,0.2421151,0.2806749,1.588189,0.150232,-0.05100114,1.759854,0.1428505,-0.3843644,1.753729,-0.01848261,0.1439879,1.740757,0.05520659,-0.3779903,1.730764,-0.05642476,-0.1148412,1.757826,0.3597203,-0.02820266,1.560448,NA,NA,NotTracked,NotTracked,
0.9121094,-0.3500977,0.1650391,-0.6303711,0.5742188,0.1782227,0,-2,-1,-1,0,-1,-1,-1,4,4,1,6,0,-2,3,4,2.5,2.5,2.5,-6.375,-6.375,-6.375,3.215338,3.131512,6.918242,7.115943,6.440515,4.560533,-0.0315252,-0.418129,1.659971,0.2052107,0.2549628,1.628055,0.158397,0.4214719,1.761342,-0.07794943,-0.4253066,1.672456,0.2433853,0.2706062,1.578051,0.1501623,-0.05096508,1.75988,0.1428404,-0.3843235,1.753692,-0.01869516,0.1432346,1.740707,0.05523133,-0.3779406,1.730779,-0.05654375,-0.1148478,1.757824,0.361731,-0.03341426,1.570221,NA,NA,NotTracked,NotTracked,
0.9160156,-0.3432617,0.1762695,-0.690918,0.5483398,0.3046875,-1,-1,-2,-1,-1,1,-1,-2,0,5,1,-2,-2,0,-1,3,5.375,5.375,5.375,-1.8125,-1.8125,-1.8125,3.21864,3.13408,6.92282,6.907735,6.277089,4.31249,-0.03256746,-0.4188137,1.660097,0.2086013,0.25279,1.598607,0.1578667,0.4215908,1.761304,-0.08023085,-0.4289486,1.674999,0.1984118,0.1913935,1.664423,0.1499107,-0.05073687,1.759951,0.142749,-0.3842363,1.753621,-0.01928212,0.1422935,1.740769,0.05516565,-0.3778946,1.730775,-0.05631182,-0.1170808,1.757695,0.3654529,-0.03999406,1.585037,NA,NA,NotTracked,NotTracked,
0.9169922,-0.3286133,0.168457,-0.4799805,0.6376953,0.3857422,-3,-2,0,-1,-2,0,-1,-3,0,-4,-4,0,-3,-3,-20,-1,5.875,5.875,5.875,-19.875,-19.875,-19.875,3.224644,3.134669,6.928742,6.767474,6.051288,4.125887,-0.03264815,-0.4175785,1.660723,0.2101302,0.2040651,1.554732,0.1574859,0.4217751,1.761398,-0.07893732,-0.4260991,1.673897,0.1917739,0.1682508,1.636083,0.1493362,-0.05079103,1.760126,0.1425666,-0.3842921,1.753509,-0.02081843,0.1413261,1.741611,0.05497723,-0.3779307,1.73077,-0.05607518,-0.1184018,1.757629,0.3696053,-0.04903791,1.606012,NA,NA,NotTracked,Unknown,
0.940918,-0.3662109,0.1791992,-0.4121094,0.7070313,0.4829102,0,-3,-3,-1,-3,-1,0,-1,-3,-2,-4,-1,-3,0,10,-1,4.5,4.5,4.5,-11.625,-11.625,-11.625,3.225339,3.132322,6.931953,6.634924,5.640222,3.968159,-0.03195393,-0.4219225,1.661293,0.1968259,0.1338275,1.526761,0.1574253,0.4217287,1.761481,-0.07823613,-0.4260866,1.674642,0.173255,0.1098622,1.601333,0.1482568,-0.05106431,1.76079,0.1422647,-0.384474,1.753455,-0.02113933,0.1473256,1.742567,0.05463856,-0.3779818,1.730529,-0.05630735,-0.120057,1.757786,0.3723965,-0.05642587,1.623923,NA,NA,NotTracked,Unknown,
0.9243164,-0.3505859,0.1645508,-0.2739258,0.7724609,0.5014648,0,-3,-3,0,-1,-1,-2,-1,15,10,0,-4,-2,-3,-3,0,-0.9375,-0.9375,-0.9375,2.5,2.5,2.5,3.224984,3.133107,6.935832,6.612106,5.23294,3.912007,-0.03181031,-0.4218692,1.659953,0.1818147,0.04743215,1.508645,0.1576966,0.4215308,1.761462,-0.07721653,-0.4343068,1.669563,0.1524723,0.04598136,1.581,0.1483037,-0.05110987,1.761307,0.1421779,-0.3840442,1.75333,-0.02242591,0.1445145,1.742709,0.05471809,-0.3773096,1.72927,-0.05650491,-0.1200887,1.757753,0.3787543,-0.06355881,1.653592,NA,NA,NotTracked,Closed,
0.9106445,-0.3374023,0.1674805,-0.1308594,0.8696289,0.4038086,-1,-1,0,-2,-1,-1,-3,-2,1,9,4,2,-2,-3,-14,1,0.625,0.625,0.625,-8.25,-8.25,-8.25,3.227297,3.132268,6.934495,6.609557,4.814878,3.878035,-0.03171298,-0.4219906,1.661425,0.1780539,-0.06999162,1.504878,0.1578412,0.4214312,1.761452,-0.0781087,-0.4277096,1.673252,0.13877,-0.08564306,1.584533,0.1483979,-0.05085006,1.762056,0.142016,-0.3831829,1.753473,-0.02270668,0.1433448,1.742658,0.05483205,-0.3761791,1.728421,-0.05648188,-0.1207574,1.75766,0.3865326,-0.06737679,1.682061,NA,NA,NotTracked,Unknown,
0.9116211,-0.3579102,0.1669922,0.1958008,0.918457,0.4350586,-1,1,0,0,-2,-2,0,0,-1,4,5,-2,4,-2,-1,-2,-5.125,-5.125,-5.125,17.125,17.125,17.125,3.221297,3.127504,6.932721,6.630764,4.394018,3.840406,-0.03171406,-0.4219759,1.661475,0.185804,-0.185546,1.515695,0.1582755,0.4211374,1.761193,-0.0783006,-0.4295056,1.67553,0.1380473,-0.1907454,1.579,0.1488412,-0.05074555,1.762577,0.1422677,-0.3826976,1.753538,-0.02257261,0.1428167,1.74249,0.05522984,-0.3756368,1.727831,-0.05680737,-0.1203811,1.757751,0.4273965,-0.08965243,1.707565,NA,NA,NotTracked,Unknown,
0.9228516,-0.3520508,0.1708984,0.5947266,0.7905273,0.456543,-1,-1,-1,-1,-1,0,-2,0,-2,-3,-3,-3,-2,0,0,2,-3.625,-3.625,-3.625,9.875,9.875,9.875,3.217,3.125819,6.927474,6.671074,3.864032,3.790745,-0.03136085,-0.4219976,1.660782,0.2203209,-0.2802678,1.565611,0.1585306,0.4209218,1.76097,-0.078303,-0.4273555,1.673915,0.2366863,-0.3493936,1.5987,0.148829,-0.05062768,1.76288,0.1414324,-0.3819655,1.753531,-0.02040237,0.150818,1.742216,0.05439214,-0.3741263,1.726803,-0.05683779,-0.1204116,1.757619,0.3914011,-0.07796528,1.720642,NA,NA,NotTracked,Unknown,
