ALX,ALY,ALZ,ARX,ARY,ARZ,EMG0L,EMG1L,EMG2L,EMG3L,EMG4L,EMG5L,EMG6L,EMG7L,EMG0R,EMG1R,EMG2R,EMG3R,EMG4R,EMG5R,EMG6R,EMG7R,GLX,GLY,GLZ,GRX,GRY,GRZ,ORL,OPL,OYL,ORR,OPR,OYR,LHNX,LHNY,LHNZ,RHNX,RHNY,RHNZ,HX,HY,HZ,LTX,LTY,LTZ,RTX,RTY,RTZ,SpineMidX,SpineMidY,SpineMidZ,SpineBaseX,SpineBaseY,SpineBaseZ,ShoulderLeftX,ShoulderLeftY,ShoulderLeftZ,ShoulderRightX,ShoulderRightY,ShoulderRightZ,ElbowLeftX,ElbowLeftY,ElbowLeftZ,ElbowRightX,ElbowRightY,ElbowRightZ,Myo_Pose_left,Myo_Pose_Right,Kinect_pose_left,Kinect_pose_right
0.918457,-0.40625,0.1157227,0.9125977,0.3305664,0.1108398,-13,1,-11,-1,-3,0,4,15,-2,-3,-1,-2,4,1,4,3,13.4375,13.4375,13.4375,-2.9375,-2.9375,-2.9375,2.953005,3.205236,2.918601,7.049248,3.084688,0.1280714,-0.001470995,-0.4078904,1.510955,0.3524322,-0.4429118,1.494601,0.2009892,0.3962385,1.646015,0.02297468,-0.3995753,1.447964,0.394725,-0.4332882,1.489927,0.1919304,-0.07026979,1.63297,0.1880113,-0.3964167,1.615687,0.02371928,0.1128965,1.615658,0.1000482,-0.3877543,1.584863,-0.03067953,-0.1446434,1.623424,0.3991591,-0.1358671,1.603814,NA,NA,NotTracked,NotTracked,
0.9042969,-0.4545898,0.152832,0.9067383,0.3447266,0.09960938,13,-19,-63,-4,2,4,-8,9,14,2,1,-4,3,-5,-9,-2,3.5625,3.5625,3.5625,-0.75,-0.75,-0.75,3.007959,3.256271,2.88239,7.045801,3.085045,0.1293387,0.001937602,-0.4011434,1.505073,0.3527066,-0.4428375,1.495054,0.2010641,0.3962646,1.646079,0.02594996,-0.3915251,1.442731,0.3984338,-0.4210767,1.500813,0.1919916,-0.07026653,1.632989,0.1882293,-0.3964821,1.615687,0.02734506,0.1133616,1.615604,0.100168,-0.38785,1.584854,-0.03184464,-0.142815,1.623933,0.3991568,-0.1359763,1.603819,NA,NA,NotTracked,NotTracked,
0.9208984,-0.4316406,0.1904297,0.9072266,0.3481445,0.09960938,6,11,5,-7,-4,-5,-12,-13,-18,-7,-4,-3,-5,-6,-2,-12,22.4375,22.4375,22.4375,-2.75,-2.75,-2.75,3.075618,3.312505,2.840345,7.043976,3.086519,0.1278949,0.007462659,-0.3922804,1.498186,0.3527288,-0.4417963,1.495108,0.2010911,0.396241,1.646078,0.02995038,-0.3770176,1.438667,0.3972347,-0.4278633,1.496891,0.1920868,-0.07027078,1.632985,0.1884302,-0.3965073,1.615648,0.02685314,0.1135424,1.6159,0.1003109,-0.3879367,1.584849,-0.0328319,-0.1409289,1.624533,0.3992701,-0.1358363,1.603806,NA,NA,NotTracked,NotTracked,
0.8818359,-0.5366211,0.2324219,0.9091797,0.3476563,0.1010742,15,12,-2,-5,-2,7,15,-26,-22,-2,1,2,5,-5,-2,2,10.25,10.25,10.25,-15.1875,-15.1875,-15.1875,3.12905,3.38223,2.788969,7.039843,3.091532,0.1147388,0.0168884,-0.3799588,1.48772,0.352763,-0.4425613,1.495243,0.201158,0.3962501,1.646122,0.03990477,-0.3615116,1.428292,0.3964375,-0.4301515,1.494646,0.1923739,-0.07028151,1.632935,0.1890312,-0.396486,1.615553,0.0260151,0.1136046,1.616275,0.1007808,-0.3879766,1.584764,-0.03464905,-0.1359721,1.626375,0.3994021,-0.1358177,1.603818,NA,NA,Unknown,NotTracked,
0.8173828,-0.5585938,0.2919922,0.9179688,0.3769531,0.08691406,-14,-24,-25,-8,-12,-20,21,-2,-15,3,4,-6,-3,-1,3,-8,7.375,7.375,7.375,-18.5625,-18.5625,-18.5625,3.238909,3.513687,2.712093,7.033292,3.102188,0.08832733,0.03185035,-0.3675234,1.470219,0.3535119,-0.4405451,1.495333,0.2012242,0.3962467,1.646132,0.05160918,-0.3382398,1.417609,0.4005368,-0.4165585,1.501923,0.1927193,-0.07027996,1.632927,0.1898967,-0.3965195,1.615474,0.02557338,0.1138017,1.616529,0.1015876,-0.3882844,1.584654,-0.03927864,-0.1189021,1.633365,0.3994375,-0.1358119,1.603844,NA,NA,Unknown,NotTracked,
0.8198242,-0.6206055,0.2998047,0.9492188,0.3754883,0.05712891,21,-3,-21,4,10,7,0,7,16,3,6,12,1,-2,-7,15,29.4375,29.4375,29.4375,-63.1875,-63.1875,-63.1875,3.304736,3.640685,2.662733,6.985646,3.135906,0.05475154,0.06348086,-0.3467098,1.476299,0.3534957,-0.4397093,1.492815,0.2013309,0.3962754,1.646163,0.07548417,-0.3072323,1.385667,0.3962487,-0.4267968,1.487389,0.193149,-0.07019401,1.632946,0.1908713,-0.3964101,1.615478,0.02369445,0.1141152,1.617282,0.1025961,-0.3884532,1.584665,-0.0425121,-0.1138729,1.635679,0.3995503,-0.1361312,1.60392,NA,NA,Unknown,NotTracked,
0.8452148,-0.7241211,0.4677734,0.9106445,0.4077148,0.1811523,-30,-5,14,6,4,-2,-8,-2,-37,1,3,1,-5,3,-7,-11,30.5,30.5,30.5,-17.25,-17.25,-17.25,3.38498,3.814206,2.623123,6.915699,3.196452,0.06271456,0.08188978,-0.2997485,1.463504,0.3517857,-0.4322718,1.486654,0.2013326,0.396285,1.646167,0.07920603,-0.2423206,1.3727,0.3972293,-0.4235129,1.491658,0.1940858,-0.07103503,1.633781,0.1909556,-0.3964947,1.615625,0.02579233,0.1146044,1.61749,0.1027455,-0.3885617,1.58481,-0.04512418,-0.1096365,1.638751,0.4001288,-0.1373901,1.604842,NA,NA,Unknown,NotTracked,
0.4189453,-0.762207,0.4677734,0.7724609,0.4672852,0.21875,4,-19,-1,3,7,12,89,18,14,1,1,-3,3,-3,0,11,29.4375,29.4375,29.4375,-1.6875,-1.6875,-1.6875,3.468252,4.144335,2.584093,6.891246,3.289705,0.07866699,0.09511112,-0.2423834,1.422608,0.3493034,-0.4227589,1.479162,0.2012467,0.3962381,1.646014,0.06983402,-0.1801697,1.37175,0.3406579,-0.470643,1.468125,0.1937658,-0.07099736,1.633631,0.1904363,-0.3964854,1.615798,0.02417223,0.1150776,1.617835,0.1024586,-0.3884479,1.584939,-0.04938323,-0.1024039,1.641336,0.4018135,-0.1370429,1.605321,NA,NA,Unknown,NotTracked,
0.2353516,-0.706543,0.4433594,0.8081055,0.440918,0.2094727,10,1,-14,2,11,18,41,8,17,-1,-1,0,8,4,3,-10,12.75,12.75,12.75,-8.0625,-8.0625,-8.0625,3.507095,4.385462,2.566038,6.895297,3.333195,0.06114504,0.09511755,-0.1755363,1.407315,0.348507,-0.4159977,1.470896,0.2010905,0.3962124,1.645794,0.07514954,-0.1161542,1.35344,0.3222283,-0.4481664,1.47785,0.1934491,-0.07083143,1.633625,0.1895802,-0.3961444,1.616126,0.02595855,0.11644,1.618268,0.1016253,-0.3876328,1.585247,-0.05195782,-0.09536295,1.637331,0.4028187,-0.1360346,1.605565,NA,NA,Unknown,NotTracked,
0.2070313,-0.6791992,0.5185547,0.8793945,0.4770508,0.2026367,15,20,1,2,8,29,40,4,7,0,0,4,18,3,-16,5,-4.75,-4.75,-4.75,-28.3125,-28.3125,-28.3125,3.511405,4.574308,2.552885,6.887593,3.362564,0.03383456,0.1027866,-0.140811,1.384793,0.3499454,-0.4140884,1.462507,0.2010099,0.3962427,1.645801,0.08009066,-0.06975602,1.339857,0.3230907,-0.4381683,1.487706,0.1930459,-0.07047041,1.633831,0.1888936,-0.3954338,1.6165,0.02440686,0.11813,1.619295,0.1010287,-0.3865727,1.585512,-0.09615064,-0.1211813,1.645948,0.4031408,-0.1360057,1.605276,NA,NA,Unknown,NotTracked,
0.2602539,-0.7319336,0.5727539,0.8891602,0.4594727,0.2055664,4,-15,30,-7,-13,-22,39,-7,-59,-7,1,-7,-5,1,-2,-21,-6.125,-6.125,-6.125,-26.5,-26.5,-26.5,3.499262,4.686559,2.539424,6.827466,3.423899,0.002537691,0.1045679,-0.1242553,1.376424,0.3523325,-0.40827,1.445953,0.2008869,0.3962531,1.645949,0.07841404,-0.05375022,1.335818,0.3272352,-0.418487,1.484555,0.1928158,-0.07021546,1.634087,0.188482,-0.3949738,1.616777,0.02590279,0.1190147,1.619455,0.1006476,-0.3857542,1.585649,-0.09636894,-0.1215165,1.64939,0.4031196,-0.1361277,1.604873,NA,NA,Unknown,Unknown,
0.2124023,-0.7729492,0.5766602,0.8027344,0.5610352,0.2460938,-8,-3,20,2,-6,-10,34,-4,9,-7,-5,10,30,6,6,7,-0.875,-0.875,-0.875,-14.375,-14.375,-14.375,3.499396,4.716681,2.540719,6.802043,3.505537,0.002995849,0.1033155,-0.1167831,1.373159,0.3504567,-0.3970295,1.425467,0.2009397,0.3961453,1.64627,0.1433597,-0.1631184,1.465827,0.3329725,-0.3904301,1.484625,0.1925021,-0.06986409,1.634348,0.1879479,-0.3943553,1.616979,0.02512713,0.1195382,1.619808,0.1001959,-0.3847429,1.5856,-0.09808691,-0.1204944,1.649617,0.4033504,-0.1354289,1.604715,NA,NA,Unknown,Unknown,
0.1791992,-0.7954102,0.5649414,0.7661133,0.5800781,0.2680664,-4,1,2,-5,-7,-18,-42,1,-1,4,2,-1,-8,1,-6,18,-2.6875,-2.6875,-2.6875,-18.875,-18.875,-18.875,3.495122,4.723628,2.545023,6.774147,3.600143,9.999047,0.1020758,-0.1162121,1.370247,0.3446572,-0.3811795,1.411295,0.201023,0.3961181,1.646635,0.1397491,-0.1678769,1.456715,0.3287528,-0.3800738,1.478571,0.1922943,-0.06962604,1.634521,0.1874414,-0.3938308,1.617162,0.02459877,0.1198751,1.619894,0.09969097,-0.3838418,1.585591,-0.09928989,-0.1213286,1.653954,0.4035136,-0.1346777,1.604919,NA,NA,Unknown,Unknown,
0.1645508,-0.828125,0.5854492,0.7827148,0.6845703,0.328125,-10,17,14,0,-8,-24,-26,-2,13,1,2,15,43,-4,-7,9,-4.125,-4.125,-4.125,-16.625,-16.625,-16.625,3.480683,4.719635,2.547039,6.743845,3.755965,9.989146,0.1025795,-0.1176506,1.371572,0.3401207,-0.3603748,1.392763,0.2011192,0.3961454,1.647067,0.1408481,-0.1654378,1.463162,0.3443184,-0.3923961,1.3816,0.1920807,-0.06945533,1.63458,0.1868842,-0.3935226,1.61725,0.02730272,0.119915,1.6193,0.09906975,-0.3832671,1.585572,-0.1009355,-0.1211121,1.647531,0.4039493,-0.1329197,1.605706,NA,NA,Unknown,Lasso,
0.1787109,-0.8232422,0.5981445,0.6855469,0.7739258,0.3994141,-3,10,18,-1,-3,-3,28,18,12,5,15,-7,-11,6,23,50,-3.1875,-3.1875,-3.1875,-13.0625,-13.0625,-13.0625,3.474834,4.718262,2.54896,6.721453,3.921715,9.987102,0.1008832,-0.116162,1.368285,0.3232957,-0.3419642,1.395127,0.201152,0.3961673,1.647637,0.1354187,-0.1331211,1.460333,0.2886255,-0.4111707,1.449,0.1916596,-0.0691019,1.634874,0.1858472,-0.3928473,1.617545,0.02813084,0.1204522,1.619244,0.09792967,-0.3822337,1.585765,-0.1011287,-0.1206709,1.647785,0.4051819,-0.129299,1.607707,NA,NA,Unknown,Lasso,
0.1694336,-0.8105469,0.5708008,0.5581055,0.8754883,0.4682617,-10,-29,19,-1,1,10,22,10,16,-6,2,-6,4,-6,-1,2,0.375,0.375,0.375,-13.9375,-13.9375,-13.9375,3.477519,4.725981,2.556839,6.699299,4.135459,9.986887,0.1008243,-0.1140119,1.367736,0.3216142,-0.2841698,1.352351,0.2012046,0.3962471,1.648436,0.1347589,-0.1671525,1.461,0.2913353,-0.3438184,1.4562,0.1910656,-0.06881562,1.635235,0.1850226,-0.3924429,1.617853,0.02914986,0.1204071,1.61911,0.09723151,-0.3817476,1.585983,-0.1016196,-0.1216669,1.644029,0.410644,-0.1153878,1.61142,NA,NA,Unknown,Lasso,
0.1591797,-0.8144531,0.5834961,0.324707,0.8901367,0.5366211,14,9,-30,-5,1,-7,-52,-18,-24,-2,5,1,-3,-3,1,2,5.125,5.125,5.125,-25.5,-25.5,-25.5,3.481466,4.741014,2.571367,6.663122,4.396489,9.980118,0.09916048,-0.1110382,1.367649,0.3197409,-0.2193629,1.337152,0.2012365,0.396286,1.648996,0.138663,-0.1608386,1.461517,0.3130105,-0.2509515,1.3188,0.190624,-0.06843081,1.635647,0.1843383,-0.3919533,1.618126,0.02932948,0.1209315,1.619358,0.09675171,-0.3813727,1.586166,-0.101783,-0.1198329,1.651966,0.4136116,-0.1070104,1.610499,NA,NA,Unknown,Unknown,
0.1508789,-0.8413086,0.5644531,0.09326172,0.7001953,0.5986328,15,1,-13,8,10,25,-11,24,-52,-20,-10,-6,-5,-10,-20,-31,-0.1875,-0.1875,-0.1875,-46.5,-46.5,-46.5,3.476366,4.754688,2.580863,6.554499,4.790389,9.975552,0.09718025,-0.1082513,1.365793,0.3068944,-0.1490089,1.32464,0.2011783,0.3964017,1.649722,0.1371493,-0.134827,1.464667,0.2874482,-0.1832356,1.311,0.1902413,-0.06786516,1.636141,0.1840954,-0.3912736,1.618464,0.02738373,0.121422,1.62004,0.09665253,-0.3808794,1.586493,-0.1037025,-0.1220184,1.656207,0.4712498,-0.1105108,1.564522,NA,NA,Unknown,Unknown,
0.1386719,-0.800293,0.574707,-0.07519531,0.7851563,0.5019531,13,0,6,1,8,11,-44,9,8,-10,-10,-14,8,-8,25,-7,-5.4375,-5.4375,-5.4375,-17.6875,-17.6875,-17.6875,3.478081,4.765055,2.584959,6.521512,5.084363,9.983305,0.095347,-0.1069406,1.364193,0.2767666,-0.07136565,1.314905,0.201006,0.3964372,1.650197,0.1201717,-0.1390745,1.37664,0.179905,-0.1004616,1.322667,0.1900604,-0.06751857,1.636409,0.1839188,-0.3906297,1.618708,0.02618752,0.1216311,1.620529,0.09660888,-0.3803756,1.587241,-0.1036357,-0.1212972,1.656348,0.4238261,-0.09934495,1.560686,NA,NA,NotTracked,Unknown,
0.1542969,-0.8188477,0.5922852,-0.1635742,0.7241211,0.5380859,9,-30,-58,-8,-3,10,-21,-27,-7,0,-2,-2,-11,-2,-10,-8,3.75,3.75,3.75,-22.3125,-22.3125,-22.3125,3.477054,4.766256,2.585207,6.484087,5.316675,0.004065044,0.09513403,-0.1063537,1.365079,0.2809551,-0.004582409,1.32377,0.2005432,0.3966271,1.651272,0.06197548,-0.03823476,1.326849,0.2622359,-0.03934703,1.315778,0.1900366,-0.06709899,1.636857,0.1840149,-0.3898163,1.619044,0.02548901,0.1219844,1.620945,0.09686702,-0.3798505,1.588047,-0.1023856,-0.1200269,1.624143,0.4101822,-0.1065186,1.532113,NA,NA,Unknown,Unknown,
0.1474609,-0.8481445,0.5859375,-0.2358398,0.7114258,0.5429688,1,-13,-10,0,1,8,1,4,-25,-20,-11,-5,1,-28,-14,-1,-1.9375,-1.9375,-1.9375,0.375,0.375,0.375,3.473877,4.769568,2.582922,6.466245,5.516918,0.03198188,0.0949024,-0.1054569,1.36401,0.2904733,0.02590142,1.339171,0.2001499,0.3968475,1.652061,0.06188285,-0.03816385,1.326666,0.2671471,-0.0002872405,1.3175,0.189998,-0.06676681,1.637063,0.1841424,-0.3891301,1.619177,0.02512656,0.1221635,1.620995,0.09705758,-0.3794539,1.588329,-0.1023498,-0.1193043,1.636762,0.396958,-0.09875829,1.506788,NA,NA,Unknown,Unknown,
0.1254883,-0.8085938,0.5737305,-0.2753906,0.7055664,0.5664063,-37,12,8,2,4,13,27,10,15,8,4,19,-3,-1,-20,17,-3.5625,-3.5625,-3.5625,-14.5,-14.5,-14.5,3.475008,4.775607,2.579935,6.456224,5.584705,0.04666394,0.09540071,-0.1042206,1.365417,0.2905385,0.04893566,1.343937,0.1996772,0.396953,1.653611,0.06174257,-0.0374241,1.326912,0.2688935,0.02676843,1.314953,0.1900412,-0.0662194,1.63783,0.1844957,-0.3884801,1.619631,0.02448415,0.122025,1.621375,0.09749652,-0.3790177,1.589014,-0.1019316,-0.1189643,1.626271,0.3966383,-0.09226577,1.503867,NA,NA,Unknown,Unknown,
0.1396484,-0.8183594,0.5766602,-0.3671875,0.7050781,0.550293,-19,11,-17,-4,5,11,1,-18,8,-11,-7,-10,10,10,-10,-25,-0.6875,-0.6875,-0.6875,-0.4375,-0.4375,-0.4375,3.470483,4.780503,2.579452,6.450734,5.626957,0.05962156,0.09457353,-0.1044124,1.364485,0.2895005,0.06016771,1.347203,0.1993617,0.3969994,1.654332,0.06169984,-0.0373361,1.326285,0.2655271,0.03580599,1.321352,0.1899491,-0.06612704,1.63795,0.1845358,-0.3884307,1.619656,0.02662939,0.1214017,1.62097,0.09756204,-0.3790357,1.589161,-0.1022791,-0.1181964,1.638593,0.3959499,-0.08998498,1.50385,NA,NA,Unknown,Unknown,
0.1352539,-0.8491211,0.5668945,-0.375,0.7250977,0.5820313,-7,-16,17,-10,-8,-16,-104,-23,3,-24,-10,2,-4,2,-11,-35,-1.6875,-1.6875,-1.6875,0.75,0.75,0.75,3.463684,4.779881,2.580499,6.451826,5.627415,0.06751361,0.09321699,-0.1058389,1.365435,0.2878108,0.06229061,1.349153,0.1989701,0.397181,1.654904,0.06115564,-0.03776148,1.326099,0.2417297,0.04968811,1.3682,0.1898734,-0.06593753,1.638108,0.1845879,-0.3881795,1.619635,0.02562791,0.1215518,1.621344,0.09765679,-0.3788971,1.589233,-0.1022665,-0.1183726,1.645631,0.3960823,-0.08966418,1.504187,NA,NA,Unknown,Unknown,
0.1337891,-0.8349609,0.5742188,-0.4116211,0.7539063,0.5756836,13,-2,3,0,0,-2,-17,-20,-16,-3,-5,-2,1,5,21,0,-4.1875,-4.1875,-4.1875,-6.8125,-6.8125,-6.8125,3.459966,4.778657,2.579428,6.450356,5.615971,0.07125736,0.09292473,-0.1058726,1.364511,0.2862585,0.0603212,1.349591,0.1987648,0.3972202,1.655077,0.06065939,-0.03787721,1.326313,0.2583518,0.03645656,1.33106,0.1898058,-0.06587575,1.638173,0.184596,-0.388146,1.619618,0.02690858,0.121211,1.620939,0.09767406,-0.3789004,1.589235,-0.1036921,-0.1167456,1.654618,0.3946606,-0.08767419,1.504032,NA,NA,Unknown,Unknown,
0.1357422,-0.8134766,0.5786133,-0.4125977,0.765625,0.5761719,-27,-27,-5,-3,-2,0,-20,7,-2,-3,-6,-12,1,-7,7,-17,-3.125,-3.125,-3.125,0.6875,0.6875,0.6875,3.458904,4.776833,2.579515,6.446101,5.610363,0.06761345,0.09579813,-0.1065472,1.364885,0.2855753,0.05825732,1.349862,0.1985904,0.3972422,1.655194,0.06134527,-0.03808171,1.325909,0.2599744,0.03421429,1.331881,0.1897847,-0.0658015,1.638209,0.1846633,-0.3880386,1.619594,0.02820034,0.1208315,1.620658,0.09774434,-0.3788491,1.58926,-0.104849,-0.1105426,1.596151,0.3935983,-0.08626667,1.503808,NA,NA,Unknown,Unknown,
0.1362305,-0.8164063,0.5595703,-0.3945313,0.7436523,0.5751953,3,31,-6,-4,-9,-13,-12,47,-6,-2,-6,-1,-5,-3,-15,-10,0.4375,0.4375,0.4375,-1.625,-1.625,-1.625,3.457575,4.775198,2.575899,6.437749,5.609726,0.06168907,0.09568076,-0.106924,1.365887,0.2856331,0.05824646,1.351044,0.1985068,0.3972342,1.655221,0.0615826,-0.03794074,1.326007,0.2597026,0.03346755,1.332783,0.1897665,-0.06576801,1.638214,0.184723,-0.3879401,1.619583,0.02922088,0.1206275,1.619974,0.09781148,-0.3787913,1.589268,-0.1075214,-0.1132941,1.643919,0.3927027,-0.08533888,1.503631,NA,NA,Unknown,Unknown,
0.128418,-0.8349609,0.5737305,-0.3144531,0.7333984,0.6083984,-13,-6,-19,-9,-8,-12,-24,9,17,-1,-10,-19,-16,-17,-15,9,-0.4375,-0.4375,-0.4375,-6.3125,-6.3125,-6.3125,3.453517,4.771972,2.56774,6.433179,5.594406,0.06492434,0.09599668,-0.1073541,1.364525,0.2848105,0.05604696,1.352104,0.1984577,0.3972571,1.655203,0.06222542,-0.03786812,1.323682,0.2394294,0.04595887,1.3678,0.1897408,-0.06570222,1.638218,0.1848058,-0.3877938,1.619561,0.02691929,0.1209803,1.620084,0.09788992,-0.3787029,1.589239,-0.106014,-0.1139834,1.640146,0.3930528,-0.08722219,1.507296,NA,NA,Unknown,Unknown,
0.140625,-0.8305664,0.5712891,-0.2109375,0.6821289,0.6044922,21,-1,7,1,-3,-13,58,32,3,-6,-10,-18,0,14,-4,4,-1.875,-1.875,-1.875,-9.25,-9.25,-9.25,3.451389,4.773485,2.566961,6.426266,5.53372,0.1032163,0.09626305,-0.1071376,1.363665,0.2784879,0.04592331,1.356919,0.1984344,0.3972454,1.655064,0.06202138,-0.03766336,1.324321,0.2620066,0.0274177,1.326242,0.18973,-0.06553867,1.638229,0.1847635,-0.387467,1.619539,0.02588679,0.1217712,1.620062,0.09788293,-0.3784386,1.589203,-0.1052754,-0.1141738,1.642581,0.3965219,-0.09566968,1.520501,NA,NA,Unknown,Unknown,
0.137207,-0.8476563,0.5576172,-0.175293,0.8007813,0.6533203,10,-12,-33,1,6,4,38,15,21,6,-1,-12,-4,18,12,11,-1.6875,-1.6875,-1.6875,-16.1875,-16.1875,-16.1875,3.450422,4.78364,2.574326,6.430665,5.381156,0.2242735,0.09477707,-0.105375,1.36131,0.2685249,0.02163227,1.372272,0.1983732,0.3971544,1.65483,0.06155399,-0.03657125,1.32401,0.2716776,0.07202435,1.44275,0.1896741,-0.06542421,1.638184,0.1846786,-0.3871513,1.619527,0.02503223,0.1222861,1.620118,0.09783846,-0.3782052,1.589144,-0.1066167,-0.1171462,1.632826,0.400951,-0.1050617,1.530339,NA,NA,Unknown,Unknown,
0.1137695,-0.8647461,0.5302734,-0.2675781,0.7695313,0.605957,4,-24,21,-6,-10,-14,-67,-5,-32,-4,0,-38,-17,11,-3,-12,-3.5625,-3.5625,-3.5625,12,12,12,3.441812,4.795284,2.581772,6.447206,5.245262,0.3352943,0.08825108,-0.1035433,1.36126,0.2537895,-0.009127207,1.393613,0.1982654,0.3971748,1.654659,0.06035943,-0.03495544,1.319571,0.2550619,0.04360094,1.466857,0.1896441,-0.06530485,1.638096,0.1846084,-0.3868508,1.619396,0.02455264,0.1223654,1.620135,0.09786136,-0.3779692,1.588978,-0.06502466,-0.08546943,1.608354,0.4098397,-0.1061427,1.543901,NA,NA,NotTracked,Unknown,
0.1259766,-0.8666992,0.5668945,-0.1645508,0.7543945,0.5488281,-12,-27,5,-5,-6,-16,-38,-50,-9,0,2,-1,2,6,-23,5,-8.6875,-8.6875,-8.6875,8.375,8.375,8.375,3.426944,4.80928,2.589099,6.474302,5.079494,0.4104616,0.08024149,-0.1000865,1.360627,0.2418287,-0.05043559,1.409375,0.1982137,0.3971284,1.6546,0.05763847,-0.03030762,1.319685,0.2116742,-0.02597066,1.470333,0.1895962,-0.06526025,1.638019,0.1843796,-0.3865861,1.619285,0.02413412,0.1223828,1.619993,0.09776931,-0.3777002,1.588821,-0.0650992,-0.08561319,1.607796,0.4229995,-0.0953142,1.570147,NA,NA,NotTracked,NotTracked,
0.1362305,-0.8154297,0.590332,-0.08349609,0.8046875,0.4467773,18,12,27,6,5,13,14,3,-18,-10,-7,3,0,13,0,-17,-3.375,-3.375,-3.375,29.6875,29.6875,29.6875,3.422107,4.823535,2.596035,6.540557,4.845036,0.4591034,0.06610951,-0.09802336,1.362697,0.172203,-0.09211748,1.363292,0.1980839,0.3970667,1.654348,0.05222333,-0.04581461,1.33496,0.1391298,-0.1212021,1.348167,0.1895072,-0.06514427,1.637855,0.1842273,-0.3863215,1.619104,0.02395718,0.1224387,1.619931,0.0977416,-0.377319,1.588369,-0.06503283,-0.08568092,1.607121,0.4261863,-0.09420928,1.580952,NA,NA,NotTracked,NotTracked,
0.1323242,-0.8188477,0.5864258,0.09667969,0.7954102,0.5854492,-12,-9,-6,-2,-9,-4,-35,12,-21,-6,-1,-8,10,14,16,-6,2.3125,2.3125,2.3125,40.1875,40.1875,40.1875,3.424639,4.836355,2.598503,6.576595,4.657173,0.4695033,0.08052292,-0.09325632,1.35786,0.2292615,-0.1468026,1.420759,0.1980781,0.397092,1.654265,0.05369766,-0.02219431,1.315421,0.1913385,-0.1797074,1.462833,0.1895206,-0.06512287,1.637795,0.1842894,-0.3862675,1.61903,0.02702062,0.1214267,1.618817,0.09783856,-0.3772397,1.588161,-0.06504092,-0.08533806,1.606607,0.4297154,-0.09335968,1.592004,NA,NA,NotTracked,NotTracked,
0.09179688,-0.8383789,0.5693359,0.3037109,0.9301758,0.5097656,-18,13,-20,-1,-8,-18,-20,-26,16,10,2,2,-2,-4,1,22,4.375,4.375,4.375,16.375,16.375,16.375,3.439449,4.84427,2.588116,6.640941,4.465883,0.4531007,0.08512253,-0.09118704,1.358318,0.2371608,-0.2077475,1.42729,0.1980727,0.3971398,1.654264,0.05594321,-0.02394081,1.318532,0.238947,-0.265835,1.479622,0.1895177,-0.06511622,1.637789,0.1844633,-0.3863517,1.618989,0.02639867,0.1215726,1.618921,0.09815287,-0.3773139,1.587878,-0.06538976,-0.08531675,1.60656,0.4286064,-0.09413294,1.599867,NA,NA,Unknown,NotTracked,
0.1000977,-0.8457031,0.5546875,0.4467773,0.909668,0.4003906,-10,-9,18,-2,1,1,-36,7,-13,-1,-5,0,-2,-13,7,0,4,4,4,36.3125,36.3125,36.3125,3.447467,4.840853,2.57703,6.703972,4.236647,0.4293774,0.08957487,-0.09256478,1.360152,0.2404764,-0.255566,1.433785,0.1980453,0.3970996,1.654328,0.05783479,-0.02415851,1.318985,0.2553784,-0.31415,1.47744,0.1894681,-0.06514352,1.637805,0.1844407,-0.3864529,1.618933,0.02617789,0.1216444,1.619014,0.0981951,-0.377317,1.587723,-0.06588627,-0.08509302,1.607484,0.4250715,-0.09603383,1.605613,NA,NA,Unknown,Unknown,
0.1035156,-0.8686523,0.5629883,0.5825195,0.7392578,0.4291992,25,25,57,0,5,6,-5,-1,9,8,0,2,-2,-24,-25,-3,0.9375,0.9375,0.9375,7.875,7.875,7.875,3.449931,4.835378,2.571169,6.718492,4.092429,0.4101103,0.09053425,-0.09381313,1.360664,0.2572113,-0.2714297,1.454548,0.1980625,0.3970984,1.654381,0.05874699,-0.02507159,1.318827,0.3168192,-0.2552512,1.426029,0.1893471,-0.06529658,1.63789,0.1842047,-0.3870741,1.618899,0.03015624,0.1207185,1.618361,0.09809155,-0.3774389,1.587665,-0.06547747,-0.08437565,1.607472,0.4224252,-0.09819992,1.608283,NA,NA,Unknown,Unknown,
0.1171875,-0.859375,0.5634766,0.6835938,0.8129883,0.3974609,19,23,7,2,3,-1,47,5,-20,-18,-6,-2,-7,-4,9,-26,-1.3125,-1.3125,-1.3125,1.5,1.5,1.5,3.448181,4.832464,2.571501,6.74943,3.985569,0.3857991,0.09144545,-0.09355976,1.361774,0.2561169,-0.3094248,1.4527,0.1981044,0.3970644,1.654588,0.05880591,-0.02511243,1.320357,0.3037125,-0.3662595,1.4885,0.189175,-0.06549826,1.638039,0.18373,-0.3878565,1.618946,0.02959657,0.1206517,1.618828,0.09765781,-0.3777178,1.587581,-0.06594488,-0.08443131,1.609074,0.4197366,-0.09952645,1.610269,NA,NA,Unknown,Unknown,
0.09033203,-0.8354492,0.5605469,0.659668,0.7958984,0.3139648,-4,5,-6,-2,-4,-10,-19,8,11,-7,-2,11,13,-4,3,34,-4,-4,-4,1.875,1.875,1.875,3.443082,4.831666,2.572349,6.7752,3.895934,0.3652286,0.09095131,-0.09343688,1.362515,0.2656756,-0.3096448,1.459785,0.1981764,0.3970363,1.65472,0.05812263,-0.02519611,1.320741,0.3226442,-0.3671466,1.49,0.1888254,-0.06566468,1.638233,0.1831371,-0.3882386,1.619076,0.0296605,0.1206929,1.618998,0.0970578,-0.377762,1.587591,-0.06607469,-0.08428838,1.609485,0.4183385,-0.1016735,1.611236,NA,NA,Unknown,Unknown,
0.08496094,-0.8203125,0.5751953,0.6787109,0.6762695,0.347168,4,0,8,0,1,3,34,17,6,7,-2,-23,-31,21,-26,-27,-0.0625,-0.0625,-0.0625,6.875,6.875,6.875,3.442026,4.83263,2.575421,6.77489,3.856621,0.3607435,0.09052236,-0.09294415,1.361479,0.2697832,-0.3155816,1.462295,0.1982045,0.3970252,1.654825,0.05761173,-0.0251504,1.31981,0.3317222,-0.3701909,1.495562,0.1884767,-0.06575234,1.638455,0.182478,-0.3884596,1.619185,0.02786195,0.1210968,1.619599,0.0963114,-0.3776202,1.587554,-0.06577927,-0.08485723,1.60982,0.4165546,-0.1050128,1.611808,NA,NA,Unknown,Unknown,
0.08154297,-0.8334961,0.5629883,0.6547852,0.6914063,0.3686523,1,-11,39,0,-3,-11,5,-11,20,0,2,-4,5,-12,1,8,-0.4375,-0.4375,-0.4375,-4.75,-4.75,-4.75,3.439301,4.835351,2.578444,6.779446,3.853788,0.3530843,0.08978814,-0.09429951,1.361709,0.2724322,-0.3187783,1.461791,0.1983219,0.3969633,1.655196,0.05755256,-0.02510032,1.320751,0.3338383,-0.372896,1.496588,0.1882685,-0.065924,1.638689,0.1819559,-0.3888308,1.619418,0.02874956,0.1210174,1.619643,0.09576035,-0.3776998,1.587732,-0.06550679,-0.08467186,1.609563,0.416545,-0.1054837,1.611993,NA,NA,Unknown,Unknown,
0.1020508,-0.8286133,0.5585938,0.621582,0.6420898,0.3369141,11,-13,16,3,0,3,-72,-21,6,0,-1,3,10,6,-1,-3,-3.625,-3.625,-3.625,-3.8125,-3.8125,-3.8125,3.436883,4.832002,2.579882,6.781884,3.865285,0.3364452,0.09166671,-0.0975369,1.361538,0.2710208,-0.3249716,1.459956,0.1983394,0.3970819,1.655539,0.0589506,-0.02706859,1.320892,0.3290714,-0.3797646,1.492262,0.1881075,-0.06603591,1.638929,0.1816132,-0.3890969,1.619635,0.02850497,0.121225,1.620229,0.09539884,-0.3777552,1.587847,-0.06506894,-0.08479447,1.609693,0.4170979,-0.1050664,1.612576,NA,NA,Unknown,Unknown,
0.1079102,-0.7924805,0.5507813,0.5717773,0.6181641,0.2924805,0,4,9,1,-2,-2,-28,-12,-8,-1,-1,-1,2,17,-3,-2,-3.0625,-3.0625,-3.0625,10.25,10.25,10.25,3.433407,4.809546,2.577835,6.798138,3.851849,0.3236659,0.09251311,-0.1047275,1.359457,0.2741773,-0.3249402,1.45973,0.198392,0.3970116,1.655722,0.06411409,-0.03474334,1.31825,0.33426,-0.3818138,1.491667,0.1878428,-0.06614081,1.639177,0.1812729,-0.3892787,1.619781,0.02717464,0.1216235,1.621072,0.0950069,-0.3777465,1.587885,-0.0650565,-0.08502351,1.609851,0.4176274,-0.1045924,1.613479,NA,NA,Unknown,Unknown,
0.1245117,-0.7451172,0.4868164,0.5629883,0.6083984,0.2944336,-6,-2,1,-6,-1,5,36,7,-12,-2,-1,-1,-3,0,-7,12,-10.3125,-10.3125,-10.3125,19.125,19.125,19.125,3.420834,4.762486,2.583484,6.820793,3.78704,0.3307047,0.09644286,-0.1265141,1.356777,0.280012,-0.3331174,1.465448,0.1984081,0.3970686,1.656345,0.07096116,-0.0550729,1.320368,0.3380819,-0.3364501,1.432015,0.1876619,-0.06628548,1.639406,0.1805909,-0.389761,1.62004,0.02625586,0.1217787,1.621712,0.09410045,-0.3780674,1.588084,-0.0645664,-0.0855004,1.610145,0.4177894,-0.1057129,1.614392,NA,NA,Unknown,Unknown,
0.2265625,-0.7631836,0.4848633,0.637207,0.6557617,0.2636719,-5,-1,3,-1,-4,-8,-5,-8,-7,-2,-2,3,1,7,10,-6,-18.1875,-18.1875,-18.1875,-4.5,-4.5,-4.5,3.395442,4.649819,2.589435,6.848587,3.60868,0.3309931,0.09427731,-0.1685172,1.3577,0.3137958,-0.3670861,1.446553,0.1984281,0.3970044,1.656606,0.07966415,-0.09532803,1.3178,0.3443556,-0.3944446,1.440428,0.1874523,-0.06645709,1.63957,0.180105,-0.390253,1.620124,0.0253925,0.1217058,1.622228,0.0933634,-0.3784989,1.588213,-0.06370813,-0.08628489,1.611444,0.4170932,-0.1132522,1.612948,NA,NA,Unknown,Unknown,
