ALX,ALY,ALZ,ARX,ARY,ARZ,EMG0L,EMG1L,EMG2L,EMG3L,EMG4L,EMG5L,EMG6L,EMG7L,EMG0R,EMG1R,EMG2R,EMG3R,EMG4R,EMG5R,EMG6R,EMG7R,GLX,GLY,GLZ,GRX,GRY,GRZ,ORL,OPL,OYL,ORR,OPR,OYR,LHNX,LHNY,LHNZ,RHNX,RHNY,RHNZ,HX,HY,HZ,LTX,LTY,LTZ,RTX,RTY,RTZ,SpineMidX,SpineMidY,SpineMidZ,SpineBaseX,SpineBaseY,SpineBaseZ,ShoulderLeftX,ShoulderLeftY,ShoulderLeftZ,ShoulderRightX,ShoulderRightY,ShoulderRightZ,ElbowLeftX,ElbowLeftY,ElbowLeftZ,ElbowRightX,ElbowRightY,ElbowRightZ,Myo_Pose_left,Myo_Pose_Right,Kinect_pose_left,Kinect_pose_right
0.921875,-0.375,0.1347656,0.921875,0.296875,0.171875,-1,0,0,0,-2,-2,0,-1,-1,0,0,-1,-4,2,0,0,-0.125,-0.125,-0.125,0.8125,0.8125,0.8125,3.04493,3.141265,7.199136,6.705578,3.06471,4.040498,0.03458207,-0.430733,1.656518,0.3905969,-0.4314277,1.651261,0.2446314,0.3979049,1.77007,-0.01257866,-0.4408072,1.66357,0.4235122,-0.460288,1.640733,0.2293266,-0.0653522,1.76931,0.2215747,-0.3870191,1.749789,0.05364953,0.1242177,1.762556,0.1345194,-0.3792282,1.719531,0.02085325,-0.1347903,1.763384,0.4310721,-0.1395599,1.750498,NA,NA,NotTracked,NotTracked,
0.9243164,-0.3618164,0.1313477,0.9111328,0.2919922,0.1601563,-2,-1,0,-2,0,1,-1,-1,0,0,-2,-2,0,0,0,0,-0.3125,-0.3125,-0.3125,0,0,0,3.045025,3.1409,7.198902,6.706283,3.064885,4.040786,0.03507697,-0.4308058,1.655806,0.3905137,-0.43131,1.65113,0.2446344,0.3979777,1.770095,-0.01257105,-0.4436856,1.66284,0.4237242,-0.4479773,1.643913,0.2292753,-0.06525234,1.769329,0.2215254,-0.3869587,1.749797,0.05364222,0.1242861,1.762609,0.1344392,-0.3791528,1.719523,0.02079662,-0.1343914,1.763364,0.4310792,-0.1395711,1.750515,NA,NA,NotTracked,NotTracked,
0.9130859,-0.3701172,0.128418,0.9189453,0.3037109,0.1679688,1,-2,-2,0,-1,-2,0,0,-2,0,-2,0,0,-2,0,-4,-0.4375,-0.4375,-0.4375,1.5625,1.5625,1.5625,3.045039,3.141224,7.198884,6.706651,3.065296,4.041292,0.03476922,-0.4305146,1.657801,0.39053,-0.431658,1.652345,0.2446175,0.3980365,1.770268,-0.01250352,-0.4406035,1.663406,0.4261149,-0.4479187,1.64885,0.2292868,-0.06520138,1.769391,0.2214838,-0.3868656,1.749862,0.05362666,0.1243515,1.762671,0.1343814,-0.3790632,1.719594,0.02070995,-0.1338219,1.763327,0.4310997,-0.1395591,1.750531,NA,NA,NotTracked,NotTracked,
0.9179688,-0.3720703,0.1347656,0.9204102,0.3022461,0.1650391,0,1,0,0,0,-2,-1,-2,-1,0,-1,-4,0,-1,-1,0,0.1875,0.1875,0.1875,0.125,0.125,0.125,3.044917,3.140941,7.199154,6.706155,3.065389,4.041817,0.03468962,-0.4303541,1.656201,0.3902698,-0.431105,1.650629,0.2446526,0.3980186,1.770339,-0.01242471,-0.4406472,1.662448,0.423653,-0.4541088,1.643674,0.22931,-0.06514227,1.769384,0.2215462,-0.3868304,1.749829,0.05363196,0.1243704,1.762659,0.1344898,-0.3790063,1.719532,0.02077661,-0.1339827,1.763342,0.4310935,-0.1395444,1.750528,NA,NA,NotTracked,NotTracked,
0.9130859,-0.3710938,0.1254883,0.9165039,0.2973633,0.1674805,-1,-3,-3,-1,0,1,1,-1,-1,-2,-2,-2,-3,-1,-2,-3,-0.25,-0.25,-0.25,0,0,0,3.044917,3.140941,7.199154,6.705592,3.065814,4.042309,0.03475367,-0.4277846,1.657988,0.3903995,-0.4319959,1.651654,0.2447208,0.3981559,1.770701,-0.01269028,-0.4406802,1.663245,0.4230463,-0.449409,1.643474,0.2293224,-0.06510882,1.769465,0.2215452,-0.3868172,1.74986,0.05357589,0.1243743,1.762862,0.1345191,-0.3790014,1.71955,0.02067903,-0.1340012,1.763411,0.431114,-0.1394429,1.750635,NA,NA,NotTracked,NotTracked,
0.9160156,-0.3745117,0.1318359,0.9277344,0.3027344,0.1757813,-2,0,-3,-1,-2,-2,-1,-1,0,-7,-3,0,1,-1,0,-2,0,0,0,1.1875,1.1875,1.1875,3.044718,3.141035,7.199215,6.703107,3.067436,4.046976,0.03464431,-0.4305779,1.656902,0.3902739,-0.4314941,1.650895,0.2447554,0.3982274,1.77092,-0.01054894,-0.4312044,1.66092,0.4246818,-0.4530438,1.64429,0.2293207,-0.06508188,1.769562,0.2216071,-0.3867967,1.749929,0.05355628,0.1244408,1.762929,0.1345748,-0.3789917,1.719607,0.02080417,-0.1342799,1.763423,0.4311372,-0.139371,1.750648,NA,NA,NotTracked,NotTracked,
0.9169922,-0.3720703,0.1323242,0.9506836,0.2993164,0.1499023,-2,-2,0,0,0,-1,-1,-1,-1,-5,-2,-1,-2,-1,1,2,0.25,0.25,0.25,-9.75,-9.75,-9.75,3.04525,3.141437,7.198823,6.691625,3.074364,4.053144,0.03480812,-0.4300146,1.656951,0.3899006,-0.4404509,1.648963,0.2447505,0.3982379,1.770965,-0.01237819,-0.4386884,1.663018,0.4283195,-0.4538204,1.648863,0.2293646,-0.06507204,1.769587,0.2216085,-0.3867942,1.749918,0.05357613,0.1244349,1.76293,0.1345712,-0.3789904,1.7196,0.02067476,-0.1341826,1.763405,0.4311434,-0.1393785,1.750658,NA,NA,NotTracked,NotTracked,
0.9189453,-0.3691406,0.1303711,0.9438477,0.3500977,0.1743164,1,-1,0,-1,-1,0,-1,-1,23,21,1,-2,-3,5,9,6,0.0625,0.0625,0.0625,-20.625,-20.625,-20.625,3.04525,3.141437,7.198823,6.658538,3.120759,4.059748,0.03472333,-0.4301175,1.656283,0.3904697,-0.4508,1.641439,0.2447934,0.3983681,1.771127,-0.01198009,-0.4377627,1.66137,0.4270879,-0.4570831,1.633105,0.229343,-0.06498811,1.76962,0.2216112,-0.3867375,1.749929,0.0535834,0.1244981,1.762987,0.1345591,-0.3789155,1.719589,0.02067684,-0.1340298,1.763439,0.4311015,-0.1391251,1.75092,NA,NA,NotTracked,NotTracked,
0.9145508,-0.3647461,0.1235352,0.9804688,0.3979492,0.1875,-1,-2,-1,-1,0,-1,-2,-1,17,-10,-11,-2,-3,-27,-8,2,0.5,0.5,0.5,2.125,2.125,2.125,3.046114,3.14224,7.200496,6.610754,3.191934,4.089841,0.03493636,-0.4303668,1.657488,0.3885339,-0.4463823,1.624401,0.2447451,0.398327,1.771363,-0.01176675,-0.4372825,1.660745,0.4279494,-0.4532853,1.608708,0.2293971,-0.06495961,1.769689,0.2216758,-0.3867285,1.749938,0.05357986,0.1245966,1.763152,0.1346156,-0.3788988,1.71955,0.02056751,-0.1339433,1.763543,0.4321811,-0.1396163,1.75167,NA,NA,NotTracked,NotTracked,
0.9233398,-0.3696289,0.1411133,0.9487305,0.5097656,0.3603516,-1,-2,0,-1,-2,-2,-1,-1,-26,22,20,2,4,23,31,5,-0.5,-0.5,-0.5,-37,-37,-37,3.046114,3.14224,7.200496,6.558836,3.346157,4.1152,0.03469361,-0.4310933,1.656984,0.3770282,-0.4169681,1.602615,0.2447394,0.3983348,1.771451,-0.01067653,-0.4276423,1.659571,0.4238611,-0.4422762,1.574364,0.2292342,-0.06495257,1.769757,0.2212514,-0.3867636,1.749904,0.05353789,0.1245871,1.763234,0.1341126,-0.3788171,1.719424,0.02044749,-0.1338245,1.763649,0.4347017,-0.1386881,1.753364,NA,NA,NotTracked,NotTracked,
0.9077148,-0.3745117,0.1313477,0.8017578,0.5610352,0.4912109,0,0,-2,-2,-2,-1,-2,-1,-10,-4,-4,-5,-5,-5,1,-2,-0.125,-0.125,-0.125,29.6875,29.6875,29.6875,3.045895,3.141392,7.200147,6.521972,3.577005,4.152631,0.0344821,-0.430512,1.656966,0.3647695,-0.3615214,1.568869,0.2447466,0.3982778,1.771565,-0.01194711,-0.4366796,1.662097,0.3666277,-0.3474486,1.507358,0.2284329,-0.0647949,1.769817,0.2190279,-0.3864766,1.749768,0.05350272,0.1244483,1.763339,0.1315673,-0.3782263,1.719136,0.02041433,-0.1338752,1.763727,0.4388667,-0.1349877,1.755867,NA,NA,NotTracked,NotTracked,
0.9125977,-0.3735352,0.1416016,0.5244141,0.6860352,0.4667969,-2,-1,-1,-1,-1,-3,-2,0,26,-3,-5,2,-3,6,-2,1,-6.8125,-6.8125,-6.8125,9.0625,9.0625,9.0625,3.042686,3.13857,7.19726,6.549901,3.945653,4.190225,0.03444262,-0.4305358,1.656931,0.3322569,-0.3273951,1.585133,0.2447844,0.3982444,1.771553,-0.01255996,-0.4365892,1.663022,0.3958436,-0.2771825,1.571143,0.2278696,-0.06474593,1.769628,0.2171342,-0.3861444,1.749462,0.0535232,0.1244769,1.763325,0.1296914,-0.3777529,1.718796,0.02030324,-0.1339072,1.763723,0.4431549,-0.1237268,1.757432,NA,NA,NotTracked,Unknown,
0.9291992,-0.3618164,0.1308594,0.4008789,0.6455078,0.4682617,0,1,0,-3,-1,-1,0,-1,-26,-1,-1,1,1,5,14,-2,-0.5,-0.5,-0.5,12.6875,12.6875,12.6875,3.042535,3.138439,7.1932,6.556558,4.192847,4.207219,0.03528592,-0.4306408,1.656938,0.3274456,-0.238459,1.490711,0.2449628,0.3982632,1.771609,-0.01191277,-0.4374706,1.662055,0.3589501,-0.2482511,1.464167,0.2277159,-0.06469162,1.769604,0.2166242,-0.3859193,1.749435,0.05360006,0.1244363,1.763323,0.1292782,-0.3775725,1.718792,0.02059509,-0.1340053,1.763667,0.4442185,-0.1147302,1.755535,NA,NA,NotTracked,Unknown,
0.9262695,-0.3574219,0.1245117,0.3579102,0.6464844,0.4174805,0,-1,-3,-2,0,-2,-1,1,8,-4,-5,-3,5,8,5,0,2.625,2.625,2.625,10.375,10.375,10.375,3.042035,3.141247,7.193318,6.567982,4.362985,4.229245,0.03516919,-0.4307318,1.657354,0.3151681,-0.1989334,1.479827,0.24502,0.3982534,1.77165,-0.0121832,-0.4446585,1.660093,0.3448006,-0.2138066,1.453243,0.2276923,-0.0646776,1.76964,0.2165069,-0.3858149,1.749492,0.05380147,0.124424,1.76338,0.1292071,-0.3775128,1.718975,0.02066001,-0.1339198,1.763674,0.4439105,-0.1051617,1.752291,NA,NA,NotTracked,Unknown,
0.9311523,-0.3530273,0.1166992,0.3413086,0.7255859,0.5332031,-1,-1,-2,-2,-2,-1,1,-2,-17,-1,1,8,-7,4,-69,-33,5.6875,5.6875,5.6875,23.9375,23.9375,23.9375,3.042426,3.140492,7.200792,6.602611,4.471119,4.272108,0.03560069,-0.430388,1.657636,0.3072122,-0.1830972,1.477042,0.2451408,0.3982092,1.771719,-0.0122738,-0.4423791,1.661713,0.3462838,-0.2019293,1.479369,0.2276329,-0.06465967,1.769709,0.2164598,-0.3857511,1.74957,0.05394533,0.1244218,1.763472,0.1291984,-0.3774737,1.719141,0.0206322,-0.1339149,1.763644,0.443882,-0.1033525,1.748584,NA,NA,NotTracked,Unknown,
0.9228516,-0.3901367,0.128418,0.2602539,0.8862305,0.5537109,-1,-2,2,0,-2,-1,-1,-3,6,5,7,2,-46,-13,15,8,2.25,2.25,2.25,43.5625,43.5625,43.5625,3.037046,3.138734,7.214015,6.66171,4.522958,4.298134,0.03565368,-0.4310646,1.658548,0.2928188,-0.1919428,1.465007,0.2454566,0.3979406,1.772304,-0.01138907,-0.4372454,1.662476,0.3296972,-0.1942045,1.459673,0.2276453,-0.06468629,1.76976,0.2164419,-0.3857387,1.749631,0.05421337,0.1241836,1.763725,0.1292261,-0.3775015,1.719284,0.02111667,-0.133771,1.764045,0.4922617,-0.1212399,1.724138,NA,NA,NotTracked,Closed,
0.9033203,-0.3813477,0.1376953,0.2177734,0.7329102,0.3027344,-2,-3,1,-2,0,-2,-1,-1,-13,7,15,-11,-4,55,-12,-21,1.0625,1.0625,1.0625,-30.625,-30.625,-30.625,3.033751,3.140412,7.220436,6.676679,4.555894,4.269759,0.03507155,-0.4308343,1.658181,0.294266,-0.2205912,1.469877,0.2454685,0.3978144,1.772405,-0.0117796,-0.4395171,1.661258,0.322855,-0.2202011,1.437267,0.2275632,-0.06473081,1.769793,0.2162926,-0.385769,1.749598,0.05416821,0.123967,1.763964,0.1291642,-0.3775254,1.719327,0.02113124,-0.1348484,1.76411,0.4858083,-0.1148092,1.721663,NA,NA,NotTracked,Unknown,
0.9208984,-0.3813477,0.1313477,0.4101563,1.053223,0.4667969,-2,-1,-1,-1,-1,0,-1,-3,11,5,3,-16,-35,-8,55,17,2.75,2.75,2.75,40.9375,40.9375,40.9375,3.034912,3.14267,7.221981,6.698863,4.461182,4.252843,0.03470134,-0.4304441,1.65759,0.2937207,-0.2383599,1.468652,0.2455224,0.3977724,1.772469,-0.01290923,-0.438193,1.6652,0.3231711,-0.2375713,1.435083,0.2272868,-0.0647935,1.769803,0.2158368,-0.3858268,1.749481,0.05411033,0.1238445,1.764142,0.1288835,-0.3775353,1.719322,0.02126613,-0.1348754,1.764206,0.4373709,-0.1067288,1.729623,NA,NA,NotTracked,Unknown,
0.9189453,-0.3608398,0.1113281,0.3071289,0.7099609,0.4975586,0,-2,-2,-2,-1,0,-1,-1,-3,-1,0,-3,2,9,-6,7,2.875,2.875,2.875,-10.3125,-10.3125,-10.3125,3.03604,3.144386,7.2275,6.677696,4.444967,4.263796,0.03441533,-0.4309545,1.65648,0.2948929,-0.2430453,1.474956,0.2455648,0.3978036,1.772466,-0.01200674,-0.4381662,1.662427,0.3294601,-0.2446381,1.447438,0.2270754,-0.06478459,1.769674,0.2153751,-0.3857866,1.749188,0.05411248,0.123811,1.764175,0.1285421,-0.377418,1.719115,0.02131536,-0.1352344,1.764168,0.4373877,-0.1067068,1.729473,NA,NA,NotTracked,Unknown,
0.9042969,-0.3818359,0.1455078,0.2993164,0.8876953,0.4560547,0,0,-1,-2,-1,-1,-1,0,8,4,0,-4,-18,-3,-23,-9,-0.4375,-0.4375,-0.4375,-4.8125,-4.8125,-4.8125,3.033762,3.141962,7.22804,6.691911,4.435798,4.259529,0.03429254,-0.4306147,1.657479,0.2951385,-0.2478146,1.480178,0.2455731,0.3977466,1.77243,-0.01549404,-0.4475705,1.666125,0.3283525,-0.2482874,1.452003,0.2268818,-0.06492247,1.76961,0.2149935,-0.3859742,1.749101,0.05404231,0.1236944,1.764194,0.1282751,-0.3775118,1.71911,0.02109118,-0.1363767,1.764223,0.4373932,-0.1067433,1.729772,NA,NA,NotTracked,Unknown,
0.9272461,-0.3886719,0.1484375,0.3427734,0.8637695,0.4697266,-1,-1,-2,-1,-2,0,0,2,2,7,-1,-2,3,-1,7,-6,-3.9375,-3.9375,-3.9375,3.125,3.125,3.125,3.035044,3.141328,7.221543,6.691343,4.430191,4.246861,0.03435472,-0.4315088,1.656919,0.2966132,-0.2493521,1.479801,0.2455499,0.3976132,1.772399,-0.01203457,-0.4402822,1.65657,0.328298,-0.2491737,1.448985,0.2266477,-0.06519463,1.769561,0.2145844,-0.3862773,1.749012,0.05407099,0.1234513,1.764128,0.1279714,-0.3777032,1.719096,0.02101343,-0.1363591,1.764166,0.4371627,-0.1069821,1.729947,NA,NA,NotTracked,Unknown,
0.9145508,-0.3618164,0.1337891,0.3256836,0.840332,0.4506836,-1,-1,-1,-2,-1,-2,2,-1,1,-2,6,3,-1,3,-2,-8,-2.5,-2.5,-2.5,-3.0625,-3.0625,-3.0625,3.04431,3.14351,7.206686,6.694353,4.433311,4.239807,0.03435983,-0.4311331,1.655408,0.2979892,-0.2487435,1.478484,0.2454283,0.3974532,1.772342,-0.0129811,-0.4391997,1.662901,0.3290385,-0.2479613,1.449219,0.2265823,-0.06536394,1.769413,0.2144925,-0.3864019,1.748857,0.05404027,0.1232134,1.764015,0.1278989,-0.3777898,1.719011,0.02096213,-0.1358833,1.764164,0.4371375,-0.1070913,1.730187,NA,NA,NotTracked,Unknown,
0.9228516,-0.3554688,0.1264648,0.3466797,0.840332,0.4487305,-1,-1,-1,-1,0,-2,-2,-2,19,13,1,0,-1,-3,6,8,-1.8125,-1.8125,-1.8125,1.75,1.75,1.75,3.049099,3.143468,7.196977,6.69669,4.434252,4.235733,0.03464327,-0.430791,1.654918,0.2982031,-0.2465523,1.475919,0.2452642,0.3973977,1.772251,-0.01147876,-0.4371476,1.658878,0.2825609,-0.2276476,1.428951,0.2264118,-0.06538281,1.769277,0.2143165,-0.3864315,1.748652,0.05400233,0.1231147,1.763887,0.1277378,-0.3778189,1.718873,0.02093799,-0.1350978,1.763715,0.4371453,-0.1071181,1.730382,NA,NA,NotTracked,Unknown,
0.921875,-0.3486328,0.1201172,0.4208984,0.8544922,0.4472656,0,-2,-1,1,0,-2,-1,-1,81,-18,-10,-4,0,-1,-22,-12,1.4375,1.4375,1.4375,-6,-6,-6,3.053665,3.141374,7.193637,6.693047,4.44903,4.231284,0.03466745,-0.431428,1.655516,0.2979675,-0.2404754,1.471294,0.2451447,0.3972854,1.77207,-0.01243954,-0.4402437,1.661013,0.3282167,-0.2427712,1.440984,0.2261984,-0.06539299,1.769149,0.2141606,-0.3864585,1.748493,0.05389987,0.122894,1.763643,0.1276034,-0.3778438,1.718718,0.02101625,-0.1343508,1.763878,0.4371129,-0.1071426,1.73059,NA,NA,NotTracked,Unknown,
0.9267578,-0.3793945,0.1357422,0.2333984,0.9394531,0.503418,-1,0,-2,-1,0,-1,-1,0,-8,13,-12,-7,-14,-11,2,23,3,3,3,15.4375,15.4375,15.4375,3.054096,3.139349,7.19811,6.710847,4.489043,4.245067,0.0347634,-0.4313092,1.655926,0.293517,-0.2170224,1.452071,0.2448557,0.3972063,1.771934,-0.01264439,-0.4425985,1.661923,0.3273964,-0.2262337,1.426853,0.2260567,-0.06549545,1.769021,0.2141304,-0.3865377,1.748422,0.05379846,0.1225592,1.763509,0.1275833,-0.3779965,1.718626,0.02104879,-0.1345708,1.763821,0.4370683,-0.1071652,1.730979,NA,NA,NotTracked,Unknown,
0.9213867,-0.3574219,0.1303711,0.09814453,0.9008789,0.4130859,-1,0,-3,-3,-1,-2,-1,-3,74,-23,-17,-5,-6,-9,-10,13,4.4375,4.4375,4.4375,-53.5,-53.5,-53.5,3.058436,3.140115,7.203341,6.701816,4.658735,4.211424,0.03418655,-0.4310136,1.655222,0.29473,-0.1741836,1.434393,0.2446091,0.397017,1.771697,-0.01245886,-0.4385413,1.661067,0.3305808,-0.185882,1.404479,0.2259619,-0.06559036,1.768971,0.214185,-0.3866132,1.748376,0.05375532,0.1222157,1.763352,0.127616,-0.3781293,1.718555,0.02130253,-0.1351064,1.763746,0.4758295,-0.1231828,1.70278,NA,NA,NotTracked,Unknown,
0.909668,-0.394043,0.137207,0.1357422,1.056152,0.4863281,0,-2,0,0,-1,-3,-2,-2,-16,26,6,1,-3,4,11,2,-0.5625,-0.5625,-0.5625,27.5625,27.5625,27.5625,3.054235,3.140374,7.208103,6.721032,4.794394,4.183235,0.03378008,-0.4283243,1.657644,0.3020278,-0.12782,1.442556,0.2444935,0.3970051,1.771721,-0.01414846,-0.4397412,1.668292,0.3365667,-0.1299498,1.3966,0.2259565,-0.06560341,1.768969,0.2142321,-0.386599,1.748414,0.05372868,0.1222164,1.763374,0.1276425,-0.3781565,1.718586,0.02071734,-0.1351329,1.763808,0.449154,-0.1053299,1.725283,NA,NA,NotTracked,Unknown,
0.9179688,-0.3798828,0.1381836,0.09912109,0.8061523,0.4941406,-2,0,1,-1,-2,0,-3,-1,38,-4,10,2,-3,-2,3,20,-3.0625,-3.0625,-3.0625,-0.625,-0.625,-0.625,3.050886,3.142019,7.209089,6.713507,4.937606,4.160375,0.03402426,-0.4281787,1.656835,0.3019257,-0.06879148,1.44938,0.2443504,0.3969991,1.771656,-0.01324169,-0.4378026,1.663259,0.3265907,-0.05171515,1.405722,0.2258829,-0.06558353,1.76894,0.2141982,-0.3865636,1.748411,0.0536772,0.1221265,1.763316,0.1276073,-0.3781683,1.718657,0.02035121,-0.1363398,1.76349,0.4466324,-0.1053049,1.705268,NA,NA,NotTracked,Unknown,
0.9125977,-0.3588867,0.1357422,0.0078125,0.8056641,0.5068359,-1,-2,0,-2,-3,0,0,-1,-9,4,3,-5,14,1,-2,1,-1.3125,-1.3125,-1.3125,-4.4375,-4.4375,-4.4375,3.055108,3.144145,7.201244,6.712943,5.052485,4.153149,0.0339433,-0.4281912,1.656675,0.3187952,-0.05274352,1.474081,0.2441681,0.3970055,1.771687,-0.01270744,-0.4371358,1.661744,0.3455133,-0.03102777,1.426593,0.2257946,-0.06557862,1.768927,0.2141935,-0.3865601,1.748407,0.05366126,0.1220547,1.763322,0.1276357,-0.3782626,1.718831,0.01984853,-0.1359716,1.763433,0.4393133,-0.1082649,1.674541,NA,NA,NotTracked,Open,
0.9165039,-0.3676758,0.1303711,-0.1572266,0.7592773,0.4570313,-3,-2,-2,-2,-1,-2,-4,-1,-80,7,22,15,-28,18,-12,-32,-1.875,-1.875,-1.875,4.75,4.75,4.75,3.055965,3.144309,7.195331,6.708004,5.133899,4.146488,0.03467218,-0.4309373,1.656162,0.3218182,-0.0377006,1.480074,0.2439876,0.3969152,1.771832,-0.01246153,-0.4385056,1.660099,0.3520367,-0.01351615,1.4361,0.2256903,-0.06553753,1.768979,0.2142907,-0.3864478,1.74843,0.05363658,0.12203,1.763334,0.1277815,-0.3782416,1.718938,0.01977926,-0.1360203,1.763378,0.4371698,-0.1135396,1.670701,NA,NA,NotTracked,Open,
0.9165039,-0.3647461,0.1308594,0.02050781,0.8583984,0.4477539,-3,-2,-1,-1,-2,-3,1,-1,-37,7,1,6,26,3,-9,-13,-1.6875,-1.6875,-1.6875,-0.125,-0.125,-0.125,3.058985,3.144963,7.190066,6.719366,5.098076,4.131442,0.03473149,-0.4310439,1.655474,0.3237493,-0.04138218,1.47056,0.2437125,0.3967654,1.772169,-0.0125609,-0.4422187,1.659093,0.3654988,-0.01351272,1.493667,0.2256307,-0.06555943,1.769025,0.2143688,-0.3863902,1.748434,0.05363612,0.1219208,1.763314,0.1278823,-0.3782912,1.719045,0.01980818,-0.1362256,1.763267,0.4339178,-0.119226,1.664271,NA,NA,NotTracked,Open,
0.9399414,-0.3876953,0.1420898,0.1103516,1.030273,0.5976563,-1,-2,0,-1,-3,-1,-5,-2,28,7,-1,-9,-18,-3,5,10,-4.625,-4.625,-4.625,6.5,6.5,6.5,3.055278,3.145657,7.185351,6.718843,5.038961,4.114022,0.03510215,-0.4306475,1.655519,0.3250662,-0.05049201,1.46569,0.2434034,0.3967036,1.772592,-0.01269817,-0.4394035,1.66165,0.3638631,-0.02806892,1.41815,0.2256252,-0.06556325,1.769047,0.2144165,-0.3863402,1.748388,0.05362245,0.1218249,1.763354,0.1278993,-0.3783038,1.719118,0.02019029,-0.1369627,1.762795,0.4290794,-0.1303548,1.649521,NA,NA,NotTracked,Open,
0.9155273,-0.3359375,0.1166992,-0.06689453,0.8466797,0.4799805,0,2,-2,-1,-2,-1,-5,-5,-23,3,12,4,-2,7,-4,7,1.5625,1.5625,1.5625,-2.1875,-2.1875,-2.1875,3.060345,3.148833,7.187502,6.698761,5.035995,4.124141,0.03520134,-0.4301645,1.655301,0.3240051,-0.05326971,1.467675,0.2432862,0.3967021,1.772638,-0.01218133,-0.4506654,1.657016,0.3615128,-0.03475968,1.414611,0.2256175,-0.06552635,1.769081,0.2144709,-0.3862693,1.74839,0.05362831,0.1218325,1.763361,0.1279465,-0.378277,1.719169,0.01994423,-0.1363518,1.762912,0.4296905,-0.131494,1.648949,NA,NA,NotTracked,Open,
0.8994141,-0.3916016,0.1435547,-0.04345703,0.8754883,0.487793,-3,0,-1,2,0,-2,0,-2,-22,-11,-3,0,-12,-16,-11,-14,0,0,0,-6.0625,-6.0625,-6.0625,3.052207,3.144989,7.192761,6.69193,5.031973,4.11933,0.03486148,-0.4308322,1.656565,0.3235541,-0.05729913,1.466866,0.243277,0.3966756,1.772626,-0.01228702,-0.4419034,1.661064,0.3588334,-0.05453309,1.428737,0.2255582,-0.06554165,1.769107,0.2144859,-0.3862595,1.74838,0.05364279,0.1218469,1.763431,0.1279799,-0.3783136,1.719212,0.01986558,-0.1363358,1.762936,0.4296652,-0.1323016,1.648873,NA,NA,NotTracked,Open,
0.9399414,-0.3867188,0.1342773,-0.02734375,0.8808594,0.4780273,0,-1,-1,-1,0,-2,0,-2,-8,6,3,-18,-5,4,-3,-1,-3.6875,-3.6875,-3.6875,-6.125,-6.125,-6.125,3.040266,3.140449,7.204494,6.686732,5.034937,4.111319,0.03417252,-0.4310698,1.656722,0.324477,-0.06051318,1.467659,0.2433107,0.3965745,1.772747,-0.01295922,-0.4371697,1.665512,0.3613538,-0.05908865,1.4395,0.2256058,-0.06565515,1.769121,0.2144952,-0.386315,1.748368,0.05369166,0.121828,1.763455,0.1280257,-0.3784462,1.719271,0.01990054,-0.1361889,1.763008,0.4293328,-0.1339183,1.649811,NA,NA,NotTracked,Open,
0.9018555,-0.3647461,0.1367188,-0.04199219,0.8725586,0.4770508,0,-3,-2,0,-2,-1,1,-1,-1,-1,-4,0,11,4,8,11,0.3125,0.3125,0.3125,1.125,1.125,1.125,3.045218,3.146238,7.199216,6.68481,5.031473,4.110308,0.03430539,-0.4309185,1.655714,0.324467,-0.06174706,1.4677,0.2433807,0.3964412,1.772822,-0.01152827,-0.4346901,1.657977,0.3617471,-0.05954762,1.43927,0.2256478,-0.0657573,1.769161,0.2145022,-0.3863574,1.748384,0.05366958,0.1218179,1.763523,0.1281117,-0.3785536,1.719386,0.01984534,-0.1359277,1.763175,0.431096,-0.1358023,1.65316,NA,NA,NotTracked,Open,
0.9091797,-0.3686523,0.1225586,-0.01123047,0.8374023,0.4765625,-1,-2,-2,-2,-1,0,1,1,38,-4,-3,-4,-5,-6,-2,5,-0.875,-0.875,-0.875,-2.25,-2.25,-2.25,3.044716,3.146878,7.197189,6.681024,5.00204,4.105943,0.03477778,-0.4303226,1.655882,0.3209094,-0.04858482,1.455697,0.2435917,0.3964446,1.772932,-0.01206003,-0.439719,1.659913,0.3516752,-0.0353953,1.411429,0.2256512,-0.0657449,1.769194,0.2145071,-0.386342,1.748397,0.05368345,0.1218526,1.763576,0.1280967,-0.3785525,1.719458,0.01974127,-0.1357229,1.763177,0.4386405,-0.1222519,1.664359,NA,NA,NotTracked,Unknown,
0.9208984,-0.3754883,0.125,-0.046875,0.7802734,0.4223633,-1,-1,-1,-3,-3,-2,-1,-2,23,3,0,-2,3,2,7,15,-0.8125,-0.8125,-0.8125,-6.6875,-6.6875,-6.6875,3.042735,3.145879,7.198453,6.678108,4.942197,4.095335,0.03524892,-0.4301746,1.656151,0.3213923,-0.06086506,1.449273,0.2437359,0.3964504,1.773037,-0.01191516,-0.4393013,1.65999,0.3346258,-0.03161079,1.399143,0.2256743,-0.06572298,1.769196,0.2144873,-0.3863105,1.748404,0.0537356,0.1219552,1.763539,0.1280475,-0.3785227,1.719521,0.01970481,-0.1355342,1.763093,0.4429908,-0.1140227,1.676627,NA,NA,NotTracked,Unknown,
0.9135742,-0.375,0.1328125,0.08886719,0.840332,0.4228516,-1,-1,-2,0,0,0,0,-1,-9,12,7,2,3,-10,0,-1,-1.625,-1.625,-1.625,-2.1875,-2.1875,-2.1875,3.044077,3.146831,7.198252,6.688514,4.812488,4.070499,0.03519537,-0.4309735,1.656501,0.3309962,-0.1161239,1.449155,0.2438744,0.3964581,1.773332,-0.01224871,-0.4400028,1.661846,0.3531611,-0.1053858,1.386471,0.2256576,-0.06568876,1.769302,0.2144687,-0.3862887,1.748465,0.05374804,0.1219296,1.763636,0.1280096,-0.3785151,1.719553,0.01990806,-0.1357184,1.763207,0.4496175,-0.1023335,1.711533,NA,NA,NotTracked,Unknown,
0.921875,-0.3754883,0.1298828,0.3862305,0.8725586,0.4013672,0,-2,-1,0,0,0,1,-1,4,-2,-2,-3,-2,6,-2,8,1.9375,1.9375,1.9375,-8,-8,-8,3.045075,3.148306,7.196854,6.703747,4.570285,4.026954,0.03500672,-0.4307534,1.655835,0.3321977,-0.1678053,1.410249,0.2438875,0.3963685,1.773711,-0.01236234,-0.4408453,1.661886,0.3630228,-0.1774724,1.373211,0.2256421,-0.06571573,1.769346,0.2145123,-0.3863629,1.748468,0.05375592,0.1219087,1.763647,0.1280145,-0.3785914,1.719519,0.01985431,-0.1360809,1.763205,0.4609127,-0.09997714,1.710639,NA,NA,NotTracked,Unknown,
0.9257813,-0.3662109,0.1303711,0.2646484,0.5722656,0.5126953,0,0,0,0,0,-1,0,0,-9,-3,-4,-4,-1,-6,2,-1,3,3,3,-46.875,-46.875,-46.875,3.048213,3.149646,7.196559,6.633075,4.380162,4.023919,0.03484583,-0.4303691,1.654598,0.3400753,-0.226118,1.421883,0.2437752,0.3964157,1.773969,-0.01206199,-0.4390919,1.660575,0.3686784,-0.232365,1.387429,0.2255976,-0.06572051,1.769313,0.2144755,-0.386472,1.748297,0.05374757,0.1219074,1.763655,0.1279403,-0.3787408,1.719205,0.0197929,-0.1362045,1.762978,0.4671269,-0.1102693,1.704013,NA,NA,NotTracked,Unknown,
0.9038086,-0.3652344,0.1367188,0.4692383,0.7456055,0.4609375,-1,-1,-2,-1,-1,-3,-2,-2,4,-2,-1,-2,-3,-9,0,-3,2.125,2.125,2.125,23.1875,23.1875,23.1875,3.051489,3.146244,7.201666,6.677889,4.147575,3.984008,0.03449782,-0.4306259,1.655988,0.347774,-0.2843941,1.445795,0.2436931,0.3966039,1.774119,-0.01210848,-0.4440454,1.659056,0.372017,-0.2771382,1.41824,0.2253766,-0.06559021,1.769244,0.2141219,-0.3864116,1.748225,0.05370994,0.1219337,1.763678,0.1273786,-0.3785118,1.719036,0.01997484,-0.1364565,1.763034,0.4475157,-0.111046,1.726083,NA,NA,NotTracked,Unknown,
0.9116211,-0.3950195,0.1381836,0.7143555,0.5532227,0.4677734,0,2,0,-3,-2,-1,-1,-1,4,4,0,-2,-6,8,1,4,1.875,1.875,1.875,4.875,4.875,4.875,3.048393,3.142384,7.207653,6.658844,3.811945,3.967871,0.03445695,-0.4307606,1.657543,0.3608936,-0.3451949,1.480952,0.2435974,0.3967532,1.774241,-0.01340992,-0.4357819,1.668326,0.3818982,-0.3498203,1.447488,0.2252948,-0.06559257,1.769222,0.2139777,-0.3865365,1.748265,0.0536448,0.121893,1.763694,0.127187,-0.3785673,1.719049,0.02009897,-0.136915,1.76336,0.4451504,-0.1134287,1.728571,NA,NA,NotTracked,Unknown,
0.9228516,-0.3896484,0.1425781,0.9057617,0.5844727,0.3876953,-1,-4,-2,-2,0,-2,-1,-1,20,4,0,-1,-5,-13,-1,15,-1.625,-1.625,-1.625,31.0625,31.0625,31.0625,3.050107,3.143835,7.206249,6.710053,3.553864,3.959285,0.03444348,-0.4304468,1.657327,0.3725678,-0.4057852,1.520747,0.2433668,0.39695,1.774429,-0.01170077,-0.4353569,1.661192,0.388983,-0.396978,1.484563,0.2253864,-0.06562778,1.769236,0.2144395,-0.3869081,1.748311,0.0535637,0.1219121,1.763707,0.1276255,-0.3787806,1.718951,0.02010589,-0.1367998,1.763594,0.4418866,-0.1267399,1.728163,NA,NA,NotTracked,Unknown,
0.9057617,-0.3671875,0.1386719,1.059082,0.2875977,0.3056641,1,-1,-1,0,-3,0,-5,-1,-6,-6,3,10,-22,28,-5,-6,-0.5625,-0.5625,-0.5625,5.125,5.125,5.125,3.056071,3.147359,7.197238,6.695225,3.333208,3.979121,0.0348012,-0.4306096,1.655317,0.3824508,-0.4426222,1.578445,0.2432997,0.3969724,1.774473,-0.0122541,-0.4395527,1.660322,0.4030235,-0.4421013,1.542271,0.225822,-0.06589316,1.768933,0.2160038,-0.3877787,1.747908,0.05347145,0.1218929,1.763547,0.1293483,-0.3795406,1.718186,0.02043084,-0.1374353,1.76362,0.4377807,-0.132963,1.729823,NA,NA,NotTracked,Unknown,
