ALX,ALY,ALZ,ARX,ARY,ARZ,EMG0L,EMG1L,EMG2L,EMG3L,EMG4L,EMG5L,EMG6L,EMG7L,EMG0R,EMG1R,EMG2R,EMG3R,EMG4R,EMG5R,EMG6R,EMG7R,GLX,GLY,GLZ,GRX,GRY,GRZ,ORL,OPL,OYL,ORR,OPR,OYR,LHNX,LHNY,LHNZ,RHNX,RHNY,RHNZ,HX,HY,HZ,LTX,LTY,LTZ,RTX,RTY,RTZ,SpineMidX,SpineMidY,SpineMidZ,SpineBaseX,SpineBaseY,SpineBaseZ,ShoulderLeftX,ShoulderLeftY,ShoulderLeftZ,ShoulderRightX,ShoulderRightY,ShoulderRightZ,ElbowLeftX,ElbowLeftY,ElbowLeftZ,ElbowRightX,ElbowRightY,ElbowRightZ,Myo_Pose_left,Myo_Pose_Right,Kinect_pose_left,Kinect_pose_right
0.1347656,-0.8500977,0.4824219,0.03759766,0.190918,0.2197266,-7,0,5,-4,10,-1,16,6,6,2,21,7,41,31,6,39,2.8125,2.8125,2.8125,3.8125,3.8125,3.8125,3.373292,4.755471,8.530893,6.822668,5.489907,3.642542,-0.04200821,-0.1020666,1.305307,0.1023904,0.05010039,1.294801,0.03000609,0.3691465,1.532148,-0.04115978,-0.1323757,1.303067,0.07839072,0.02388679,1.319125,0.02685595,-0.0662494,1.552003,0.02773947,-0.3730299,1.531485,-0.149885,0.1277091,1.54438,-0.05133251,-0.3637584,1.499358,-0.2589276,-0.1167479,1.481752,0.2764273,-0.08167476,1.440599,NA,NA,Unknown,Unknown,
0.09716797,-0.8232422,0.4589844,0.6416016,0.2905273,0.1118164,18,52,69,-1,8,-27,6,0,-23,-14,-54,-68,-104,-104,-26,-31,6.25,6.25,6.25,106.8125,106.8125,106.8125,3.378002,4.789574,8.519245,6.797776,4.795653,3.371507,-0.04759866,-0.09523983,1.311651,0.1097085,-0.05710687,1.216165,0.02960356,0.3683985,1.532283,-0.03092163,-0.139034,1.3984,0.07488264,-0.02558047,1.224571,0.02478979,-0.06559826,1.553375,0.02820722,-0.3715469,1.533096,-0.1476875,0.1279916,1.546034,-0.05068229,-0.3626513,1.500502,-0.2806785,-0.1122286,1.520868,0.2713947,-0.07578067,1.462244,NA,NA,NotTracked,NotTracked,
0.1152344,-0.9174805,0.4819336,1.65332,0.7895508,0.4462891,-3,-3,-22,-15,-10,-9,-31,-29,-52,15,-52,127,108,-75,-28,2,3.6875,3.6875,3.6875,14.5,14.5,14.5,3.376284,4.83744,8.549379,6.894168,4.155658,3.359241,-0.03945049,-0.0863316,1.308573,0.1352121,-0.2241701,1.22428,0.02878969,0.3673087,1.533444,-0.02954449,-0.1336103,1.39655,0.1151685,-0.2001768,1.196,0.02472697,-0.06605672,1.554479,0.02768746,-0.3718229,1.533804,-0.1471159,0.1278061,1.547898,-0.05094794,-0.3627963,1.501155,-0.2839337,-0.1166714,1.520658,0.3002788,-0.08210573,1.461456,NA,NA,Unknown,Closed,
0.199707,-0.9248047,0.4663086,1.25293,2.145996,0.9624023,-6,-35,-19,-11,-1,26,6,-10,70,32,-53,-62,-20,-37,12,12,-1.5,-1.5,-1.5,34,34,34,3.351336,4.837372,8.631838,6.768962,3.930603,3.742974,-0.04184651,-0.08371175,1.30173,0.1256872,-0.2809291,1.325082,0.02691421,0.3671766,1.533677,-0.03160305,-0.1281399,1.396,0.1053348,-0.2613313,1.287038,0.02427486,-0.06632614,1.55482,0.02619395,-0.3723465,1.534068,-0.1473695,0.1274811,1.551111,-0.05227087,-0.3628194,1.501709,-0.2550989,-0.1067308,1.480309,0.290628,-0.09868293,1.49856,NA,NA,Closed,Unknown,
0.04931641,-0.8510742,0.527832,-1.044434,1.106445,0.152832,-15,-3,-31,-4,-4,5,22,-9,-21,25,31,2,-49,-22,-26,-104,-16,-16,-16,-100.375,-100.375,-100.375,3.337069,4.812937,8.6706,6.395242,4.442135,4.002217,-0.04970905,-0.08767319,1.297867,0.08454575,-0.2071887,1.394503,0.02528399,0.3669054,1.533219,-0.0389645,-0.1181575,1.302824,0.07672372,-0.1540457,1.348441,0.0243009,-0.06639975,1.554804,0.02615347,-0.3724307,1.534007,-0.1470495,0.127442,1.552297,-0.05228055,-0.3628942,1.501756,-0.2564643,-0.1072016,1.47911,0.292397,-0.09815456,1.512926,NA,NA,Closed,Unknown,
0.09863281,-0.8759766,0.5991211,-0.4213867,0.6777344,-0.4677734,-1,-15,15,-3,10,16,17,17,-39,-25,-6,-15,-24,26,-4,-65,-3.5,-3.5,-3.5,152.125,152.125,152.125,3.331989,4.784166,8.660561,6.561431,5.109992,3.793289,-0.05888397,-0.09460438,1.301657,0.09396955,-0.03718554,1.381872,0.02450138,0.3663172,1.532408,-0.05436601,-0.1272489,1.3085,0.09431599,-0.004996882,1.332406,0.02435874,-0.0664199,1.554745,0.02607936,-0.3722675,1.534001,-0.1533682,0.1264058,1.54815,-0.05232637,-0.3628249,1.502013,-0.2980759,-0.1118791,1.542555,0.2924673,-0.09415183,1.513159,NA,NA,NotTracked,NotTracked,
0.07226563,-0.8320313,0.46875,0.578125,0.5131836,1.082031,5,-5,-13,-8,-11,25,-1,-23,26,-1,-5,-10,18,-35,-25,-52,8.6875,8.6875,8.6875,83.375,83.375,83.375,3.348143,4.79476,8.628891,6.736571,4.976384,3.690922,-0.05912537,-0.09197321,1.30472,0.109689,-0.01744476,1.317787,0.02445685,0.3657283,1.532481,-0.06025949,-0.1263842,1.319909,0.1069603,0.01344943,1.277222,0.02457369,-0.06638965,1.554941,0.02619018,-0.3719408,1.534073,-0.1502637,0.1273479,1.550666,-0.05220935,-0.3626167,1.502112,-0.2990631,-0.1082613,1.538571,0.2933966,-0.08624013,1.493238,NA,NA,NotTracked,NotTracked,
0.152832,-0.8588867,0.5009766,-0.04833984,0.9370117,0.6674805,-25,17,-14,-5,4,-4,-40,-6,-13,-1,-20,-14,-15,-2,-54,-87,-1.25,-1.25,-1.25,-26.3125,-26.3125,-26.3125,3.347495,4.834594,8.650526,6.707692,4.871712,3.672999,-0.05636379,-0.08449565,1.302699,0.1171113,-0.04422413,1.298825,0.02444814,0.3658214,1.532794,-0.03467043,-0.1117523,1.307,0.1101226,-0.01776643,1.256948,0.02476257,-0.06627905,1.555204,0.02642767,-0.3716971,1.534249,-0.1489135,0.1277938,1.552099,-0.05192046,-0.3624141,1.502368,-0.2706315,-0.1023811,1.465767,0.297558,-0.08243247,1.487437,NA,NA,NotTracked,NotTracked,
0.1181641,-0.8867188,0.5219727,-0.1572266,0.9326172,0.340332,1,5,-29,-11,0,-41,22,-1,22,-6,7,10,-51,-13,19,-6,6.6875,6.6875,6.6875,-0.1875,-0.1875,-0.1875,3.349939,4.837012,8.678318,6.689955,4.888395,3.638359,-0.05998734,-0.08321872,1.299941,0.1202598,-0.05069996,1.300396,0.02365135,0.368928,1.532515,-0.0534154,-0.1124543,1.298767,0.1135504,-0.01714858,1.272513,0.0232396,-0.06554762,1.554844,0.02644672,-0.3713374,1.5345,-0.1478367,0.1282052,1.553208,-0.05186371,-0.3620808,1.502824,-0.2682455,-0.1066755,1.496919,0.3052804,-0.08250969,1.486683,NA,NA,NotTracked,NotTracked,
0.05566406,-0.8759766,0.5048828,0.005859375,0.8837891,0.4882813,5,2,-19,-12,0,0,-1,18,-53,-7,7,-18,-64,-4,-9,-59,-6.8125,-6.8125,-6.8125,-3.4375,-3.4375,-3.4375,3.345175,4.840017,8.661214,6.687553,4.896199,3.637352,-0.0592387,-0.08366174,1.3016,0.1178167,-0.05653816,1.300039,0.02369441,0.3698457,1.534251,-0.06779114,-0.117765,1.305071,0.1123213,-0.02880399,1.2594,0.02348722,-0.06533053,1.555068,0.02641109,-0.3711608,1.534584,-0.1472237,0.1284686,1.553819,-0.05185867,-0.3619238,1.502977,-0.2680334,-0.1068701,1.498168,0.3294684,-0.1007587,1.480273,NA,NA,NotTracked,NotTracked,
0.1201172,-0.8564453,0.4672852,0.08203125,0.9414063,0.5107422,5,18,68,19,-11,-17,-13,-4,-12,-4,-6,-1,30,-30,-17,-14,-0.125,-0.125,-0.125,-3.9375,-3.9375,-3.9375,3.347761,4.842558,8.654026,6.697923,4.901088,3.627831,-0.05663843,-0.08202714,1.300688,0.1179787,-0.05713265,1.299022,0.02388377,0.3714387,1.537061,-0.05610536,-0.1156988,1.315937,0.1091107,-0.02179847,1.274007,0.02376752,-0.06501674,1.555399,0.02639127,-0.3709666,1.534657,-0.146799,0.1287444,1.554745,-0.05183652,-0.3617579,1.503111,-0.267183,-0.106063,1.483598,0.3315122,-0.103028,1.479973,NA,NA,NotTracked,NotTracked,
0.07373047,-0.8666992,0.5058594,-0.01757813,0.8813477,0.4970703,-8,1,-21,-9,0,23,8,-1,33,14,11,10,41,3,20,18,3.6875,3.6875,3.6875,3,3,3,3.350844,4.849176,8.667798,6.697999,4.905564,3.636158,-0.06021436,-0.08133814,1.301126,0.1178822,-0.05649421,1.301019,0.02414681,0.3728514,1.539012,-0.05567252,-0.114682,1.3152,0.1077909,-0.01914597,1.282189,0.02413722,-0.06450673,1.555739,0.0263868,-0.3705916,1.534768,-0.1466242,0.1288344,1.555091,-0.05178069,-0.3613935,1.503299,-0.298364,-0.1104885,1.538339,0.3334053,-0.1039844,1.480405,NA,NA,NotTracked,NotTracked,
0.08642578,-0.9003906,0.5151367,0.0009765625,0.8789063,0.4648438,3,1,-2,-8,-7,10,-13,-23,-18,-9,0,35,24,15,15,67,-0.5625,-0.5625,-0.5625,1.375,1.375,1.375,3.345882,4.850309,8.665427,6.701119,4.921909,3.630481,-0.05913673,-0.08081423,1.300408,0.1178086,-0.05599639,1.299115,0.02420563,0.3739474,1.540326,-0.07525817,-0.1197068,1.309,0.1088374,-0.02107014,1.274745,0.02429724,-0.06415658,1.555878,0.02633873,-0.3703774,1.534775,-0.1515124,0.1281321,1.552026,-0.0517856,-0.3612722,1.503364,-0.295989,-0.1207866,1.523705,0.3345686,-0.104737,1.480194,NA,NA,NotTracked,NotTracked,
0.08496094,-0.8505859,0.4882813,0.01855469,0.8764648,0.484375,35,22,18,19,-8,-3,-9,39,-18,1,-1,-7,-1,23,0,-26,-2.9375,-2.9375,-2.9375,0,0,0,3.347138,4.850715,8.66132,6.698071,4.92107,3.627915,-0.05908073,-0.08113305,1.300544,0.1177804,-0.05753244,1.299357,0.02427582,0.374751,1.541466,-0.06637713,-0.118489,1.314569,0.1108863,-0.03152814,1.2598,0.02439327,-0.06394497,1.556022,0.02634772,-0.3702895,1.534807,-0.149791,0.1282568,1.553755,-0.05175805,-0.3612119,1.503422,-0.2689263,-0.1150845,1.496268,0.3365525,-0.1062941,1.483582,NA,NA,NotTracked,NotTracked,
0.1201172,-0.8759766,0.527832,-0.02001953,0.9057617,0.4775391,-2,0,-6,-9,2,-25,-5,-22,-20,7,8,11,-28,-30,10,5,-1.875,-1.875,-1.875,-2.1875,-2.1875,-2.1875,3.341433,4.848608,8.664402,6.690966,4.924625,3.627926,-0.05867839,-0.08101955,1.301551,0.1178388,-0.05910311,1.30174,0.02437201,0.3753272,1.54253,-0.06404971,-0.1162143,1.306556,0.1102613,-0.03034894,1.264027,0.02446602,-0.0638362,1.556211,0.02636305,-0.370235,1.53491,-0.1486004,0.1284889,1.555241,-0.05172912,-0.3611858,1.50349,-0.267951,-0.1128359,1.493244,0.3368601,-0.1063707,1.483406,NA,NA,NotTracked,NotTracked,
0.0703125,-0.8613281,0.5043945,0.0004882813,0.8520508,0.4624023,-30,-34,3,-7,-8,-12,13,-9,16,-1,-2,-8,-17,-9,16,7,-0.0625,-0.0625,-0.0625,-9.0625,-9.0625,-9.0625,3.342997,4.846422,8.662751,6.685225,4.923871,3.623487,-0.05994553,-0.08270703,1.300958,0.1182621,-0.06090187,1.301258,0.02452662,0.3758187,1.543362,-0.06138775,-0.1152687,1.304057,0.1068754,-0.02192164,1.286849,0.02455402,-0.06372599,1.556318,0.02633782,-0.3701568,1.534955,-0.150917,0.1280805,1.55328,-0.05173149,-0.3611444,1.503563,-0.2954313,-0.1123161,1.527263,0.3370318,-0.1064742,1.483259,NA,NA,NotTracked,NotTracked,
0.06884766,-0.862793,0.5327148,-0.03173828,0.6606445,0.4824219,6,7,-4,-9,-9,-4,0,-3,-34,1,-8,-5,-22,10,-8,1,6.4375,6.4375,6.4375,-31.125,-31.125,-31.125,3.348814,4.847496,8.66528,6.645303,4.90689,3.598724,-0.05947983,-0.08299507,1.299733,0.1199357,-0.06417915,1.294159,0.02426472,0.3775929,1.542676,-0.03444259,-0.1089229,1.306333,0.1221668,-0.02795629,1.3147,0.02317208,-0.06322582,1.55587,0.02627033,-0.3699461,1.535117,-0.1507684,0.1281247,1.552572,-0.05175114,-0.3610243,1.503697,-0.2861322,-0.1164515,1.52388,0.3371148,-0.10714,1.482801,NA,NA,NotTracked,NotTracked,
0.03710938,-0.6137695,0.4238281,-0.07275391,0.4389648,0.3085938,-9,-3,-36,-26,-3,-4,-19,-10,-38,-9,7,7,-3,-1,1,-23,26.875,26.875,26.875,-51.375,-51.375,-51.375,3.379814,4.810119,8.681408,6.541209,4.689902,3.436029,-0.05790287,-0.1035097,1.292798,0.1404693,-0.09979966,1.273436,0.02457698,0.3777517,1.543039,-0.01470101,-0.1261757,1.3162,0.1346284,-0.06648544,1.247793,0.02358822,-0.06290285,1.556316,0.0262337,-0.3696845,1.535484,-0.1525636,0.1282119,1.551566,-0.05178219,-0.3607606,1.504409,-0.285405,-0.105994,1.53173,0.3340174,-0.109514,1.472291,NA,NA,NotTracked,NotTracked,
0.2753906,-0.4111328,0.2587891,0.1806641,0.5151367,0.4926758,-53,-38,19,14,-3,-28,-75,-14,0,7,2,3,3,-11,-2,10,-22.875,-22.875,-22.875,32.125,32.125,32.125,3.361474,4.478557,8.774714,6.607065,4.285914,3.251892,-0.06717202,-0.1885249,1.288369,0.1576279,-0.1994087,1.243872,0.02484086,0.3781953,1.543502,-0.004225571,-0.2170338,1.327625,0.170152,-0.1737769,1.217219,0.02360122,-0.0628977,1.556412,0.02600107,-0.3701447,1.535546,-0.1532208,0.12736,1.550425,-0.05209415,-0.3612139,1.504538,-0.2805622,-0.1052611,1.529312,0.3303167,-0.1067508,1.480675,NA,NA,Unknown,Closed,
0.4492188,-0.6484375,0.3808594,0.9262695,0.5791016,0.5214844,-6,5,7,6,10,-8,7,-8,13,-8,1,6,3,-12,-22,-22,-43,-43,-43,-89,-89,-89,3.29678,4.194553,8.836537,6.784549,3.606057,2.961098,-0.08285359,-0.3246829,1.311037,0.2009986,-0.3342949,1.269333,0.02527365,0.3792327,1.545017,-0.07899491,-0.3803307,1.361103,0.1938357,-0.3251237,1.214083,0.02421119,-0.06331973,1.556426,0.02702376,-0.3726737,1.53492,-0.1515092,0.1264471,1.552119,-0.0513055,-0.3645755,1.50403,-0.2208147,-0.1502975,1.500542,0.260935,-0.1185558,1.510729,NA,NA,Closed,Unknown,
1.047852,-0.5581055,0.5625,1.666992,0.2705078,-0.02880859,-1,7,0,-1,-1,-1,1,-5,-24,-2,0,-12,-3,-7,1,1,45.4375,45.4375,45.4375,23,23,23,3.145865,3.628705,9.081231,7.10044,3.233229,2.545932,-0.1419208,-0.3852091,1.36511,0.2301628,-0.4463098,1.327559,0.02572135,0.3804805,1.546916,-0.1672182,-0.4123418,1.364062,0.223993,-0.431369,1.293184,0.02547305,-0.064001,1.556779,0.03096766,-0.3761102,1.535159,-0.1501988,0.124468,1.552695,-0.04763098,-0.369005,1.504119,-0.2016785,-0.1113754,1.535643,0.2512928,-0.1316326,1.510117,NA,NA,Unknown,Lasso,
1.280273,-0.8276367,-0.1220703,1.146973,0.6738281,-0.4477539,-4,-3,-1,0,0,-2,-32,-5,-13,-5,-4,0,2,5,4,18,51.75,51.75,51.75,-65.375,-65.375,-65.375,2.888516,3.36671,9.438472,7.344611,3.083653,2.256991,-0.1539281,-0.433384,1.395003,0.241043,-0.4840459,1.383172,0.02605661,0.381508,1.547818,-0.1950823,-0.4325311,1.389795,0.2033011,-0.480294,1.401,0.02614812,-0.06459463,1.556658,0.03182871,-0.3780038,1.535248,-0.1490436,0.1209158,1.552374,-0.046823,-0.3708355,1.504047,-0.1872071,-0.1259861,1.532638,0.2374467,-0.1534864,1.510007,NA,NA,Unknown,Lasso,
0.9614258,-0.5102539,-0.06982422,0.7548828,0.418457,0.1948242,2,0,-2,0,1,1,-8,10,1,0,0,-1,-1,-2,-7,-4,34.375,34.375,34.375,133.875,133.875,133.875,2.760522,3.219627,9.724255,7.262728,2.996261,2.475815,-0.1518087,-0.4439967,1.411283,0.2247775,-0.4801416,1.414113,0.02635391,0.3835893,1.547714,-0.1852573,-0.4513727,1.378094,0.1949653,-0.4853275,1.368059,0.02639529,-0.06454422,1.556371,0.03180636,-0.378282,1.535273,-0.1527344,0.1209055,1.549141,-0.04684136,-0.371002,1.504043,-0.1836331,-0.1306285,1.533157,0.2348001,-0.1558786,1.51872,NA,NA,Unknown,NotTracked,
0.859375,-0.5073242,0.1889648,0.9619141,0.5146484,0.1030273,-4,-2,-3,-1,-1,-6,-11,-1,-5,1,3,1,1,3,6,8,-78,-78,-78,65,65,65,2.757765,3.175512,9.639741,7.339203,2.947099,2.569768,-0.1479013,-0.4327162,1.428268,0.2132223,-0.4745466,1.442728,0.02654917,0.3854687,1.547053,-0.1933149,-0.4148076,1.441267,0.1738162,-0.4797124,1.4162,0.02675604,-0.06444206,1.555686,0.03180955,-0.378355,1.535273,-0.1536873,0.1206354,1.547435,-0.0468665,-0.3710237,1.504031,-0.1820602,-0.1318686,1.535022,0.2343797,-0.1527529,1.526713,NA,NA,NotTracked,NotTracked,
0.8564453,-0.5205078,0.08056641,0.9545898,0.519043,-0.0390625,-6,-3,-1,-2,-2,-5,-11,-3,-1,0,-1,-4,-2,6,3,-13,-10.1875,-10.1875,-10.1875,-1.8125,-1.8125,-1.8125,2.767073,3.159994,9.5614,7.220917,2.939939,2.681283,-0.1467454,-0.4228587,1.437973,0.2094547,-0.4552885,1.45666,0.02671888,0.3863428,1.546724,-0.1898311,-0.4080417,1.453727,0.169894,-0.4555971,1.424675,0.02702913,-0.06430632,1.555199,0.03178455,-0.3783381,1.535283,-0.1522433,0.1207923,1.547524,-0.04699276,-0.3708923,1.504035,-0.181111,-0.1319454,1.536427,0.2330391,-0.1464874,1.533376,NA,NA,NotTracked,NotTracked,
0.9047852,-0.3955078,0.04199219,0.9609375,0.2915039,-0.06738281,0,-2,1,-1,-3,-3,4,-1,-13,-3,-5,-3,0,7,14,3,26.75,26.75,26.75,-25.25,-25.25,-25.25,2.796005,3.160011,9.590308,7.442258,2.947511,2.451026,-0.1469928,-0.4194857,1.440197,0.2025991,-0.454174,1.457712,0.02692981,0.38732,1.546347,-0.1900489,-0.410975,1.452431,0.166659,-0.4398682,1.425672,0.02708223,-0.06384954,1.554716,0.03159367,-0.3780172,1.535292,-0.1531526,0.1214047,1.54566,-0.047366,-0.3704647,1.503956,-0.1799021,-0.1302723,1.538349,0.2314053,-0.1418358,1.536935,NA,NA,NotTracked,NotTracked,
0.949707,-0.3671875,0.04638672,0.9501953,0.2275391,0.1137695,9,6,0,-1,1,0,3,-2,1,-1,-1,0,0,-3,-1,2,-0.6875,-0.6875,-0.6875,-24.8125,-24.8125,-24.8125,2.789177,3.153038,9.611535,7.29003,2.95087,2.555738,-0.1478048,-0.4195845,1.440385,0.202672,-0.4507034,1.458129,0.02716649,0.3883551,1.545568,-0.1898839,-0.4051493,1.455667,0.1675413,-0.4454361,1.424207,0.02712743,-0.06325138,1.553955,0.03132824,-0.3775623,1.535178,-0.1561268,0.1220699,1.543138,-0.0478095,-0.3698804,1.503799,-0.1790549,-0.1288034,1.539357,0.2308116,-0.138871,1.539048,NA,NA,NotTracked,NotTracked,
0.9067383,-0.3847656,0.08886719,0.8876953,0.2827148,0.1230469,-1,6,0,0,-2,-1,-3,0,11,2,0,0,0,3,8,0,-7.1875,-7.1875,-7.1875,22.4375,22.4375,22.4375,2.791075,3.144605,9.590318,7.225355,2.949043,2.641262,-0.1468867,-0.4216092,1.439211,0.2037147,-0.4447188,1.458141,0.02728229,0.3886554,1.545287,-0.1892168,-0.4193929,1.461143,0.1668958,-0.433457,1.426811,0.02708597,-0.06303555,1.553718,0.03116505,-0.3773651,1.535174,-0.1527159,0.1225154,1.543728,-0.04813031,-0.3695576,1.503697,-0.1789314,-0.1284212,1.540003,0.2308946,-0.1377634,1.54025,NA,NA,NotTracked,NotTracked,
0.9125977,-0.3720703,0.1030273,0.9335938,0.2832031,0.003417969,-5,-6,1,0,1,-2,-4,-2,-6,-3,-2,0,-1,0,7,0,2.375,2.375,2.375,-13,-13,-13,2.798538,3.142853,9.581403,7.323773,2.950858,2.555332,-0.1490079,-0.4202981,1.440686,0.2025485,-0.4480486,1.457931,0.02730563,0.3889424,1.544945,-0.186275,-0.4255234,1.443421,0.1655061,-0.4281128,1.427568,0.02691411,-0.0627896,1.55338,0.0308525,-0.3771202,1.535025,-0.1540165,0.1228245,1.542536,-0.04858399,-0.3692425,1.503384,-0.178978,-0.128213,1.540357,0.2308652,-0.137174,1.540624,NA,NA,NotTracked,NotTracked,
0.9091797,-0.4042969,0.109375,0.934082,0.2666016,0.09667969,-5,-8,-3,-2,-3,-1,0,0,-2,-4,-4,-3,-1,0,-5,-4,3.875,3.875,3.875,-10.875,-10.875,-10.875,2.81519,3.142136,9.572164,7.262857,2.955641,2.589131,-0.1497517,-0.4200833,1.440446,0.2025407,-0.4478925,1.457049,0.02725773,0.389005,1.544655,-0.1879966,-0.4178601,1.448881,0.1655622,-0.4367191,1.425947,0.02688175,-0.06266795,1.55311,0.03072901,-0.3769818,1.534877,-0.1523134,0.123102,1.54315,-0.04881814,-0.3690236,1.503075,-0.1789938,-0.1283122,1.540807,0.2306742,-0.1366622,1.540914,NA,NA,NotTracked,NotTracked,
0.9194336,-0.375,0.07080078,0.9233398,0.2788086,0.07568359,8,6,0,-1,-2,-1,-4,-4,1,1,1,-2,1,-1,-3,2,1.9375,1.9375,1.9375,5.75,5.75,5.75,2.819595,3.14256,9.576083,7.253161,2.958666,2.600336,-0.1490207,-0.4202642,1.440695,0.202738,-0.4479126,1.457571,0.02718188,0.3890661,1.544491,-0.1858368,-0.4303205,1.446235,0.1654489,-0.4372075,1.426546,0.02678121,-0.0625663,1.552982,0.03060559,-0.3768308,1.534839,-0.1543608,0.1233036,1.542215,-0.04896903,-0.3688771,1.503026,-0.1790496,-0.1279203,1.541232,0.2307196,-0.1362944,1.541401,NA,NA,NotTracked,NotTracked,
0.9326172,-0.3681641,0.0625,0.9414063,0.2734375,0.06542969,-2,2,-3,-2,0,1,0,-3,-5,-2,0,3,-1,-6,6,-1,-1.25,-1.25,-1.25,4.5625,4.5625,4.5625,2.811389,3.139248,9.578623,7.254454,2.956475,2.613507,-0.1500453,-0.4192137,1.440974,0.202872,-0.4445914,1.457339,0.0270205,0.3890351,1.544007,-0.1905634,-0.4116041,1.459,0.1631743,-0.4511479,1.422367,0.02655312,-0.06247826,1.552652,0.03042666,-0.3767007,1.534627,-0.1529598,0.1234766,1.542725,-0.0492198,-0.3687632,1.502789,-0.1790749,-0.1279923,1.541374,0.2307153,-0.1362252,1.541445,NA,NA,NotTracked,NotTracked,
0.921875,-0.3676758,0.07568359,0.9365234,0.2626953,0.07128906,6,5,-2,-2,-1,-1,-1,1,-3,-2,2,0,-1,-1,5,-3,4,4,4,-1.5625,-1.5625,-1.5625,2.816006,3.137597,9.579555,7.238526,2.955789,2.627773,-0.1506635,-0.4197953,1.439602,0.2018561,-0.4479994,1.455335,0.02675253,0.3888764,1.543333,-0.1920483,-0.4058215,1.455714,0.1637398,-0.4447397,1.422807,0.02641689,-0.06239987,1.55233,0.03024999,-0.3765723,1.534348,-0.1523332,0.1234914,1.542999,-0.04948059,-0.368614,1.502443,-0.1791981,-0.1279878,1.541475,0.2305465,-0.1360009,1.541588,NA,NA,NotTracked,NotTracked,
0.9125977,-0.3828125,0.09472656,0.9404297,0.2783203,0.08300781,5,5,-1,-5,-2,1,4,0,6,1,0,1,-1,1,-3,-4,0.5625,0.5625,0.5625,-3.875,-3.875,-3.875,2.821244,3.136615,9.577182,7.218621,2.956224,2.639478,-0.1510564,-0.4174837,1.441104,0.2036539,-0.4374449,1.457373,0.02651872,0.3888303,1.542725,-0.189727,-0.4147308,1.450104,0.1641715,-0.4282497,1.425891,0.02614469,-0.06236108,1.551924,0.03002569,-0.3764978,1.534135,-0.1542516,0.1233373,1.542073,-0.04978167,-0.3685423,1.502079,-0.1793465,-0.1282019,1.541454,0.2305121,-0.1359483,1.541613,NA,NA,NotTracked,NotTracked,
0.9199219,-0.3735352,0.08056641,0.9345703,0.2680664,0.07177734,0,-4,0,-1,-2,-3,-5,1,1,1,-3,-1,-4,0,0,-3,-3.125,-3.125,-3.125,-2.9375,-2.9375,-2.9375,2.822406,3.134681,9.574928,7.204641,2.95658,2.648176,-0.1514196,-0.4174412,1.44085,0.2040561,-0.437123,1.457347,0.02618813,0.3883559,1.541635,-0.196343,-0.3938777,1.462389,0.1652569,-0.4307007,1.42485,0.02593279,-0.06243663,1.551547,0.02986122,-0.3764658,1.533943,-0.1552307,0.1232129,1.54109,-0.0499886,-0.3685195,1.501783,-0.1795264,-0.1275894,1.541537,0.2304183,-0.1358221,1.541646,NA,NA,NotTracked,NotTracked,
0.918457,-0.378418,0.08496094,0.9389648,0.2666016,0.08642578,-2,1,0,-2,-2,-3,-4,-2,13,-3,-3,-1,0,9,2,2,0.75,0.75,0.75,1.5,1.5,1.5,2.821048,3.134112,9.574025,7.189243,2.957618,2.660927,-0.1512165,-0.4169755,1.440798,0.2025521,-0.4407416,1.45678,0.02596291,0.3880811,1.540978,-0.1940592,-0.4002942,1.459637,0.1645819,-0.4310166,1.425767,0.02576286,-0.06247079,1.551337,0.02969753,-0.3764254,1.533825,-0.1555156,0.1232909,1.540711,-0.05015795,-0.3684899,1.50167,-0.1796686,-0.1275721,1.541601,0.2300275,-0.135078,1.541792,NA,NA,NotTracked,NotTracked,
0.9140625,-0.3759766,0.08642578,0.9301758,0.2695313,0.08398438,0,-2,-2,1,-1,0,4,0,-2,1,-1,0,-1,1,-7,0,-1.125,-1.125,-1.125,-2.0625,-2.0625,-2.0625,2.823363,3.133812,9.572146,7.185607,2.958217,2.663168,-0.1498736,-0.4219021,1.439398,0.2025786,-0.4410924,1.457377,0.0257138,0.3878355,1.540305,-0.1904971,-0.4208985,1.453692,0.1637853,-0.4299242,1.425686,0.02558703,-0.06247868,1.551037,0.02953669,-0.3763437,1.533659,-0.1541248,0.1233795,1.540988,-0.05036085,-0.3683515,1.501457,-0.1797598,-0.1273861,1.541641,0.2298619,-0.1351607,1.541853,NA,NA,NotTracked,NotTracked,
0.9277344,-0.3706055,0.07373047,0.934082,0.2739258,0.08203125,2,-1,0,0,-1,-4,-3,2,1,-1,0,-2,1,2,11,0,0.0625,0.0625,0.0625,-4.125,-4.125,-4.125,2.823759,3.133152,9.571527,7.178257,2.959804,2.663836,-0.150465,-0.4218889,1.438889,0.2038611,-0.4373734,1.45825,0.02549787,0.3875678,1.539507,-0.1919152,-0.4197096,1.4595,0.1646911,-0.4269655,1.42635,0.02548867,-0.06248386,1.550816,0.02940156,-0.3763165,1.533535,-0.1546149,0.1232865,1.540594,-0.05048136,-0.3683391,1.501313,-0.1798888,-0.1273604,1.54163,0.2297316,-0.1351103,1.541967,NA,NA,NotTracked,NotTracked,
0.9160156,-0.3725586,0.07226563,0.9331055,0.269043,0.08398438,0,-1,-2,-4,-2,-1,-4,0,-4,1,-3,-1,1,-7,0,3,-1.0625,-1.0625,-1.0625,-3.125,-3.125,-3.125,2.823377,3.132887,9.571434,7.166763,2.961641,2.669338,-0.151505,-0.4205231,1.440142,0.2023049,-0.441312,1.458118,0.02537916,0.3873892,1.539252,-0.1926334,-0.4104958,1.456249,0.1637802,-0.4254771,1.426937,0.02535143,-0.06250308,1.550686,0.02922503,-0.3762195,1.533466,-0.1552724,0.123297,1.540697,-0.05064853,-0.3682539,1.501254,-0.1800313,-0.1271298,1.541758,0.2295729,-0.1351722,1.54209,NA,NA,NotTracked,NotTracked,
0.9228516,-0.3710938,0.09130859,0.9311523,0.2709961,0.08349609,-3,-3,-3,2,0,0,-2,-3,-20,-8,-4,-1,-3,0,7,-2,0.1875,0.1875,0.1875,-1,-1,-1,2.823984,3.132636,9.570769,7.161939,2.962946,2.669981,-0.1511246,-0.4215221,1.437387,0.2014736,-0.4440995,1.455795,0.02525742,0.3870117,1.538495,-0.1949711,-0.4001209,1.456911,0.1628034,-0.4313409,1.424577,0.02507722,-0.06256912,1.550297,0.02890071,-0.3761242,1.533175,-0.1563141,0.1230206,1.539937,-0.05099454,-0.3681574,1.500887,-0.1803101,-0.126781,1.541753,0.229525,-0.13539,1.542144,NA,NA,NotTracked,NotTracked,
0.9306641,-0.371582,0.06933594,0.9350586,0.2749023,0.09082031,2,6,-2,-1,0,0,2,-2,13,2,-2,0,-2,-4,-2,1,-0.1875,-0.1875,-0.1875,-0.9375,-0.9375,-0.9375,2.824403,3.132443,9.570488,7.155458,2.965716,2.671995,-0.151268,-0.4218576,1.438397,0.2030159,-0.4370791,1.458057,0.02522026,0.3867978,1.538004,-0.1868727,-0.4378851,1.437273,0.1646167,-0.4126934,1.428226,0.02492945,-0.06259088,1.550118,0.02873855,-0.376071,1.533078,-0.1567256,0.1229476,1.539693,-0.05116087,-0.3680893,1.500745,-0.1804262,-0.1265846,1.541753,0.2293441,-0.135711,1.542249,NA,NA,NotTracked,NotTracked,
0.9174805,-0.3735352,0.08105469,0.9311523,0.2744141,0.08691406,1,4,-4,-3,0,1,-6,-2,-4,0,0,0,0,-2,-4,-5,1.9375,1.9375,1.9375,-1.4375,-1.4375,-1.4375,2.826382,3.132851,9.570208,7.151167,2.966779,2.673493,-0.1517676,-0.4196579,1.438495,0.2026763,-0.4372677,1.457038,0.02512603,0.3866633,1.537571,-0.1922883,-0.4157094,1.452012,0.1633452,-0.4272945,1.424838,0.02478362,-0.06258311,1.549902,0.02864667,-0.3760186,1.532915,-0.1548387,0.1230665,1.540274,-0.05127903,-0.3680168,1.500493,-0.1806117,-0.1263649,1.541636,0.2291933,-0.1356957,1.542279,NA,NA,NotTracked,NotTracked,
0.9204102,-0.3730469,0.08789063,0.9321289,0.2709961,0.09082031,-3,-1,1,1,-2,-1,0,0,2,2,-1,-1,-1,-1,-3,0,-0.625,-0.625,-0.625,-1.6875,-1.6875,-1.6875,2.829651,3.132854,9.56804,7.147107,2.968366,2.674062,-0.1516886,-0.4194406,1.438267,0.2024407,-0.437335,1.456533,0.02511424,0.3864769,1.53722,-0.1900625,-0.4374675,1.447445,0.1630739,-0.4237467,1.425337,0.02466713,-0.06264812,1.549687,0.0285436,-0.3760453,1.532687,-0.1538105,0.1227849,1.540608,-0.05140258,-0.3679889,1.500236,-0.1807897,-0.1258236,1.541484,0.22899,-0.1356945,1.542298,NA,NA,NotTracked,NotTracked,
0.9208984,-0.375,0.08154297,0.9350586,0.2768555,0.08349609,-1,-5,-6,1,-1,2,1,-2,-6,-3,0,2,0,1,4,-4,-0.125,-0.125,-0.125,-0.9375,-0.9375,-0.9375,2.829385,3.133113,9.568137,7.147401,2.971534,2.669567,-0.1522846,-0.4200458,1.43828,0.2029219,-0.4339911,1.457554,0.02507536,0.3862702,1.537049,-0.1973098,-0.3957178,1.459834,0.1638313,-0.4212332,1.426465,0.02440386,-0.06270499,1.54953,0.02833994,-0.3760202,1.532469,-0.153234,0.1225938,1.540979,-0.05163614,-0.3679744,1.49995,-0.181083,-0.1257671,1.541619,0.2288237,-0.1357672,1.542363,NA,NA,NotTracked,NotTracked,
0.9213867,-0.3764648,0.08886719,0.9291992,0.2724609,0.09326172,-6,-7,-2,2,0,-2,5,0,-2,1,-1,-3,-2,-7,-6,-4,0.1875,0.1875,0.1875,-0.0625,-0.0625,-0.0625,2.829362,3.132645,9.567801,7.143772,2.972429,2.671243,-0.1521245,-0.419565,1.438932,0.2031953,-0.4339027,1.457724,0.02513072,0.3861172,1.536908,-0.1952674,-0.4050258,1.456201,0.1632724,-0.4214277,1.426488,0.02436994,-0.06273627,1.549455,0.02826041,-0.3759718,1.532322,-0.1525346,0.1227233,1.541308,-0.05172601,-0.3679092,1.499753,-0.1811946,-0.1258361,1.541593,0.2286177,-0.1359842,1.542553,NA,NA,NotTracked,NotTracked,
