ALX,ALY,ALZ,ARX,ARY,ARZ,EMG0L,EMG1L,EMG2L,EMG3L,EMG4L,EMG5L,EMG6L,EMG7L,EMG0R,EMG1R,EMG2R,EMG3R,EMG4R,EMG5R,EMG6R,EMG7R,GLX,GLY,GLZ,GRX,GRY,GRZ,ORL,OPL,OYL,ORR,OPR,OYR,LHNX,LHNY,LHNZ,RHNX,RHNY,RHNZ,HX,HY,HZ,LTX,LTY,LTZ,RTX,RTY,RTZ,SpineMidX,SpineMidY,SpineMidZ,SpineBaseX,SpineBaseY,SpineBaseZ,ShoulderLeftX,ShoulderLeftY,ShoulderLeftZ,ShoulderRightX,ShoulderRightY,ShoulderRightZ,ElbowLeftX,ElbowLeftY,ElbowLeftZ,ElbowRightX,ElbowRightY,ElbowRightZ,Myo_Pose_left,Myo_Pose_Right,Kinect_pose_left,Kinect_pose_right
0.9189453,-0.3466797,0.06591797,-0.2055664,0.5195313,0.3666992,-1,-2,0,-1,-1,-2,1,-2,69,15,2,20,16,26,5,14,-14.125,-14.125,-14.125,33.625,33.625,33.625,2.861386,3.096817,7.628547,6.542322,5.617458,0.9645208,-0.1498861,-0.4365224,1.548958,-0.03369766,0.04387995,1.467097,0.0552012,0.3783012,1.62949,-0.1942173,-0.440953,1.556811,-0.04672385,-0.003406108,1.517231,0.04133295,-0.0649363,1.649595,0.04133005,-0.375499,1.636666,-0.1185763,0.1206004,1.623108,-0.03733734,-0.3651779,1.600981,-0.1646308,-0.1294049,1.646384,0.2203867,-0.09506475,1.546096,NA,NA,NotTracked,Unknown,
0.9301758,-0.3305664,0.046875,-0.2416992,0.6865234,0.3461914,-1,0,-1,-1,-1,-2,0,-2,-29,-4,-3,1,-57,-10,8,4,-3.75,-3.75,-3.75,32.75,32.75,32.75,2.839792,3.097176,7.639255,6.719181,5.871512,1.183687,-0.1500091,-0.436518,1.548395,0.004015675,0.05151014,1.49927,0.05799654,0.377924,1.631234,-0.1919961,-0.431077,1.554655,-0.01965393,0.006011609,1.523751,0.04243419,-0.06538713,1.650584,0.04253149,-0.3762909,1.637031,-0.1073761,0.1181061,1.611616,-0.03611909,-0.3661207,1.601203,-0.1639854,-0.1302672,1.646007,0.2112153,-0.09440991,1.530802,NA,NA,NotTracked,Unknown,
0.9423828,-0.3393555,0.05078125,-0.3813477,0.59375,0.4335938,0,1,-2,-2,0,0,-1,-2,-76,-29,-16,-21,-71,-24,-10,-17,1.25,1.25,1.25,18.0625,18.0625,18.0625,2.819035,3.09854,7.657792,6.762552,5.893231,1.226457,-0.1502903,-0.4363597,1.549703,0.006257858,0.05993707,1.500986,0.06038394,0.3778279,1.632489,-0.1938545,-0.4396376,1.553021,-0.01881488,0.02110608,1.524692,0.04334696,-0.06565984,1.651092,0.04335641,-0.3768581,1.636992,-0.1026833,0.1173413,1.607657,-0.03530756,-0.3667274,1.600821,-0.1634929,-0.1309315,1.645744,0.2066862,-0.08898762,1.52152,NA,NA,NotTracked,Unknown,
0.9233398,-0.3432617,0.08496094,-0.4912109,0.7167969,0.4667969,-1,-1,-1,-1,-2,-1,-1,1,60,9,33,74,107,38,16,11,7.1875,7.1875,7.1875,-1.375,-1.375,-1.375,2.818499,3.09641,7.677647,6.759625,5.900263,1.21626,-0.1505144,-0.4373133,1.549341,0.007090657,0.06532597,1.497679,0.06181587,0.3776764,1.633077,-0.1943096,-0.445772,1.554295,-0.01132577,0.02100234,1.523686,0.04379974,-0.06586184,1.651397,0.0436833,-0.3773371,1.636922,-0.1004658,0.1172508,1.606007,-0.0349886,-0.367295,1.600394,-0.1634558,-0.1312594,1.645884,0.2053825,-0.08624594,1.518099,NA,NA,NotTracked,Unknown,
0.9208984,-0.3862305,0.09765625,-0.590332,0.6987305,0.4213867,-4,-2,0,-1,-1,-1,-1,-1,19,0,13,6,-84,1,8,7,5.1875,5.1875,5.1875,-15.875,-15.875,-15.875,2.816729,3.094746,7.689279,6.729795,5.920935,1.207293,-0.1504255,-0.4377536,1.551634,0.00975253,0.06674496,1.499029,0.06303037,0.3777229,1.633608,-0.194987,-0.4297766,1.563067,-0.009612854,0.02648814,1.524394,0.04407535,-0.0659948,1.651488,0.04379416,-0.3776191,1.63682,-0.09870762,0.1173733,1.604937,-0.03490263,-0.3675564,1.600074,-0.1631221,-0.1309641,1.646363,0.2024632,-0.08329675,1.514832,NA,NA,NotTracked,Unknown,
0.9160156,-0.3818359,0.08203125,-0.4926758,0.7421875,0.5795898,0,0,-1,0,-1,-1,1,-1,-33,-22,-21,-35,-16,30,-2,4,4,4,4,-25.5625,-25.5625,-25.5625,2.816703,3.096031,7.700248,6.690835,5.928717,1.238525,-0.1505723,-0.4374346,1.55088,0.01038919,0.06248084,1.503824,0.06355897,0.3775401,1.633839,-0.1938967,-0.4373679,1.555804,-0.01234101,0.02060736,1.52323,0.04441164,-0.06620546,1.651577,0.04393812,-0.3779112,1.636724,-0.0977888,0.117511,1.604291,-0.03478738,-0.3678496,1.599816,-0.16296,-0.1304625,1.646729,0.2012778,-0.08368328,1.514695,NA,NA,NotTracked,Unknown,
0.9262695,-0.3823242,0.07519531,-0.5463867,0.7397461,0.527832,0,-2,0,-1,-1,-2,-3,-2,-35,-10,-4,-15,-40,-3,-12,-42,-3.6875,-3.6875,-3.6875,-22.25,-22.25,-22.25,2.812753,3.098473,7.701577,6.732296,5.926202,1.433773,-0.1505587,-0.4367667,1.550174,0.01764407,0.04765325,1.523112,0.06395695,0.3774784,1.633832,-0.1936163,-0.438167,1.555035,-0.0002009434,0.004040857,1.518783,0.04470997,-0.06630295,1.651548,0.04403206,-0.3780234,1.636614,-0.09802254,0.1180018,1.606399,-0.03471184,-0.367971,1.599658,-0.162721,-0.1306594,1.646848,0.2000063,-0.08307462,1.515093,NA,NA,NotTracked,Unknown,
0.9086914,-0.3759766,0.06591797,-0.1928711,0.7109375,0.3334961,0,-1,1,-2,-2,-2,-1,1,20,7,-13,-3,-14,-18,-1,-80,-2.0625,-2.0625,-2.0625,-33.125,-33.125,-33.125,2.815012,3.098005,7.693221,6.719087,5.934791,1.424737,-0.1507461,-0.4369476,1.548973,0.01718351,0.04720426,1.523057,0.06423269,0.3774058,1.633724,-0.1971244,-0.4429981,1.559934,-0.01341305,0.07320066,1.488125,0.04484218,-0.06632539,1.651516,0.04407688,-0.3780866,1.636513,-0.09848,0.1187073,1.608556,-0.03470646,-0.3680244,1.599626,-0.1624077,-0.1312627,1.646755,0.1980985,-0.08341135,1.516802,NA,NA,NotTracked,NotTracked,
0.9799805,-0.3510742,0.1210938,-0.7529297,0.6035156,0.2597656,-2,0,-2,-1,-1,-1,-1,0,8,1,4,-7,-5,11,-7,6,-26.75,-26.75,-26.75,-23.375,-23.375,-23.375,2.802233,3.099896,7.686508,6.692176,5.924465,1.403747,-0.1506489,-0.4370337,1.548417,0.01525753,0.04499135,1.516157,0.06442036,0.3773373,1.633792,-0.1956736,-0.4483966,1.557711,0.07057174,0.06239627,1.532466,0.044926,-0.06638704,1.651499,0.0440122,-0.3782364,1.636307,-0.09843285,0.1186107,1.608419,-0.034826,-0.3681384,1.599453,-0.1622144,-0.1311347,1.646749,0.197732,-0.08362158,1.517276,NA,NA,NotTracked,Unknown,
0.8828125,-0.394043,0.02832031,-0.4199219,1.058594,0.5727539,-1,-1,-1,-1,0,1,1,-1,-19,-24,-55,-67,83,30,1,4,27.375,27.375,27.375,26,26,26,2.812931,3.102494,7.685524,6.63879,5.880745,1.222182,-0.1503673,-0.4365685,1.5493,0.0004375965,0.06308096,1.499935,0.06472434,0.37726,1.633852,-0.1945693,-0.4416395,1.555619,-0.01755706,0.01713792,1.521688,0.04497604,-0.06642348,1.651535,0.04402561,-0.3783977,1.636168,-0.09786667,0.1178031,1.606703,-0.03483412,-0.3683086,1.599235,-0.1620594,-0.1313269,1.646789,0.1976638,-0.08476821,1.518608,NA,NA,NotTracked,Unknown,
0.925293,-0.3828125,0.06201172,-0.3876953,0.6298828,0.7661133,-2,-1,0,1,0,-1,1,1,19,29,6,-34,-5,-90,-16,20,-32.0625,-32.0625,-32.0625,10.375,10.375,10.375,2.794552,3.093587,7.689764,6.665753,5.904191,1.300792,-0.149987,-0.4358648,1.548347,0.0142859,0.04821625,1.516769,0.06506874,0.3771759,1.633803,-0.1939223,-0.442776,1.552001,-0.008656627,0.008784669,1.519717,0.0451862,-0.0664915,1.651471,0.04419753,-0.3785359,1.635878,-0.09756585,0.1176247,1.606024,-0.03472595,-0.3684223,1.598891,-0.161942,-0.1315499,1.646713,0.1969351,-0.08469731,1.518487,NA,NA,NotTracked,Unknown,
0.9165039,-0.3681641,0.06884766,-0.01416016,0.5688477,0.5234375,-2,-2,-3,-1,-1,0,-2,1,-2,-16,5,13,-55,-17,-24,-21,14.9375,14.9375,14.9375,18.8125,18.8125,18.8125,2.804082,3.097118,7.678779,6.787425,5.950779,1.480335,-0.1503276,-0.4363174,1.547949,0.0174722,0.04736267,1.523962,0.06523531,0.3771805,1.633779,-0.1958442,-0.4446314,1.555329,-0.02274535,0.05600275,1.5042,0.04519037,-0.06648058,1.651438,0.04410404,-0.3785224,1.635746,-0.09824777,0.118321,1.607966,-0.03483554,-0.368373,1.598791,-0.1618674,-0.1314502,1.646329,0.1970003,-0.08348286,1.518339,NA,NA,NotTracked,NotTracked,
0.9648438,-0.3579102,0.08203125,-0.737793,0.7749023,0.4067383,-1,-1,0,-2,-3,-2,0,0,-17,10,2,-20,-45,-1,15,4,-4.6875,-4.6875,-4.6875,-29.875,-29.875,-29.875,2.797361,3.105303,7.666933,6.783677,5.922783,1.49424,-0.1508761,-0.4354736,1.544767,0.01612999,0.04653249,1.523283,0.0653326,0.3771251,1.633758,-0.1952313,-0.4409952,1.551089,-0.02516385,0.04506906,1.506107,0.04524388,-0.06650215,1.651396,0.04409715,-0.3785253,1.635568,-0.09831287,0.1182875,1.608014,-0.03484756,-0.3683771,1.598663,-0.1619512,-0.1315821,1.646046,0.1971737,-0.08318274,1.518243,NA,NA,NotTracked,Unknown,
0.8837891,-0.394043,0.03369141,-0.4897461,0.7929688,0.3452148,-1,0,-2,-2,-1,-2,-1,-2,31,11,2,5,10,3,5,3,34.875,34.875,34.875,2.25,2.25,2.25,2.818603,3.106898,7.645023,6.743643,5.943727,1.401724,-0.1502166,-0.4355224,1.5455,0.01692958,0.04675356,1.520962,0.06539214,0.3770734,1.633584,-0.1950108,-0.4404512,1.553272,-0.01509101,0.06507345,1.488688,0.04528057,-0.06653597,1.651297,0.04411186,-0.3785706,1.635436,-0.09835544,0.1182615,1.607967,-0.03484702,-0.3684038,1.598555,-0.1620181,-0.1310308,1.645518,0.1983738,-0.0824848,1.517907,NA,NA,NotTracked,Unknown,
0.9155273,-0.3554688,0.06152344,-0.4433594,0.6542969,0.3061523,0,-2,-2,1,1,-1,-2,-2,-10,-6,-4,-8,-53,-1,-1,7,-52.5625,-52.5625,-52.5625,2.6875,2.6875,2.6875,2.791804,3.085707,7.646393,6.714972,5.918357,1.345435,-0.1505058,-0.4363926,1.54647,-0.07952101,0.1322184,1.552329,0.06539572,0.3770122,1.633403,-0.1952069,-0.4462458,1.548918,-0.1018892,0.09811853,1.540781,0.04532084,-0.06655982,1.65124,0.04414182,-0.3786201,1.635345,-0.09834529,0.1179893,1.607476,-0.03479249,-0.3684644,1.598301,-0.1619909,-0.1312056,1.645174,0.1988158,-0.08321179,1.518666,NA,NA,NotTracked,Unknown,
0.9360352,-0.378418,0.05175781,-0.1367188,0.6157227,0.4414063,-1,0,-1,-2,-2,-1,-2,-2,18,-4,-4,2,-5,-4,10,3,33.5,33.5,33.5,15.125,15.125,15.125,2.790253,3.099035,7.646883,6.625124,5.732766,1.086052,-0.1508261,-0.4359056,1.544594,0.01224179,0.04898464,1.497818,0.06522298,0.3769623,1.6332,-0.1952812,-0.4413604,1.55077,-0.01479585,0.001256708,1.518114,0.0453435,-0.06656918,1.651136,0.04415698,-0.378575,1.635242,-0.09923482,0.1175309,1.606791,-0.03472986,-0.3684711,1.598193,-0.1621811,-0.131258,1.644597,0.2046118,-0.08760763,1.523891,NA,NA,NotTracked,Unknown,
0.9379883,-0.3671875,0.06689453,-0.2197266,0.5561523,0.4853516,-1,0,-2,-1,-2,-1,-1,-1,-20,-4,1,2,-1,-3,-2,-3,-1.6875,-1.6875,-1.6875,-8.9375,-8.9375,-8.9375,2.815588,3.101942,7.627977,6.537048,5.430535,0.8347207,-0.1510991,-0.43536,1.542958,-0.02876065,-0.003531746,1.433995,0.0641481,0.3770539,1.63285,-0.1950511,-0.4382594,1.54458,-0.03122788,0.02954761,1.399424,0.0450018,-0.06608593,1.650957,0.04401108,-0.3772276,1.635068,-0.1137628,0.1200029,1.617937,-0.03466235,-0.3673029,1.598356,-0.1624207,-0.1316981,1.644264,0.2147173,-0.08880805,1.535338,NA,NA,NotTracked,Unknown,
0.9326172,-0.3198242,0.06787109,0.04931641,0.6977539,0.6054688,-1,1,-1,-2,0,-1,-1,-1,24,4,1,-1,-1,2,4,-3,17.3125,17.3125,17.3125,-44.375,-44.375,-44.375,2.836272,3.10388,7.623173,6.450508,4.747625,0.5408282,-0.1512401,-0.4362012,1.54489,0.001681442,-0.1292217,1.39744,0.06220597,0.3773944,1.632442,-0.1953063,-0.4406797,1.54938,-0.001446659,-0.1459594,1.362375,0.0443822,-0.06530395,1.650634,0.04343173,-0.3754278,1.63485,-0.1168656,0.1210182,1.621928,-0.03505935,-0.3657092,1.598284,-0.1627904,-0.1314874,1.64387,0.2290331,-0.09035452,1.562317,NA,NA,NotTracked,Unknown,
0.9345703,-0.3706055,0.07763672,0.387207,0.5654297,0.612793,0,-1,-2,1,-1,-1,0,1,12,-2,-8,-6,-5,-7,-1,-2,9.6875,9.6875,9.6875,19.0625,19.0625,19.0625,2.834482,3.09156,7.655439,6.460213,4.148202,0.3887421,-0.1521816,-0.438572,1.548518,0.04797244,-0.2802554,1.40041,0.05968247,0.3779404,1.632527,-0.1952411,-0.4415776,1.550336,0.03181808,-0.2518861,1.358067,0.04373991,-0.06529624,1.65068,0.04285107,-0.3757186,1.635214,-0.1186862,0.1205285,1.623913,-0.03552099,-0.3659632,1.598702,-0.1633222,-0.1305141,1.644384,0.2694378,-0.1289913,1.578233,NA,NA,NotTracked,Unknown,
0.9316406,-0.3798828,0.09277344,1.59082,0.7626953,1.477539,0,0,-1,-1,0,-2,-1,0,26,3,4,2,1,-3,2,-7,11.6875,11.6875,11.6875,39.8125,39.8125,39.8125,2.836716,3.087002,7.674012,6.731635,3.447812,0.09947061,-0.1524776,-0.4381036,1.548556,0.1246316,-0.3904933,1.44082,0.05702164,0.3781686,1.631697,-0.1969739,-0.4505188,1.550604,0.08619134,-0.366792,1.44152,0.04031105,-0.06554127,1.649487,0.03663749,-0.3768949,1.633201,-0.1207065,0.1205497,1.625434,-0.04311851,-0.3653196,1.596005,-0.1638099,-0.1297143,1.644551,0.2370082,-0.1085251,1.606815,NA,NA,NotTracked,Unknown,
0.9316406,-0.3764648,0.09716797,1.728027,0.9125977,0.3344727,-1,-2,1,-2,-1,-1,1,-2,-40,-14,2,2,4,-5,8,8,6.5625,6.5625,6.5625,34.375,34.375,34.375,2.857639,3.094651,7.672875,7.159669,3.122715,9.648779,-0.1524541,-0.437861,1.546238,0.1853201,-0.456128,1.495745,0.0550442,0.3784452,1.630818,-0.1961343,-0.4409535,1.552803,0.145319,-0.4384359,1.49125,0.03888167,-0.06560732,1.647991,0.03474993,-0.3770302,1.631261,-0.1222427,0.1204569,1.62631,-0.04515965,-0.3651867,1.594158,-0.1640367,-0.1297829,1.644622,0.2316403,-0.12415,1.610648,NA,NA,NotTracked,Closed,
0.9194336,-0.340332,0.05859375,0.8623047,0.246582,0.2402344,0,-1,-1,-1,-1,2,1,1,8,0,-4,-3,-4,-2,4,-38,10.875,10.875,10.875,105.9375,105.9375,105.9375,2.865961,3.101263,7.67881,7.033654,2.942439,9.530459,-0.1532838,-0.4381946,1.545942,0.2166133,-0.4804393,1.539131,0.05388939,0.3785037,1.630514,-0.194675,-0.4508095,1.542789,0.1720721,-0.474504,1.526167,0.03911219,-0.06579927,1.647799,0.03755808,-0.3779949,1.63116,-0.1239581,0.1206539,1.627548,-0.04161439,-0.3668748,1.593912,-0.1649761,-0.1310446,1.644439,0.235304,-0.1380598,1.62079,NA,NA,NotTracked,Unknown,
0.8955078,-0.3266602,0.05810547,0.8325195,0.7207031,0.206543,-2,-1,-1,-2,-2,-3,0,0,5,1,-1,-1,0,4,1,10,0.25,0.25,0.25,-18.75,-18.75,-18.75,2.858629,3.094031,7.696268,7.178517,2.899313,9.479505,-0.1538004,-0.4388323,1.547744,0.2343474,-0.4646424,1.571378,0.05303357,0.3785301,1.629563,-0.198691,-0.453073,1.551364,0.1891857,-0.4524943,1.541534,0.03941741,-0.06590512,1.647427,0.03924818,-0.3781722,1.631224,-0.1247181,0.1207219,1.627788,-0.03965241,-0.3674943,1.594194,-0.1653556,-0.1314507,1.644203,0.2416546,-0.1449772,1.639048,NA,NA,NotTracked,NotTracked,
0.972168,-0.3808594,0.1025391,0.331543,-0.02978516,-0.230957,0,-1,-1,0,-3,-3,-2,-1,2,1,-1,-1,-3,-1,2,1,-4.8125,-4.8125,-4.8125,-52.125,-52.125,-52.125,2.819494,3.081933,7.72096,6.984741,2.866401,9.545496,-0.1546578,-0.4395535,1.547548,0.2402996,-0.4570705,1.590582,0.05238926,0.3784982,1.628381,-0.1977583,-0.4462864,1.550765,0.1980746,-0.437782,1.554387,0.03964972,-0.06601897,1.647107,0.0402953,-0.3783888,1.631458,-0.1250933,0.1206483,1.627663,-0.03841062,-0.3680041,1.594583,-0.1656242,-0.1320313,1.643826,0.2450539,-0.1433758,1.648938,NA,NA,NotTracked,NotTracked,
0.9458008,-0.3286133,0.09960938,1.302734,0.4638672,-0.09326172,-1,-1,0,-2,0,-1,-4,-1,16,3,0,0,7,6,0,9,6.1875,6.1875,6.1875,-50.4375,-50.4375,-50.4375,2.839042,3.082454,7.708375,6.85541,2.864207,9.592206,-0.1540084,-0.4387261,1.548116,0.2368938,-0.4589027,1.597876,0.05170394,0.3782625,1.627129,-0.1964585,-0.4422562,1.55023,0.1966772,-0.443202,1.55293,0.03987785,-0.06612683,1.646968,0.04164214,-0.3786955,1.632162,-0.1253288,0.1203808,1.62746,-0.03695633,-0.3687644,1.595554,-0.166101,-0.133138,1.643637,0.2458764,-0.1464649,1.657054,NA,NA,NotTracked,NotTracked,
0.9121094,-0.3466797,0.06982422,1.475098,0.4086914,-0.06982422,-1,-3,-3,1,-2,-2,-1,-1,7,6,3,4,4,4,-1,3,-3.5625,-3.5625,-3.5625,-16.125,-16.125,-16.125,2.857718,3.084098,7.686779,6.858103,2.865722,9.540387,-0.1529584,-0.4381963,1.547001,0.2334034,-0.4606183,1.59799,0.05129495,0.3781921,1.626548,-0.1964692,-0.4324684,1.554591,0.1956619,-0.445672,1.552909,0.04032925,-0.0661044,1.646925,0.04322031,-0.3784425,1.632993,-0.1255668,0.1204835,1.627236,-0.03550278,-0.3689002,1.59648,-0.1661565,-0.1331213,1.643589,0.2447279,-0.1451576,1.661662,NA,NA,NotTracked,NotTracked,
0.9379883,-0.3496094,0.05273438,1.473633,0.3569336,0.04541016,0,-1,-1,-2,-1,-1,-4,-3,3,0,-4,-3,-3,2,1,-7,-5.125,-5.125,-5.125,-3.8125,-3.8125,-3.8125,2.848602,3.081269,7.687302,6.9276,2.874272,9.456374,-0.1531269,-0.4383322,1.548319,0.234822,-0.449771,1.599897,0.05095729,0.3780421,1.626083,-0.1962415,-0.4440971,1.551355,0.1982243,-0.4409764,1.557072,0.04058456,-0.06612954,1.646927,0.04405444,-0.3783833,1.633486,-0.1257862,0.120257,1.627028,-0.0347542,-0.3690947,1.597091,-0.166242,-0.1330479,1.643489,0.2436644,-0.145154,1.664041,NA,NA,NotTracked,NotTracked,
0.9428711,-0.3461914,0.06689453,1.498047,0.3637695,0.2329102,-2,-1,0,-2,-2,-1,2,-1,13,1,-2,-1,-4,-3,0,3,-3.5625,-3.5625,-3.5625,4.9375,4.9375,4.9375,2.838287,3.078892,7.689326,6.953019,2.877569,9.434515,-0.1536619,-0.4383518,1.547815,0.2354542,-0.4536767,1.597931,0.05049682,0.377809,1.625398,-0.1969681,-0.4333069,1.558095,0.1987689,-0.4339806,1.555773,0.04079934,-0.06617898,1.646927,0.04465196,-0.3783724,1.633754,-0.1260153,0.1202233,1.626735,-0.03422439,-0.3692288,1.597355,-0.1662862,-0.1333828,1.643295,0.2436714,-0.1438375,1.664623,NA,NA,NotTracked,NotTracked,
0.9296875,-0.3310547,0.09619141,0.9799805,0.1821289,0.09570313,0,0,-2,-2,-1,-1,0,-1,3,0,0,0,8,-1,-1,5,0,0,0,4.9375,4.9375,4.9375,2.839992,3.078266,7.685051,6.972949,2.872296,9.425333,-0.1533071,-0.4391618,1.549715,0.2355688,-0.4571319,1.598595,0.05013594,0.3776844,1.625127,-0.1972797,-0.4372079,1.557541,0.1977852,-0.4360314,1.555053,0.04103202,-0.06619154,1.647089,0.04509566,-0.3782898,1.634328,-0.1261487,0.120286,1.62667,-0.03375717,-0.3692617,1.597994,-0.1663587,-0.1333367,1.643367,0.2436544,-0.1443533,1.665622,NA,NA,NotTracked,NotTracked,
0.9379883,-0.3330078,0.08154297,0.9458008,0.2211914,0.01757813,-2,0,1,-1,-2,-1,1,0,4,0,-1,-1,-2,-1,0,4,4.75,4.75,4.75,-0.9375,-0.9375,-0.9375,2.856496,3.077005,7.679272,6.978182,2.868913,9.423303,-0.1536472,-0.4382499,1.548436,0.233962,-0.4568674,1.595635,0.04981481,0.3776239,1.624846,-0.1968751,-0.4392642,1.557167,0.1974453,-0.4427439,1.553542,0.04116425,-0.06620665,1.647045,0.04521002,-0.3782535,1.634409,-0.1262835,0.120335,1.626655,-0.03364342,-0.3692706,1.598101,-0.166536,-0.1333368,1.64323,0.2436407,-0.1442054,1.665925,NA,NA,NotTracked,NotTracked,
0.9326172,-0.362793,0.06347656,0.9536133,0.2045898,0.03320313,-3,0,-1,-2,0,-3,1,-2,1,0,0,-2,2,0,0,4,4.3125,4.3125,4.3125,-3.125,-3.125,-3.125,2.85476,3.075289,7.687895,6.998999,2.868163,9.389368,-0.1528548,-0.4368487,1.55047,0.2335185,-0.4566403,1.59609,0.04938323,0.3774625,1.62446,-0.1965701,-0.4452955,1.556417,0.1954591,-0.4593444,1.551818,0.04119911,-0.06621529,1.647065,0.04538494,-0.3782797,1.634542,-0.1264392,0.1203171,1.626656,-0.03345039,-0.3693603,1.598282,-0.1666147,-0.1327596,1.643525,0.2435823,-0.1437553,1.665997,NA,NA,NotTracked,NotTracked,
0.9301758,-0.3525391,0.07324219,0.9467773,0.2114258,0.05712891,-2,0,-2,0,-1,0,3,2,0,-1,-1,0,2,1,3,2,0.8125,0.8125,0.8125,-0.125,-0.125,-0.125,2.847926,3.074433,7.700373,7.002914,2.868009,9.38483,-0.1541097,-0.437696,1.552019,0.2343438,-0.4574905,1.595992,0.04912504,0.3774273,1.624283,-0.1984657,-0.4409512,1.563811,0.1972335,-0.4487737,1.554431,0.041258,-0.0662049,1.647153,0.04563028,-0.3782705,1.634916,-0.1268068,0.1203573,1.62682,-0.03321137,-0.3694502,1.598781,-0.1666974,-0.1328468,1.64377,0.2435941,-0.1434355,1.666112,NA,NA,NotTracked,NotTracked,
0.9287109,-0.3442383,0.09716797,0.9423828,0.2084961,0.04345703,0,-2,1,-1,-3,-1,-3,-1,0,1,0,0,-4,-1,-4,-4,2.1875,2.1875,2.1875,3.5,3.5,3.5,2.846629,3.076497,7.703718,7.006373,2.867711,9.38576,-0.1544515,-0.4371478,1.552068,0.2337241,-0.4564934,1.595565,0.04894245,0.3774103,1.624221,-0.1966811,-0.4509566,1.552846,0.1969239,-0.4445751,1.55393,0.04143139,-0.0661835,1.647296,0.0459202,-0.378196,1.635295,-0.1269745,0.1203862,1.626917,-0.03291921,-0.3694803,1.599309,-0.166696,-0.1328734,1.643968,0.2437114,-0.1432821,1.66616,NA,NA,NotTracked,NotTracked,
0.9282227,-0.3457031,0.08154297,0.9628906,0.2016602,0.04101563,-2,-2,0,-1,-1,1,-3,0,1,0,-1,-1,-1,-2,-1,-6,1.125,1.125,1.125,-0.5,-0.5,-0.5,2.850876,3.077515,7.701212,7.009577,2.866734,9.383432,-0.1542883,-0.4372557,1.552541,0.2333005,-0.4570901,1.595642,0.04885618,0.3773626,1.624103,-0.1969242,-0.4430259,1.557323,0.1969031,-0.4416842,1.554787,0.04147667,-0.06619467,1.647337,0.04607053,-0.3782088,1.635501,-0.1270217,0.1204324,1.62699,-0.03279631,-0.3695669,1.599607,-0.1666897,-0.1327597,1.644211,0.2437281,-0.1433622,1.666101,NA,NA,NotTracked,NotTracked,
0.9296875,-0.3466797,0.06445313,0.949707,0.2045898,0.04589844,-1,-2,-2,-1,-2,1,0,-1,-5,-6,-3,-2,-3,-2,-2,-4,2.125,2.125,2.125,-2.75,-2.75,-2.75,2.847628,3.077675,7.707863,7.016083,2.866881,9.374035,-0.1545042,-0.4373099,1.552366,0.2338273,-0.4560376,1.594904,0.04877628,0.3772159,1.623818,-0.1978918,-0.4436043,1.560749,0.1974952,-0.4282232,1.553429,0.04160163,-0.06623094,1.647334,0.04610994,-0.3781998,1.635583,-0.1270486,0.1204681,1.626969,-0.03275903,-0.3695767,1.59971,-0.1666889,-0.1325679,1.644423,0.2437983,-0.1430816,1.665834,NA,NA,NotTracked,NotTracked,
0.9296875,-0.3432617,0.07373047,0.9487305,0.2182617,0.046875,0,-2,-3,-2,-1,-2,-3,-2,2,-1,0,1,6,-1,0,-1,-1,-1,-1,-0.875,-0.875,-0.875,2.846138,3.07777,7.709927,7.02066,2.86625,9.366514,-0.1537613,-0.436838,1.551722,0.2334646,-0.4598265,1.594312,0.04875828,0.3772303,1.623778,-0.1973598,-0.4436375,1.558477,0.1963402,-0.446297,1.553137,0.04163743,-0.06623422,1.647337,0.04613344,-0.3782119,1.635606,-0.1270465,0.1205064,1.627021,-0.03273909,-0.3696142,1.599762,-0.1666195,-0.1319751,1.644748,0.2437368,-0.143461,1.665989,NA,NA,NotTracked,NotTracked,
0.9243164,-0.3417969,0.08154297,0.9477539,0.2104492,0.04833984,-1,1,-2,-1,-2,0,-3,-1,2,2,1,-1,-2,1,1,-2,0.625,0.625,0.625,-2.5625,-2.5625,-2.5625,2.845951,3.077802,7.709542,7.026462,2.866569,9.358892,-0.1538853,-0.4379721,1.551611,0.2338572,-0.4600664,1.595165,0.04874741,0.3772039,1.623792,-0.1978731,-0.4246649,1.567167,0.1964731,-0.4424636,1.552461,0.04180042,-0.06625553,1.64746,0.04629713,-0.3782341,1.635733,-0.1270505,0.120497,1.627074,-0.03258513,-0.3696747,1.599954,-0.1666554,-0.1322071,1.644854,0.2437034,-0.1435778,1.66607,NA,NA,NotTracked,NotTracked,
0.9360352,-0.3427734,0.07421875,0.9467773,0.2172852,0.05224609,-2,-1,0,-2,-3,-1,1,-1,2,2,-2,-1,-1,-2,0,-2,0.375,0.375,0.375,-1.9375,-1.9375,-1.9375,2.846786,3.078176,7.708586,7.032631,2.867536,9.351211,-0.1540714,-0.4373856,1.552324,0.2335282,-0.4599756,1.594911,0.04873579,0.3771741,1.623829,-0.1975994,-0.4439548,1.562481,0.1958061,-0.4480929,1.552331,0.04192541,-0.06628232,1.647535,0.04635613,-0.3782297,1.635829,-0.127038,0.120492,1.627113,-0.03254211,-0.3696854,1.600087,-0.1665453,-0.1315051,1.64519,0.2436288,-0.1437473,1.666226,NA,NA,NotTracked,NotTracked,
0.9355469,-0.3496094,0.07861328,0.9482422,0.2060547,0.03613281,-1,-1,-1,-2,-1,-2,-1,-2,1,-2,-1,0,-3,-9,-15,-2,0.375,0.375,0.375,-0.25,-0.25,-0.25,2.846786,3.078176,7.708586,7.036996,2.868443,9.344246,-0.1534556,-0.4373651,1.551705,0.2339663,-0.4604601,1.594949,0.04878307,0.3771962,1.623827,-0.1985366,-0.4465469,1.563883,0.1964606,-0.444738,1.552567,0.04198264,-0.06627581,1.647544,0.046439,-0.3782169,1.635878,-0.1270191,0.1204596,1.627205,-0.03247214,-0.369681,1.600142,-0.1665027,-0.131566,1.645358,0.2435949,-0.1439409,1.66636,NA,NA,NotTracked,NotTracked,
0.9335938,-0.3466797,0.08349609,0.9414063,0.206543,0.04248047,0,-3,-2,-1,-1,-1,-2,0,4,-2,0,0,-1,3,0,-2,-0.4375,-0.4375,-0.4375,0.5,0.5,0.5,2.845738,3.07816,7.711043,7.039049,2.869253,9.341686,-0.153542,-0.4366988,1.551499,0.2337903,-0.4600031,1.59407,0.04885298,0.3771933,1.623848,-0.197478,-0.4429193,1.562237,0.1961458,-0.4486617,1.552734,0.04210337,-0.06627473,1.647594,0.04654124,-0.3781755,1.636007,-0.1269947,0.1205033,1.627344,-0.03237802,-0.3696541,1.600315,-0.1664999,-0.131504,1.645346,0.2435653,-0.1439603,1.666518,NA,NA,NotTracked,NotTracked,
0.9370117,-0.3432617,0.08007813,0.9550781,0.2124023,0.05615234,0,0,-1,-1,-1,-1,1,-2,0,2,1,1,-2,-1,-4,-7,0.25,0.25,0.25,-1.8125,-1.8125,-1.8125,2.845738,3.07816,7.711043,7.044744,2.870509,9.335491,-0.1537269,-0.436956,1.552794,0.2345254,-0.4596024,1.59577,0.04893803,0.3772461,1.624007,-0.1981633,-0.4466355,1.561794,0.1972291,-0.4374753,1.553392,0.04221362,-0.06623819,1.647692,0.04659423,-0.3781302,1.636075,-0.1268597,0.1205868,1.627635,-0.0323216,-0.3696099,1.600412,-0.1664394,-0.1314947,1.645451,0.2436328,-0.1441995,1.666759,NA,NA,NotTracked,NotTracked,
0.9282227,-0.3515625,0.07568359,0.9477539,0.2211914,0.05175781,0,-2,-2,-2,0,0,-2,-2,4,-1,-4,-3,-3,-5,-10,1,1.8125,1.8125,1.8125,0.625,0.625,0.625,2.845516,3.078648,7.712275,7.044497,2.8718,9.334292,-0.1535408,-0.4379289,1.553016,0.2338712,-0.460685,1.595577,0.04906859,0.377233,1.624163,-0.1981365,-0.4468279,1.561865,0.1960584,-0.4490415,1.55226,0.04233755,-0.06626601,1.647831,0.04668429,-0.3781097,1.636244,-0.1267827,0.1206107,1.628052,-0.03224491,-0.3695943,1.600547,-0.1663173,-0.1316482,1.645711,0.243756,-0.1438801,1.667098,NA,NA,NotTracked,NotTracked,
0.9296875,-0.3447266,0.07519531,0.9511719,0.2207031,0.05126953,-1,0,-1,-1,-1,-3,2,-3,3,1,0,-1,-2,0,0,2,1.6875,1.6875,1.6875,1.6875,1.6875,1.6875,2.845359,3.079185,7.715715,7.051558,2.871387,9.330277,-0.1537393,-0.436479,1.552519,0.2337786,-0.4595881,1.593738,0.04920699,0.3771088,1.62419,-0.1983103,-0.4460035,1.564063,0.1951255,-0.4600431,1.5512,0.04237344,-0.06632861,1.647907,0.04670709,-0.3781434,1.6363,-0.12661,0.1205293,1.62819,-0.0322332,-0.3696154,1.600579,-0.1662705,-0.1316292,1.645803,0.2438191,-0.1441401,1.667197,NA,NA,NotTracked,NotTracked,
0.9355469,-0.3481445,0.07861328,0.953125,0.21875,0.05419922,-2,-1,-3,0,-1,-1,0,-1,-3,-4,-1,0,-3,-2,3,-1,1.3125,1.3125,1.3125,0.625,0.625,0.625,2.84518,3.079611,7.718604,7.056098,2.872061,9.326868,-0.1534307,-0.4372917,1.553965,0.2334034,-0.4601046,1.594576,0.04942027,0.3771771,1.624377,-0.1980496,-0.445882,1.562443,0.1938807,-0.4580695,1.550692,0.04250505,-0.06635033,1.647995,0.04676597,-0.3781633,1.636419,-0.1263864,0.1206413,1.62846,-0.03218979,-0.3696393,1.600726,-0.16612,-0.1316006,1.646243,0.2438225,-0.1442647,1.667359,NA,NA,NotTracked,NotTracked,
0.9248047,-0.3530273,0.0703125,0.9482422,0.2182617,0.05566406,-2,0,-1,-1,-1,0,-2,-2,-1,2,0,1,1,-1,1,-1,0.4375,0.4375,0.4375,0.1875,0.1875,0.1875,2.844442,3.079708,7.719915,7.057336,2.872543,9.325892,-0.1529206,-0.4374703,1.553873,0.2340791,-0.4599306,1.595565,0.0495468,0.3771234,1.624587,-0.1942503,-0.4374277,1.558526,0.195549,-0.4488412,1.551718,0.04262982,-0.06635515,1.648236,0.046826,-0.3781481,1.636594,-0.1262225,0.1206986,1.628734,-0.03213881,-0.3696104,1.600947,-0.1659279,-0.1317882,1.646551,0.2439324,-0.1443456,1.667582,NA,NA,NotTracked,NotTracked,
