ALX,ALY,ALZ,ARX,ARY,ARZ,EMG0L,EMG1L,EMG2L,EMG3L,EMG4L,EMG5L,EMG6L,EMG7L,EMG0R,EMG1R,EMG2R,EMG3R,EMG4R,EMG5R,EMG6R,EMG7R,GLX,GLY,GLZ,GRX,GRY,GRZ,ORL,OPL,OYL,ORR,OPR,OYR,LHNX,LHNY,LHNZ,RHNX,RHNY,RHNZ,HX,HY,HZ,LTX,LTY,LTZ,RTX,RTY,RTZ,SpineMidX,SpineMidY,SpineMidZ,SpineBaseX,SpineBaseY,SpineBaseZ,ShoulderLeftX,ShoulderLeftY,ShoulderLeftZ,ShoulderRightX,ShoulderRightY,ShoulderRightZ,ElbowLeftX,ElbowLeftY,ElbowLeftZ,ElbowRightX,ElbowRightY,ElbowRightZ,Myo_Pose_left,Myo_Pose_Right,Kinect_pose_left,Kinect_pose_right
0.9458008,-0.3745117,0.09326172,0.8144531,0.6220703,0.7836914,1,0,-2,-1,-1,-1,3,-2,40,22,-73,-12,-57,13,-2,6,-12.1875,-12.1875,-12.1875,82.9375,82.9375,82.9375,2.836828,3.093876,7.451703,6.333966,3.920532,0.4305867,-0.1545837,-0.4394349,1.552502,0.126216,-0.3411025,1.475871,0.05228882,0.3731621,1.621463,-0.1979286,-0.4404657,1.559882,0.1152338,-0.3107776,1.4175,0.04023274,-0.06798955,1.647604,0.03639187,-0.3782806,1.635746,-0.1247793,0.12033,1.630615,-0.04354361,-0.3669386,1.599518,-0.1661428,-0.1315426,1.647088,0.2461061,-0.1243442,1.654663,NA,NA,NotTracked,Closed,
0.9379883,-0.3681641,0.1088867,0.4536133,0.5522461,0.7260742,-2,-3,0,0,-1,0,0,0,14,-14,-23,22,-70,-22,-12,-11,-11.4375,-11.4375,-11.4375,37.375,37.375,37.375,2.843052,3.097766,7.422385,6.275178,4.43578,0.7024242,-0.1535403,-0.4381958,1.551494,0.03848987,-0.2365386,1.430582,0.05291951,0.3728323,1.622543,-0.1956713,-0.4440402,1.555112,0.04633705,-0.1959863,1.393221,0.03992298,-0.06812775,1.648257,0.03642169,-0.3783845,1.636239,-0.1247413,0.1202834,1.630921,-0.04309598,-0.3671019,1.60015,-0.1660175,-0.1304315,1.64776,0.2453766,-0.1099026,1.637273,NA,NA,NotTracked,Unknown,
0.9370117,-0.3417969,0.07910156,0.1064453,0.6171875,0.5932617,0,-2,-2,0,-2,-4,-2,-2,22,1,-26,-10,52,7,3,15,-13.3125,-13.3125,-13.3125,32.8125,32.8125,32.8125,2.844803,3.099929,7.400185,6.318117,5.115373,1.03723,-0.1529316,-0.4381447,1.550626,-0.004971623,-0.1136398,1.446339,0.05414385,0.3725591,1.623524,-0.1950935,-0.4304903,1.558,0.01016716,-0.07591857,1.414747,0.03993247,-0.06781604,1.648788,0.03717405,-0.3774824,1.636692,-0.1245066,0.1203831,1.63123,-0.04198825,-0.3663076,1.600973,-0.165651,-0.1294726,1.647761,0.2544839,-0.14933,1.56514,NA,NA,NotTracked,Unknown,
0.9267578,-0.3486328,0.04296875,-0.05957031,0.5913086,0.5869141,1,-1,-3,-1,-1,0,-1,-2,21,0,6,23,67,-16,-1,-3,-4.0625,-4.0625,-4.0625,17.625,17.625,17.625,2.827709,3.102821,7.397964,6.405382,5.487239,1.280945,-0.1524706,-0.4375794,1.550149,-0.0572788,0.002532477,1.479536,0.05566495,0.3721218,1.624863,-0.1955076,-0.4412243,1.555818,-0.0515081,0.04915908,1.5104,0.04041682,-0.06768867,1.649532,0.03816754,-0.3771602,1.637013,-0.1191815,0.1195268,1.626445,-0.04081694,-0.3662232,1.601485,-0.1655463,-0.1297739,1.647526,0.2256716,-0.104224,1.573202,NA,NA,NotTracked,Unknown,
0.9257813,-0.3442383,0.04736328,-0.2597656,0.6035156,0.4614258,-1,0,-1,0,-1,-1,-1,1,-31,-13,-2,5,-54,-3,0,-8,0.25,0.25,0.25,24.875,24.875,24.875,2.806682,3.101086,7.418548,6.507465,5.676884,1.458049,-0.1527994,-0.4378546,1.551701,-0.05141451,0.04328684,1.507033,0.05794658,0.3722549,1.62638,-0.1953495,-0.4429452,1.554831,-0.03717817,0.08158162,1.48425,0.04080871,-0.0677787,1.65005,0.03875528,-0.3774377,1.637202,-0.1157947,0.1185372,1.623048,-0.04012388,-0.3667131,1.602008,-0.165196,-0.1300407,1.64785,0.2201907,-0.1030219,1.560422,NA,NA,NotTracked,Unknown,
0.9267578,-0.3583984,0.06152344,-0.2890625,0.6342773,0.5493164,-2,-2,-2,-2,-1,1,0,0,11,18,2,-5,48,1,-1,-22,8.4375,8.4375,8.4375,-1.8125,-1.8125,-1.8125,2.790259,3.100579,7.449407,6.532897,5.70198,1.516773,-0.153268,-0.4382105,1.552582,-0.04721207,0.04954965,1.513013,0.05953934,0.3719765,1.627647,-0.1966108,-0.4588722,1.550444,-0.0303486,0.09176872,1.489628,0.0411862,-0.06805512,1.650714,0.03897294,-0.3778709,1.637358,-0.1116106,0.1174062,1.61885,-0.03992578,-0.3672652,1.602481,-0.1649499,-0.1303561,1.648384,0.2164393,-0.101178,1.553109,NA,NA,NotTracked,Unknown,
0.9204102,-0.3701172,0.08154297,-0.3442383,0.7348633,0.628418,-1,-1,-2,-1,-3,-2,-2,-1,-3,-8,1,-19,-94,-10,3,9,6.75,6.75,6.75,-8.4375,-8.4375,-8.4375,2.791814,3.102125,7.461903,6.51726,5.700719,1.49638,-0.1537625,-0.4383742,1.554333,-0.04775618,0.05447672,1.507954,0.06062412,0.3719189,1.628349,-0.1967885,-0.4368933,1.556087,-0.02863785,0.09554935,1.484526,0.04147647,-0.06814847,1.65103,0.0390507,-0.377996,1.637403,-0.1105681,0.117166,1.617894,-0.03984983,-0.3674827,1.602806,-0.1647417,-0.130308,1.649132,0.2137066,-0.09924148,1.548091,NA,NA,NotTracked,Unknown,
0.9174805,-0.3842773,0.07861328,-0.3769531,0.8032227,0.6972656,0,1,0,-2,-2,-1,0,-2,15,18,15,40,-128,-2,3,-15,5.3125,5.3125,5.3125,1.25,1.25,1.25,2.796941,3.105053,7.466506,6.50542,5.715466,1.499062,-0.1540117,-0.4384825,1.55383,-0.05018941,0.06248163,1.508048,0.06099178,0.3718161,1.628918,-0.1997117,-0.4456066,1.563805,-0.03940594,0.1087729,1.486735,0.04159063,-0.06828135,1.651362,0.03909262,-0.3781873,1.637469,-0.1087435,0.1166849,1.61597,-0.03982593,-0.3677766,1.603151,-0.1646221,-0.1310717,1.650072,0.211791,-0.09867185,1.545439,NA,NA,NotTracked,Unknown,
0.921875,-0.3974609,0.07128906,-0.3759766,0.7138672,0.5366211,-1,-1,-1,-1,-3,0,-2,-5,2,-13,-8,-7,-23,-25,-2,5,-4.125,-4.125,-4.125,22.0625,22.0625,22.0625,2.800689,3.106145,7.464321,6.58379,5.762768,1.659145,-0.1539205,-0.4380586,1.554076,-0.04406254,0.06100807,1.534666,0.06120086,0.371792,1.629065,-0.1990437,-0.4503256,1.560242,-0.0185354,0.1034759,1.513974,0.04167448,-0.06841148,1.651508,0.03906539,-0.3785226,1.637554,-0.108447,0.1166393,1.615819,-0.03992842,-0.3681856,1.603529,-0.1646443,-0.1314386,1.650523,0.2099105,-0.09862401,1.542741,NA,NA,NotTracked,NotTracked,
0.9018555,-0.3808594,0.06347656,-0.4428711,0.7275391,0.5825195,-2,-1,-1,1,-1,0,1,-1,-72,-26,-1,-10,-37,7,5,3,-9.9375,-9.9375,-9.9375,15.875,15.875,15.875,2.79706,3.105415,7.455866,6.615316,5.769751,1.677003,-0.1546547,-0.4386534,1.554038,-0.04169026,0.06212692,1.5347,0.06127269,0.3717374,1.629124,-0.1990344,-0.4473283,1.560227,-0.01510423,0.1038733,1.513844,0.04176368,-0.06845067,1.651598,0.03910862,-0.3785882,1.637554,-0.1092976,0.1171245,1.618845,-0.03992087,-0.3682708,1.60358,-0.1646478,-0.1315566,1.650645,0.2096777,-0.0978632,1.541062,NA,NA,NotTracked,NotTracked,
0.9375,-0.3359375,0.1191406,-0.6923828,0.6049805,0.4985352,-1,-1,-2,0,-2,-3,-3,-1,47,12,6,-7,-48,-1,1,-3,-16.25,-16.25,-16.25,-25.25,-25.25,-25.25,2.801251,3.112065,7.443915,6.536567,5.754429,1.614931,-0.1549451,-0.4368642,1.553805,-0.05082276,0.07138241,1.52625,0.06133965,0.3717101,1.629361,-0.2008494,-0.4396406,1.564889,-0.04602423,0.1201559,1.512286,0.04172146,-0.06849888,1.651715,0.03910274,-0.3786418,1.637569,-0.1090367,0.1170582,1.618488,-0.03993475,-0.3683325,1.603629,-0.16465,-0.1311393,1.650911,0.2096275,-0.09740095,1.539411,NA,NA,NotTracked,NotTracked,
0.9604492,-0.2734375,0.06054688,-0.1625977,0.9853516,0.9033203,0,-1,-1,1,0,0,0,-1,0,-2,-14,-31,0,-4,22,11,22.8125,22.8125,22.8125,-16.875,-16.875,-16.875,2.821834,3.109282,7.44435,6.460426,5.6886,1.47029,-0.1541079,-0.4364702,1.553887,-0.05300403,0.06247964,1.50655,0.0613314,0.3716554,1.629593,-0.19757,-0.4448366,1.555274,-0.05196325,0.108349,1.487769,0.04176885,-0.06859251,1.651928,0.03909884,-0.3787809,1.637673,-0.1094582,0.1164892,1.618281,-0.03998628,-0.3685193,1.603865,-0.1646491,-0.1309093,1.651184,0.2091482,-0.09743322,1.539266,NA,NA,NotTracked,Unknown,
0.9272461,-0.4711914,0.07177734,-0.355957,0.7407227,0.5654297,1,-2,-1,2,0,-2,0,1,27,14,5,64,27,22,2,-7,-2.375,-2.375,-2.375,49.75,49.75,49.75,2.800341,3.112037,7.43893,6.529037,5.741062,1.58978,-0.1540022,-0.4359254,1.554119,-0.05070617,0.06510224,1.525741,0.06137014,0.3717241,1.629732,-0.1974109,-0.4422708,1.557867,-0.03564883,0.1103966,1.50868,0.04183476,-0.06863121,1.652005,0.03912033,-0.3789044,1.637709,-0.1086245,0.1162931,1.616922,-0.03997482,-0.3686448,1.603987,-0.1646735,-0.1306847,1.651326,0.2079946,-0.09807568,1.539066,NA,NA,NotTracked,NotTracked,
0.9013672,-0.3232422,0.02880859,-0.09228516,0.6108398,0.628418,-2,-1,-1,-3,-3,-3,-1,-4,36,4,-2,21,15,3,-5,-21,-8.875,-8.875,-8.875,-4.25,-4.25,-4.25,2.8049,3.103831,7.434813,6.553677,5.738872,1.634103,-0.1545482,-0.4356817,1.554222,-0.04879083,0.06334426,1.537714,0.06143413,0.3716908,1.629709,-0.1984565,-0.444558,1.558685,-0.02940907,0.1083723,1.517563,0.04186486,-0.06868511,1.652046,0.03913797,-0.3791036,1.637732,-0.1085775,0.1163329,1.616917,-0.04000363,-0.3689011,1.604146,-0.1646828,-0.1306805,1.651375,0.2080239,-0.09802818,1.539095,NA,NA,NotTracked,NotTracked,
0.9272461,-0.2763672,0.05371094,-0.5400391,0.6074219,0.5385742,-2,0,0,0,-2,-2,0,-1,35,12,2,0,85,19,1,26,5.375,5.375,5.375,-6.0625,-6.0625,-6.0625,2.798412,3.113175,7.428385,6.547204,5.740035,1.659052,-0.1561377,-0.4355367,1.553065,-0.04808933,0.06325314,1.536358,0.0614568,0.3716789,1.629712,-0.1990482,-0.4410103,1.558612,-0.02566328,0.1027552,1.515759,0.04191676,-0.06873404,1.652082,0.03916422,-0.3792198,1.637751,-0.1085505,0.1163448,1.616913,-0.03999424,-0.369068,1.604243,-0.164709,-0.1305705,1.65137,0.208567,-0.09797112,1.538649,NA,NA,NotTracked,NotTracked,
0.9555664,-0.2773438,0.06982422,-0.4453125,0.7646484,0.5083008,-1,-1,0,-2,-2,-3,-2,-2,16,13,4,11,-26,-13,-4,10,24.625,24.625,24.625,-9.5,-9.5,-9.5,2.805354,3.104571,7.431845,6.535298,5.748003,1.645696,-0.1553793,-0.435921,1.554142,-0.0486872,0.06348705,1.535375,0.06152777,0.3717523,1.629659,-0.1993865,-0.4401517,1.560421,-0.03229365,0.1120281,1.519834,0.04194431,-0.0687469,1.652079,0.03913916,-0.379273,1.637761,-0.1084948,0.1164157,1.616858,-0.04003544,-0.3691078,1.604267,-0.1647865,-0.1306178,1.651355,0.2090054,-0.09787726,1.538443,NA,NA,NotTracked,NotTracked,
0.9018555,-0.4526367,0.05322266,-0.4711914,0.7670898,0.5385742,-2,-1,-2,-1,-1,0,-2,-1,-28,1,4,14,-6,-7,-4,-8,-20.3125,-20.3125,-20.3125,-10.5,-10.5,-10.5,2.776651,3.0979,7.437881,6.502984,5.750906,1.634751,-0.1546397,-0.4355192,1.555733,-0.04875088,0.06367171,1.536153,0.06167313,0.3717513,1.629663,-0.1987518,-0.4412566,1.559364,-0.0299532,0.1076876,1.51594,0.04202765,-0.06878951,1.652126,0.03912824,-0.3793413,1.637831,-0.108449,0.1164926,1.61684,-0.04007512,-0.3691926,1.604476,-0.1648966,-0.1306413,1.65144,0.2090652,-0.09789175,1.538493,NA,NA,NotTracked,NotTracked,
0.9140625,-0.3120117,0.05078125,-0.4697266,0.7397461,0.5522461,-1,-2,-2,-2,0,-2,-4,-3,3,-11,-6,2,-34,-6,0,-13,10.1875,10.1875,10.1875,0.3125,0.3125,0.3125,2.794294,3.103614,7.437841,6.49941,5.750453,1.638038,-0.1551804,-0.4351879,1.55419,-0.0487896,0.06292111,1.535008,0.06179415,0.3718577,1.629573,-0.198587,-0.4397618,1.558827,-0.03112977,0.1074551,1.515809,0.04211903,-0.06880718,1.65211,0.03916255,-0.3793984,1.63784,-0.1084289,0.1165267,1.616831,-0.0400332,-0.3692724,1.604589,-0.1649462,-0.1305844,1.651334,0.2091251,-0.09780312,1.538436,NA,NA,NotTracked,NotTracked,
0.9243164,-0.3632813,0.07666016,-0.4624023,0.7275391,0.5419922,0,-2,-1,-1,-2,-3,-3,-2,-9,-17,-14,5,-2,0,0,-10,2.0625,2.0625,2.0625,-1,-1,-1,2.782877,3.103389,7.437615,6.500418,5.748219,1.641026,-0.155727,-0.4359017,1.554252,-0.04918307,0.06222212,1.534985,0.06189762,0.3718475,1.629503,-0.1992405,-0.4408321,1.559723,-0.03009977,0.1066647,1.514837,0.04216053,-0.06886338,1.65208,0.03912595,-0.3795084,1.637827,-0.1084027,0.1165711,1.61682,-0.04009151,-0.3693597,1.604606,-0.1649583,-0.1305364,1.65138,0.2091861,-0.09780679,1.538367,NA,NA,NotTracked,NotTracked,
0.9165039,-0.355957,0.07128906,-0.465332,0.7265625,0.5673828,-1,-1,-1,0,-1,2,-1,0,24,7,2,9,-2,-6,-3,-1,0.75,0.75,0.75,-1.8125,-1.8125,-1.8125,2.790613,3.102194,7.434771,6.493824,5.747541,1.63676,-0.1547053,-0.435414,1.554576,-0.04889878,0.06373505,1.534888,0.06195082,0.3718684,1.629515,-0.198769,-0.4398355,1.559089,-0.03074142,0.1074691,1.515812,0.04219766,-0.06888555,1.65209,0.03910805,-0.379557,1.637836,-0.1083801,0.1165969,1.61682,-0.04012167,-0.3693976,1.60464,-0.1649523,-0.1305186,1.651418,0.2092542,-0.09782824,1.538324,NA,NA,NotTracked,NotTracked,
0.9194336,-0.3789063,0.05566406,-0.456543,0.7387695,0.5405273,-1,-1,2,1,-3,-4,-3,-1,-56,-21,-10,-28,-54,-11,-6,-6,0.0625,0.0625,0.0625,-1.9375,-1.9375,-1.9375,2.79012,3.10204,7.435261,6.492272,5.745641,1.637149,-0.1549935,-0.4358833,1.554999,-0.04878673,0.06307167,1.534988,0.06195023,0.3718335,1.629443,-0.1967967,-0.4387368,1.553065,-0.03295709,0.1127905,1.520827,0.04222092,-0.06890927,1.652085,0.03912036,-0.3796,1.637839,-0.1083769,0.1166082,1.616826,-0.04012173,-0.3694283,1.604662,-0.1649356,-0.1305712,1.651479,0.2093809,-0.09772928,1.538298,NA,NA,NotTracked,NotTracked,
0.9179688,-0.3730469,0.07373047,-0.465332,0.7353516,0.546875,-2,1,-2,-1,-1,-1,0,-2,20,6,3,-8,-41,6,-2,5,-2,-2,-2,0.625,0.625,0.625,2.789029,3.103161,7.434125,6.493487,5.744066,1.638261,-0.1542689,-0.4378065,1.553233,-0.04935082,0.06234639,1.534834,0.06177362,0.371773,1.62916,-0.1989413,-0.4431755,1.558429,-0.03178985,0.1084798,1.51692,0.04224368,-0.06893051,1.652064,0.0391195,-0.3796324,1.637889,-0.1083681,0.1166521,1.616832,-0.04014366,-0.3694682,1.604796,-0.1649183,-0.1307634,1.651633,0.2095452,-0.09768087,1.538346,NA,NA,NotTracked,NotTracked,
0.9331055,-0.3544922,0.07861328,-0.4599609,0.7285156,0.5527344,-1,-1,-1,-2,0,-3,-3,0,-13,-3,-8,-6,41,3,-3,-3,-1.5,-1.5,-1.5,0.9375,0.9375,0.9375,2.793511,3.102731,7.428655,6.493336,5.743439,1.637246,-0.1540632,-0.4381068,1.553846,-0.04895537,0.06227365,1.53568,0.06168269,0.3717106,1.629113,-0.1986474,-0.4434184,1.557791,-0.02918647,0.1066107,1.517749,0.0423028,-0.06899403,1.652081,0.03909495,-0.3796947,1.637979,-0.1083657,0.1166647,1.616846,-0.04018325,-0.3695328,1.60499,-0.164914,-0.1307567,1.651715,0.2096499,-0.09755369,1.538417,NA,NA,NotTracked,NotTracked,
0.9194336,-0.3676758,0.06494141,-0.4570313,0.7373047,0.5483398,-2,1,-1,-1,-1,-1,-2,1,6,3,-2,6,-72,-31,-2,4,-2.5625,-2.5625,-2.5625,-0.4375,-0.4375,-0.4375,2.794649,3.101844,7.422459,6.489894,5.74498,1.630576,-0.1534596,-0.4376354,1.553464,-0.0490542,0.06320602,1.535093,0.06154184,0.3716266,1.629064,-0.1966931,-0.4437267,1.554383,-0.03138542,0.1089701,1.517643,0.04229531,-0.06902172,1.652114,0.03909725,-0.3797344,1.637978,-0.1083627,0.1166646,1.616851,-0.04019544,-0.3695832,1.605031,-0.1649296,-0.1306217,1.65171,0.2097347,-0.09751649,1.538368,NA,NA,NotTracked,NotTracked,
0.9287109,-0.3588867,0.06347656,-0.4663086,0.7333984,0.5405273,0,-1,1,0,-1,0,1,-1,-25,-5,0,10,59,10,-4,-11,-2.4375,-2.4375,-2.4375,1.9375,1.9375,1.9375,2.7943,3.102008,7.420705,6.487649,5.74792,1.623782,-0.1542027,-0.4386352,1.554506,-0.04875471,0.06224573,1.535376,0.06143208,0.3715846,1.629019,-0.1978873,-0.4562563,1.558583,-0.03353521,0.1088278,1.517559,0.04229325,-0.06905749,1.652149,0.03912562,-0.3798064,1.638022,-0.1083586,0.1166673,1.616851,-0.0401829,-0.3696446,1.605087,-0.1649172,-0.1306672,1.651808,0.2099194,-0.09745961,1.538505,NA,NA,NotTracked,NotTracked,
0.9277344,-0.3652344,0.07177734,-0.4711914,0.7290039,0.5415039,0,1,0,-2,-2,-2,0,1,-6,-2,1,-3,36,2,4,-2,-1.625,-1.625,-1.625,-0.6875,-0.6875,-0.6875,2.792903,3.101671,7.417893,6.484502,5.750721,1.616979,-0.1536995,-0.4378545,1.554953,-0.03527526,0.04454042,1.533733,0.06134434,0.3715621,1.62908,-0.1986886,-0.4567217,1.556625,-0.008276706,0.09586443,1.513146,0.04226557,-0.0690703,1.652281,0.03912345,-0.3798341,1.638174,-0.1083552,0.1166864,1.616871,-0.040207,-0.3696707,1.605319,-0.1649004,-0.1304341,1.651876,0.2100377,-0.09747287,1.538738,NA,NA,NotTracked,NotTracked,
0.9287109,-0.3618164,0.06982422,-0.4819336,0.7250977,0.5566406,-2,1,-1,-2,-1,-2,-1,-2,12,9,0,4,3,5,-4,-1,-3,-3,-3,-0.1875,-0.1875,-0.1875,2.792876,3.100125,7.414537,6.481032,5.75194,1.611746,-0.1537695,-0.4382597,1.555043,-0.03534261,0.04436876,1.53331,0.06127942,0.3715,1.628996,-0.1974841,-0.4431091,1.558252,0.0012289,0.09110934,1.510367,0.04226156,-0.06909787,1.652325,0.0391374,-0.379891,1.638263,-0.1083551,0.1166873,1.61687,-0.0402122,-0.3697048,1.605409,-0.1648911,-0.1304173,1.651865,0.2102723,-0.09740518,1.538893,NA,NA,NotTracked,NotTracked,
0.9301758,-0.3652344,0.07324219,-0.4516602,0.7089844,0.546875,-2,-1,-1,-1,0,-1,-3,-3,14,10,5,-1,-8,0,5,4,-1.3125,-1.3125,-1.3125,-2.375,-2.375,-2.375,2.794154,3.09981,7.411153,6.471726,5.753574,1.599761,-0.1535891,-0.4385757,1.554021,-0.03548801,0.0445917,1.53263,0.06116175,0.3713472,1.628893,-0.1991165,-0.4583369,1.561143,-0.007807247,0.09463129,1.511867,0.04231498,-0.06918144,1.652322,0.03921873,-0.379953,1.638284,-0.1083676,0.1166777,1.616861,-0.04016915,-0.3697633,1.60543,-0.1648813,-0.1303649,1.651733,0.2103301,-0.09743402,1.53895,NA,NA,NotTracked,NotTracked,
0.9262695,-0.3603516,0.06689453,-0.3989258,0.6928711,0.5566406,-2,0,0,-2,0,-1,2,-1,-26,-11,-2,-3,-16,-3,-4,-4,-0.3125,-0.3125,-0.3125,2.375,2.375,2.375,2.795027,3.099333,7.409432,6.456014,5.758968,1.570687,-0.1530131,-0.4379231,1.55383,-0.03482945,0.04482336,1.53013,0.06108954,0.3713002,1.628762,-0.199505,-0.4610778,1.5614,-0.006808834,0.09473537,1.510995,0.04237603,-0.0691955,1.652336,0.03924713,-0.3799669,1.638299,-0.1105743,0.1165766,1.619532,-0.04015033,-0.3697771,1.605425,-0.164757,-0.1301458,1.651891,0.2105019,-0.09754544,1.539305,NA,NA,NotTracked,NotTracked,
0.934082,-0.3554688,0.06982422,-0.3852539,0.6494141,0.4868164,-1,0,-1,-1,-1,0,0,1,7,-1,-2,3,-3,-6,-9,-1,4.0625,4.0625,4.0625,-5.4375,-5.4375,-5.4375,2.801123,3.100392,7.408675,6.422622,5.743046,1.506413,-0.1529148,-0.4379682,1.553971,-0.03915299,0.03465241,1.523414,0.06099042,0.3712961,1.628685,-0.1982556,-0.4532225,1.559487,-0.01184385,0.08664346,1.493111,0.04237295,-0.06919874,1.65234,0.03933296,-0.3799841,1.638343,-0.10995,0.1165692,1.618739,-0.0400764,-0.3697906,1.605428,-0.164774,-0.1300476,1.651944,0.2110675,-0.09762542,1.540547,NA,NA,NotTracked,Unknown,
0.925293,-0.3510742,0.06103516,-0.2978516,0.6635742,0.4990234,-1,-2,-2,-2,-2,-1,-4,-4,-1,-3,-2,2,-3,-12,-3,0,6,6,6,14.5625,14.5625,14.5625,2.80754,3.100819,7.410535,6.379586,5.615235,1.362919,-0.153374,-0.4377818,1.554185,-0.0474034,0.03761557,1.490443,0.06079399,0.3712798,1.628612,-0.1977163,-0.4436285,1.560436,-0.03878675,0.07494219,1.460486,0.0423435,-0.06915879,1.652343,0.03935998,-0.3798704,1.638338,-0.11079,0.1163855,1.619063,-0.04003049,-0.3696541,1.605476,-0.1647277,-0.1300718,1.65187,0.2132801,-0.09896065,1.54459,NA,NA,NotTracked,Unknown,
0.9228516,-0.3579102,0.05615234,-0.09326172,0.6308594,0.5893555,-2,-1,-1,-1,-3,-1,-1,-2,17,7,-2,-2,0,25,8,-2,7,7,7,30.3125,30.3125,30.3125,2.810493,3.100041,7.419068,6.341024,5.272274,1.082522,-0.1533581,-0.4382514,1.554989,-0.0556018,-0.01615256,1.444897,0.06027344,0.371289,1.628515,-0.1977569,-0.4469483,1.560529,-0.04528127,-0.02837603,1.405873,0.04221881,-0.06888273,1.652308,0.03952181,-0.3789461,1.638293,-0.1109679,0.116657,1.619282,-0.03972956,-0.3687871,1.605478,-0.1646717,-0.1301214,1.651972,0.2182657,-0.1016746,1.554855,NA,NA,NotTracked,Unknown,
0.9306641,-0.3730469,0.06591797,0.07714844,0.7670898,0.5737305,0,0,0,0,-1,-1,-1,0,22,7,4,1,-7,-13,-6,-3,4.125,4.125,4.125,-10.5,-10.5,-10.5,2.810934,3.100204,7.427184,6.343885,4.902313,0.8879493,-0.1537641,-0.4393144,1.555052,0.00257228,-0.117029,1.411465,0.05930322,0.3713712,1.628582,-0.1973558,-0.4485514,1.556147,-0.002568213,-0.1384269,1.380185,0.04187792,-0.06824746,1.652372,0.03939281,-0.37709,1.63846,-0.1199027,0.1201653,1.632537,-0.03958664,-0.3669901,1.605452,-0.1646431,-0.1298323,1.652354,0.2320673,-0.10146,1.574339,NA,NA,NotTracked,Unknown,
0.9228516,-0.3720703,0.08300781,0.4482422,0.7158203,0.6464844,0,-1,-1,-2,1,-2,-3,-5,12,0,-4,2,-18,-26,-6,3,5.75,5.75,5.75,25.1875,25.1875,25.1875,2.819643,3.103298,7.429461,6.396275,4.345534,0.6530019,-0.1544612,-0.4392567,1.555878,0.03371248,-0.2179115,1.391456,0.05797913,0.3716644,1.628987,-0.1976332,-0.4451203,1.558567,0.002832032,-0.1894823,1.4716,0.04150077,-0.06823838,1.652451,0.03898075,-0.3772358,1.638558,-0.118052,0.1194588,1.62998,-0.03999167,-0.3670289,1.605441,-0.1648377,-0.1296692,1.6528,0.2473206,-0.1461306,1.544783,NA,NA,NotTracked,Unknown,
0.9394531,-0.375,0.08300781,0.5297852,0.6962891,0.6181641,-1,-1,-1,-2,0,-3,2,-1,25,4,-3,-2,-6,-2,14,6,2.8125,2.8125,2.8125,-22.25,-22.25,-22.25,2.823913,3.104582,7.431387,6.475258,3.933282,0.5046883,-0.1555496,-0.439379,1.555905,0.07923916,-0.3259972,1.396945,0.05627806,0.3720697,1.629203,-0.1988183,-0.4462168,1.560767,0.04640326,-0.3480823,1.448231,0.04044048,-0.06839143,1.652537,0.03664675,-0.378028,1.639087,-0.121459,0.1197411,1.633411,-0.04211874,-0.367166,1.605747,-0.1652192,-0.1290926,1.653048,0.2207485,-0.1644519,1.585464,NA,NA,NotTracked,Unknown,
0.9140625,-0.3691406,0.07910156,0.8056641,0.4643555,0.5771484,0,0,0,-3,-2,-2,-3,-2,-23,-2,0,0,-2,4,0,4,-0.5,-0.5,-0.5,14.375,14.375,14.375,2.825155,3.103774,7.431676,6.60706,3.57009,0.3023622,-0.1558947,-0.4396015,1.555101,0.1432409,-0.3905056,1.429412,0.05491298,0.3723656,1.629073,-0.1995204,-0.4405952,1.560956,0.1744086,-0.4101366,1.447953,0.03741997,-0.06851395,1.65192,0.0311979,-0.3789724,1.637836,-0.1231983,0.1198631,1.63457,-0.04886477,-0.3661378,1.603565,-0.1657367,-0.1294398,1.65304,0.2557089,-0.1704421,1.593921,NA,NA,NotTracked,Closed,
0.9311523,-0.3632813,0.09228516,1.054688,0.4506836,0.215332,-3,0,-1,-1,-2,-2,-1,-1,-1,-5,-4,1,13,16,7,1,-1.875,-1.875,-1.875,-54,-54,-54,2.821468,3.102466,7.43071,6.963972,3.204854,9.836032,-0.1566438,-0.4372772,1.555429,0.2045438,-0.4211935,1.477978,0.05367728,0.3727215,1.629155,-0.2001804,-0.4260174,1.56072,0.2403452,-0.3871561,1.477571,0.03716521,-0.06851865,1.65177,0.03144047,-0.3791247,1.637636,-0.1245387,0.1199321,1.63544,-0.04840278,-0.3664914,1.603028,-0.1661817,-0.1297133,1.652849,0.2481417,-0.1362929,1.62193,NA,NA,NotTracked,Closed,
0.9360352,-0.3432617,0.07568359,1.122559,0.4125977,-0.03710938,0,0,-1,-2,-2,-1,1,-1,-13,-9,-5,-5,3,5,-4,3,-1.75,-1.75,-1.75,-50,-50,-50,2.823369,3.099511,7.428065,7.237187,3.059686,9.452413,-0.1566245,-0.4373926,1.555428,0.2322097,-0.4675063,1.50497,0.05294655,0.3729951,1.628813,-0.2000848,-0.4387514,1.560421,0.2683906,-0.4667247,1.519444,0.03750207,-0.06869027,1.651404,0.03415085,-0.3798311,1.637375,-0.1251788,0.1199892,1.635497,-0.04473725,-0.3681138,1.602217,-0.1669134,-0.1313752,1.652225,0.2447682,-0.1493241,1.625764,NA,NA,NotTracked,Closed,
0.9169922,-0.3530273,0.05810547,0.9428711,0.2919922,0.2397461,-1,-2,-1,-3,0,-1,-1,-2,-6,0,0,-1,-4,-7,-1,6,0.4375,0.4375,0.4375,-35.6875,-35.6875,-35.6875,2.822634,3.095216,7.426209,7.258795,2.991552,9.335791,-0.1570279,-0.4374021,1.554469,0.2413668,-0.474347,1.530141,0.05243874,0.3732353,1.628351,-0.2023774,-0.4642498,1.56075,0.2745683,-0.4646638,1.536214,0.03768272,-0.06878863,1.6512,0.03573235,-0.38034,1.637356,-0.1254829,0.1200535,1.635418,-0.04296146,-0.3689852,1.601842,-0.1673162,-0.1316454,1.651847,0.2436411,-0.1528492,1.632994,NA,NA,NotTracked,NotTracked,
0.9145508,-0.359375,0.07128906,0.8769531,0.375,0.1342773,-1,-2,-2,0,1,-1,-2,-3,9,9,2,1,-5,-22,-6,-12,-4.375,-4.375,-4.375,-8.125,-8.125,-8.125,2.818063,3.089755,7.428037,7.206295,2.940633,9.380487,-0.157471,-0.4376911,1.555551,0.235777,-0.4725027,1.556031,0.0520272,0.3735351,1.627855,-0.2010694,-0.4507821,1.560242,0.2649322,-0.4778445,1.544559,0.03789764,-0.06877291,1.650993,0.03695479,-0.3803712,1.637452,-0.1258064,0.1200686,1.635233,-0.0417372,-0.369235,1.601792,-0.1677613,-0.1321209,1.65128,0.2432296,-0.1521684,1.642208,NA,NA,NotTracked,NotTracked,
0.9448242,-0.3505859,0.09570313,0.949707,0.2832031,0.1396484,-1,-1,-2,-3,-2,-4,-1,0,-29,-3,-2,1,-1,-9,-5,1,-0.8125,-0.8125,-0.8125,-3.75,-3.75,-3.75,2.816878,3.084977,7.423827,7.090548,2.915388,9.484989,-0.1568106,-0.4374906,1.555416,0.226546,-0.47463,1.567922,0.05141893,0.3736417,1.627015,-0.200823,-0.4415447,1.562171,0.2657548,-0.4484099,1.5815,0.03829797,-0.06875911,1.650732,0.03871259,-0.3803899,1.637693,-0.1262163,0.1201109,1.634708,-0.04001448,-0.3696486,1.602012,-0.1684242,-0.1332002,1.650261,0.241182,-0.1511864,1.649767,NA,NA,NotTracked,NotTracked,
0.9365234,-0.3432617,0.0703125,0.9003906,0.3603516,-0.1137695,-1,-1,-3,-1,-1,-2,1,-1,28,1,1,-3,1,4,2,1,1.375,1.375,1.375,35.875,35.875,35.875,2.829604,3.083776,7.412064,7.308231,2.941499,9.31183,-0.1560944,-0.4378839,1.554687,0.2174481,-0.4718466,1.572124,0.05101169,0.3735013,1.626409,-0.2006163,-0.4523469,1.563333,0.2528216,-0.449313,1.587667,0.03858373,-0.06871065,1.650591,0.03986617,-0.3800749,1.6379,-0.1265018,0.1200137,1.634119,-0.03902856,-0.369651,1.602057,-0.168502,-0.1333617,1.64988,0.238265,-0.1499096,1.655771,NA,NA,NotTracked,NotTracked,
0.9282227,-0.340332,0.05566406,0.9741211,0.2988281,-0.05175781,-1,-1,-2,0,-1,-3,-1,-2,16,5,1,1,0,8,3,-1,-0.3125,-0.3125,-0.3125,-59.875,-59.875,-59.875,2.836448,3.080117,7.405731,7.297171,2.945368,9.256337,-0.1553285,-0.4375199,1.554306,0.216874,-0.4732785,1.571594,0.05078746,0.3736896,1.625938,-0.1963226,-0.4446973,1.556855,0.2504067,-0.461355,1.584286,0.03884802,-0.0686064,1.65042,0.04078432,-0.3798591,1.638074,-0.1265845,0.1199963,1.633589,-0.03821899,-0.3697242,1.602192,-0.1684529,-0.1325088,1.648803,0.2367121,-0.1486477,1.658558,NA,NA,NotTracked,NotTracked,
0.9370117,-0.3642578,0.05664063,0.9072266,0.2280273,0.2119141,-2,-1,-3,-1,-1,-1,-1,-2,-17,-6,-5,-2,-4,-4,-5,-11,0.125,0.125,0.125,24.9375,24.9375,24.9375,2.824039,3.076534,7.417669,7.070477,2.942552,9.463118,-0.1556853,-0.4380217,1.554947,0.2190933,-0.4701912,1.572252,0.05056846,0.3736275,1.625633,-0.1995567,-0.4563227,1.562444,0.2560453,-0.4525231,1.588931,0.03924922,-0.06855813,1.650333,0.04189208,-0.3796511,1.638282,-0.1266808,0.120024,1.633247,-0.03716151,-0.3697746,1.60233,-0.1683446,-0.1327686,1.648568,0.2372854,-0.1470881,1.660551,NA,NA,NotTracked,NotTracked,
0.9306641,-0.3388672,0.07861328,0.9160156,0.3071289,0.002929688,0,-2,-2,0,-2,-2,-2,0,26,11,3,1,1,-5,-5,-2,1.8125,1.8125,1.8125,10.8125,10.8125,10.8125,2.817273,3.075796,7.427505,7.062916,2.941771,9.497827,-0.1554782,-0.4379808,1.554445,0.2229547,-0.4404944,1.578976,0.05039209,0.3736284,1.625528,-0.2008747,-0.4572122,1.565429,0.2565955,-0.4392509,1.587734,0.03940726,-0.06848537,1.650309,0.04228597,-0.3795067,1.638305,-0.1267024,0.1200368,1.633029,-0.03680454,-0.369727,1.602291,-0.1681532,-0.1331087,1.648297,0.2374456,-0.1464411,1.661556,NA,NA,NotTracked,NotTracked,
