ALX,ALY,ALZ,ARX,ARY,ARZ,EMG0L,EMG1L,EMG2L,EMG3L,EMG4L,EMG5L,EMG6L,EMG7L,EMG0R,EMG1R,EMG2R,EMG3R,EMG4R,EMG5R,EMG6R,EMG7R,GLX,GLY,GLZ,GRX,GRY,GRZ,ORL,OPL,OYL,ORR,OPR,OYR,LHNX,LHNY,LHNZ,RHNX,RHNY,RHNZ,HX,HY,HZ,LTX,LTY,LTZ,RTX,RTY,RTZ,SpineMidX,SpineMidY,SpineMidZ,SpineBaseX,SpineBaseY,SpineBaseZ,ShoulderLeftX,ShoulderLeftY,ShoulderLeftZ,ShoulderRightX,ShoulderRightY,ShoulderRightZ,ElbowLeftX,ElbowLeftY,ElbowLeftZ,ElbowRightX,ElbowRightY,ElbowRightZ,Myo_Pose_left,Myo_Pose_Right,Kinect_pose_left,Kinect_pose_right
0.9570313,-0.3530273,0.1181641,0.4580078,0.6411133,0.6948242,-1,-3,-1,-1,-2,-2,-2,-3,-28,-33,-62,-37,9,0,0,-4,-16.5625,-16.5625,-16.5625,36.3125,36.3125,36.3125,2.86053,3.076631,7.557847,6.571597,4.345582,9.913363,-0.1345734,-0.4305493,1.51069,0.143831,-0.2408972,1.34596,0.06460708,0.3761478,1.58417,-0.09281515,-0.4270065,1.47831,0.1094727,-0.2415982,1.3849,0.05253929,-0.067295,1.607393,0.04940525,-0.3787001,1.595075,-0.1127845,0.119904,1.589778,-0.03123146,-0.3677042,1.558482,-0.1552894,-0.1317937,1.606411,0.2919444,-0.09929374,1.581736,NA,NA,NotTracked,Unknown,
0.9301758,-0.3447266,0.09179688,-0.04736328,0.6279297,0.5512695,-1,-3,-2,0,-1,-2,-3,-1,23,16,5,11,10,-2,0,-11,-8.5,-8.5,-8.5,27.75,27.75,27.75,2.864531,3.077951,7.535428,6.562317,5.016798,0.2380266,-0.1343975,-0.4297485,1.509308,0.07913788,-0.1130857,1.341446,0.06538157,0.3763727,1.585151,-0.09444231,-0.4205526,1.477939,0.0321517,-0.1633819,1.390556,0.05292147,-0.06625967,1.60843,0.05107973,-0.3764283,1.596277,-0.1109399,0.1202028,1.589176,-0.02943349,-0.3662392,1.559235,-0.1553685,-0.1302101,1.605729,0.3156099,-0.1174603,1.506279,NA,NA,NotTracked,Unknown,
0.9482422,-0.3447266,0.06005859,-0.1655273,0.6347656,0.5273438,-1,1,0,1,-1,-1,-3,-2,-4,-35,-25,-2,79,0,4,8,-10.5,-10.5,-10.5,30.4375,30.4375,30.4375,2.846651,3.077845,7.533041,6.642517,5.437443,0.4787029,-0.1340063,-0.4291959,1.508665,0.03831742,-0.003940165,1.370234,0.06695148,0.3763212,1.586809,-0.0939412,-0.43283,1.4735,0.007111168,-0.0400428,1.431286,0.05380451,-0.06559869,1.609222,0.05236109,-0.3747631,1.596836,-0.108218,0.1204317,1.587994,-0.02766861,-0.3647848,1.559849,-0.1550132,-0.1292568,1.604631,0.2697605,-0.09530871,1.50956,NA,NA,NotTracked,Unknown,
0.940918,-0.3408203,0.05126953,-0.2958984,0.6362305,0.4458008,0,0,0,-2,-1,-1,0,2,-1,-1,-1,-23,58,3,-4,16,-6.625,-6.625,-6.625,9.6875,9.6875,9.6875,2.824468,3.076629,7.541555,6.7579,5.72651,0.7079324,-0.1334849,-0.4296446,1.508755,0.0218387,0.06235455,1.405359,0.06936706,0.3757864,1.588358,-0.09380257,-0.4230943,1.47696,0.008610271,0.02033842,1.465938,0.05482673,-0.06586222,1.609967,0.05383394,-0.3751595,1.596978,-0.1008793,0.1189735,1.580426,-0.02589562,-0.3654637,1.560478,-0.1545675,-0.1294862,1.604287,0.2553839,-0.09808819,1.460369,NA,NA,NotTracked,Unknown,
0.9248047,-0.34375,0.06347656,-0.2680664,0.6640625,0.4033203,-1,-2,-2,-1,-1,-1,-1,-3,-23,6,1,17,92,9,1,-8,-6.3125,-6.3125,-6.3125,-7.125,-7.125,-7.125,2.797023,3.075957,7.551559,6.846921,5.874134,0.8985472,-0.1330337,-0.4289804,1.507635,0.02325701,0.07912258,1.433487,0.07282919,0.3755986,1.589722,-0.09354921,-0.4247273,1.476388,0.01527213,0.04421515,1.483765,0.05578325,-0.06622364,1.610527,0.05524547,-0.3762405,1.596868,-0.09577128,0.1183105,1.576528,-0.02457955,-0.3666375,1.560222,-0.1535287,-0.1298308,1.603293,0.2397359,-0.08251245,1.460949,NA,NA,NotTracked,Unknown,
0.9321289,-0.3339844,0.06445313,-0.3681641,0.7451172,0.3408203,0,-1,0,-2,-1,0,-3,-3,-2,-12,-2,-11,-36,-15,-6,-4,4.375,4.375,4.375,-22.625,-22.625,-22.625,2.788866,3.079629,7.56274,6.87032,5.924602,1.007923,-0.1329946,-0.4282226,1.507444,0.01978031,0.09637301,1.441418,0.07528532,0.3756477,1.590582,-0.0920493,-0.4203207,1.477424,0.01753506,0.05796904,1.470333,0.05682648,-0.06646544,1.610858,0.05636426,-0.3770158,1.59664,-0.09213126,0.1184168,1.573777,-0.02360968,-0.3674463,1.559632,-0.1529514,-0.1294562,1.60278,0.2326607,-0.07727328,1.461404,NA,NA,NotTracked,Unknown,
0.9335938,-0.3359375,0.05029297,-0.5185547,0.7944336,0.3764648,-2,-2,-2,-1,-2,-2,0,-2,1,5,3,-3,8,0,-4,-28,7.6875,7.6875,7.6875,-21.8125,-21.8125,-21.8125,2.788163,3.083204,7.576311,6.856789,5.936075,1.087331,-0.1325004,-0.4279917,1.506479,0.0120102,0.1012694,1.447108,0.07720127,0.3754556,1.591184,-0.09208975,-0.4183531,1.477027,0.01649046,0.05806759,1.460889,0.05775772,-0.06683475,1.61096,0.05713237,-0.3776786,1.596279,-0.09021755,0.118558,1.572356,-0.0229088,-0.3681455,1.558796,-0.1525155,-0.1294883,1.602436,0.2246703,-0.07481341,1.461982,NA,NA,NotTracked,Unknown,
0.9272461,-0.3588867,0.05615234,-0.4638672,0.8183594,0.4355469,0,-1,-2,-1,-2,-2,-6,-2,24,17,28,69,127,-19,-7,0,5.25,5.25,5.25,-14.3125,-14.3125,-14.3125,2.786451,3.084868,7.588894,6.859086,5.924157,1.189135,-0.1325925,-0.429516,1.508353,0.004552092,0.1022946,1.457533,0.07872718,0.3748505,1.592092,-0.09077074,-0.4098781,1.480377,0.006061303,0.06126789,1.463727,0.05837652,-0.06722493,1.611257,0.05746949,-0.3780499,1.596095,-0.08921941,0.1186203,1.571937,-0.02262468,-0.3684906,1.558385,-0.1522295,-0.1298646,1.60245,0.218217,-0.07517358,1.46381,NA,NA,NotTracked,Unknown,
0.9238281,-0.3867188,0.06005859,-0.90625,0.6308594,-0.02734375,-3,-1,-3,-1,0,-1,-1,-1,19,2,-11,-30,-87,8,22,10,3.75,3.75,3.75,-55.8125,-55.8125,-55.8125,2.778901,3.085532,7.604197,6.926949,5.93337,1.395586,-0.1323128,-0.4323377,1.507436,0.03924482,0.07797249,1.494586,0.0793205,0.374476,1.592437,-0.09087708,-0.4052563,1.480081,0.1024497,0.1107673,1.5136,0.05870235,-0.06747806,1.611324,0.05763185,-0.3783969,1.595749,-0.08823311,0.1184568,1.572424,-0.02252164,-0.3687562,1.558008,-0.1518208,-0.1309975,1.602559,0.2169778,-0.07477317,1.46449,NA,NA,NotTracked,NotTracked,
0.909668,-0.347168,0.04101563,-0.4267578,0.8598633,0.3969727,-2,0,-1,0,-1,0,5,1,-97,-26,-22,-11,-31,-2,-19,-5,1.9375,1.9375,1.9375,34.75,34.75,34.75,2.781343,3.089018,7.606622,6.899105,5.961494,1.286313,-0.1327839,-0.4321115,1.505692,0.03897274,0.08020233,1.490598,0.07949419,0.3743345,1.592494,-0.09168705,-0.4146039,1.478159,0.1026523,0.1111265,1.513564,0.05875763,-0.06753427,1.611307,0.05759389,-0.3785526,1.595343,-0.08711179,0.118137,1.572621,-0.02258513,-0.3688474,1.557754,-0.1517449,-0.1311843,1.602438,0.2149471,-0.07608879,1.465917,NA,NA,NotTracked,NotTracked,
0.9453125,-0.4277344,0.0703125,-0.6044922,0.5932617,0.3457031,0,-2,-1,0,-1,0,-1,-3,-11,-5,8,-4,-16,9,-2,-3,-3.6875,-3.6875,-3.6875,6.0625,6.0625,6.0625,2.778314,3.096153,7.605309,6.856023,5.953127,1.240609,-0.1328743,-0.4320022,1.505161,0.03789715,0.08329181,1.486534,0.07976793,0.374393,1.592724,-0.09161803,-0.4214695,1.474738,-0.01567078,0.02569498,1.485133,0.05891768,-0.06753065,1.611336,0.05765263,-0.3785821,1.595174,-0.08718758,0.1181597,1.572789,-0.02252566,-0.3688463,1.557446,-0.1515532,-0.1312472,1.602536,0.2132123,-0.07697626,1.467042,NA,NA,NotTracked,NotTracked,
0.9155273,-0.2714844,0.04833984,-0.5532227,0.9038086,0.4038086,1,1,1,0,0,-1,1,3,-13,-15,-16,-12,-76,-6,8,0,2.875,2.875,2.875,23.5625,23.5625,23.5625,2.798775,3.094799,7.608346,6.855908,5.920351,1.202074,-0.1331856,-0.4289952,1.505896,-0.05789292,0.1244431,1.500385,0.08000895,0.3744517,1.592884,-0.0917477,-0.4141299,1.477459,-0.0831907,0.07370022,1.529631,0.05904752,-0.06753598,1.611311,0.05778154,-0.3786863,1.594758,-0.08721025,0.1181465,1.572591,-0.02239679,-0.3689453,1.556762,-0.1513749,-0.1317099,1.602487,0.2108054,-0.0770696,1.466905,NA,NA,NotTracked,NotTracked,
0.9335938,-0.453125,0.06982422,-0.3520508,0.8212891,0.6020508,-2,-1,-2,-2,-1,-1,-2,-1,4,-4,4,-5,-76,-8,8,-6,-1.9375,-1.9375,-1.9375,0.75,0.75,0.75,2.771742,3.101399,7.613976,6.848626,5.909744,1.236607,-0.1326702,-0.4325327,1.505983,-0.05806658,0.122831,1.508575,0.08023322,0.3744399,1.593559,-0.09143421,-0.41174,1.478641,-0.0818577,0.07587177,1.528441,0.05923022,-0.06765888,1.611416,0.05787982,-0.3788905,1.594546,-0.08729794,0.1180349,1.572367,-0.02232143,-0.3691351,1.556572,-0.1513256,-0.132117,1.602654,0.2086797,-0.07684008,1.465642,NA,NA,NotTracked,NotTracked,
0.9311523,-0.3369141,0.04492188,-1.077148,0.9326172,-0.5625,-11,-6,-2,-1,-1,-1,-1,-3,27,-6,1,-7,61,7,19,20,-1.25,-1.25,-1.25,-5.5,-5.5,-5.5,2.785495,3.098742,7.611852,6.912721,5.929556,1.421309,-0.133047,-0.4325437,1.505023,-0.05858099,0.1194279,1.533772,0.08026837,0.3743597,1.593817,-0.09187089,-0.4178624,1.476157,-0.09498531,0.08009407,1.53821,0.05926236,-0.06771479,1.611432,0.0578075,-0.3789714,1.594356,-0.08823325,0.1178698,1.573936,-0.02237644,-0.3691915,1.5565,-0.1513268,-0.1321652,1.602679,0.2082966,-0.07669238,1.465179,NA,NA,NotTracked,NotTracked,
0.9599609,-0.2949219,0.1113281,-0.7666016,0.9536133,0.4467773,-2,-4,-2,0,-1,-1,0,-1,2,7,4,0,-25,3,2,-6,2.8125,2.8125,2.8125,1.875,1.875,1.875,2.782732,3.105829,7.611263,6.909665,5.93445,1.357808,-0.1345395,-0.4293984,1.504374,0.005631072,0.09710789,1.496784,0.08028489,0.3743753,1.593921,-0.09160748,-0.4149562,1.476774,-0.03488553,0.09099402,1.471024,0.05929887,-0.0677289,1.611396,0.05764689,-0.3789566,1.594088,-0.08857767,0.1177966,1.574619,-0.0225112,-0.3691821,1.556433,-0.1514862,-0.1324534,1.602617,0.2089988,-0.07690132,1.465845,NA,NA,NotTracked,NotTracked,
0.8847656,-0.4765625,0.07373047,-0.5986328,0.8789063,0.3393555,1,-1,-2,0,0,-1,-2,-1,44,0,-3,4,55,5,-3,10,13.1875,13.1875,13.1875,12.75,12.75,12.75,2.774946,3.102581,7.609387,6.900838,5.954579,1.333167,-0.1336655,-0.4287293,1.505193,0.005475429,0.09682965,1.495542,0.08027955,0.3744342,1.59391,-0.09175,-0.4164856,1.475656,-0.03462398,0.08888572,1.470489,0.05931994,-0.06771576,1.611369,0.057534,-0.3789018,1.593981,-0.08841489,0.1178154,1.574833,-0.02262327,-0.3691142,1.556359,-0.1514726,-0.1323857,1.602614,0.2096792,-0.0766428,1.466404,NA,NA,NotTracked,NotTracked,
0.9194336,-0.3188477,0.05224609,-0.5849609,0.7895508,0.3261719,0,1,0,-1,-1,0,-1,4,-1,-12,-9,0,-8,2,2,15,-24.625,-24.625,-24.625,1.1875,1.1875,1.1875,2.780271,3.088633,7.607968,6.885763,5.961523,1.329008,-0.1343348,-0.4288778,1.505913,0.005827709,0.09699935,1.495046,0.08023963,0.3744772,1.593832,-0.0921585,-0.4129829,1.47708,-0.02938161,0.08762546,1.462298,0.05932007,-0.06768624,1.611332,0.05747382,-0.3788588,1.59392,-0.08867075,0.1178013,1.575053,-0.02268543,-0.3690696,1.556306,-0.1515781,-0.1319801,1.602422,0.2098293,-0.07670271,1.466051,NA,NA,NotTracked,NotTracked,
0.9311523,-0.3984375,0.05615234,-0.5639648,0.7783203,0.3476563,0,-2,-1,0,0,-4,-2,-4,-31,-4,-2,11,12,-1,15,-28,19.5625,19.5625,19.5625,0.625,0.625,0.625,2.767667,3.098364,7.610372,6.877115,5.963078,1.321632,-0.1342758,-0.4321782,1.505644,0.00629919,0.0953717,1.496596,0.08018033,0.3745283,1.593775,-0.09202284,-0.4178672,1.476372,-0.03370491,0.08736168,1.466521,0.05931233,-0.0676927,1.611319,0.05736023,-0.3788936,1.593948,-0.08893557,0.1177382,1.575248,-0.02283815,-0.3691024,1.556386,-0.1516444,-0.1318388,1.602362,0.2095092,-0.07788476,1.466407,NA,NA,NotTracked,NotTracked,
0.9316406,-0.3222656,0.05615234,-0.5649414,0.7333984,0.3515625,0,-1,0,-1,-2,-1,-1,0,26,21,9,-10,16,-25,-19,6,-13.3125,-13.3125,-13.3125,-1.125,-1.125,-1.125,2.773266,3.093646,7.608041,6.867584,5.965816,1.313024,-0.134443,-0.4323233,1.505486,0.04067186,0.06687458,1.488157,0.08013853,0.3744767,1.593657,-0.09178909,-0.4184344,1.476171,-0.006579616,0.0103295,1.48331,0.05933578,-0.06774466,1.611264,0.05727365,-0.3789223,1.593929,-0.08912681,0.1176882,1.575353,-0.02294345,-0.369147,1.556397,-0.1517984,-0.1318427,1.602198,0.2091108,-0.07849764,1.465997,NA,NA,NotTracked,Unknown,
0.9311523,-0.3481445,0.06445313,-0.5883789,0.7573242,0.324707,-3,-5,-2,-1,-3,0,0,-4,31,14,7,15,-2,1,-8,1,2.875,2.875,2.875,-1.5625,-1.5625,-1.5625,2.773369,3.090484,7.600691,6.854949,5.968258,1.29447,-0.1340291,-0.4319335,1.504933,0.03991665,0.06911869,1.487139,0.07995418,0.3745323,1.593124,-0.09210371,-0.4190453,1.475305,-0.008699941,0.01210324,1.482736,0.05932313,-0.06777593,1.61109,0.05723848,-0.3789483,1.593914,-0.08873489,0.117459,1.574885,-0.02299559,-0.3691856,1.556394,-0.1520789,-0.1319663,1.60212,0.2088567,-0.07873201,1.465668,NA,NA,NotTracked,Unknown,
0.9316406,-0.3496094,0.07080078,-0.5942383,0.7597656,0.3344727,1,2,-2,-2,1,0,-2,-1,-57,-21,7,9,1,-3,2,1,-2.375,-2.375,-2.375,2.8125,2.8125,2.8125,2.776401,3.087148,7.598009,6.845973,5.97293,1.274376,-0.1348485,-0.4291874,1.506185,0.03958397,0.07138973,1.486215,0.07960207,0.3746257,1.592481,-0.09205575,-0.4177481,1.475934,-0.01297283,0.01574239,1.481909,0.05925378,-0.06769928,1.610874,0.05714371,-0.3788809,1.593865,-0.08893409,0.1174978,1.574857,-0.02313489,-0.3690918,1.556355,-0.152298,-0.131253,1.601929,0.2085923,-0.07954467,1.466442,NA,NA,NotTracked,Unknown,
0.9365234,-0.3720703,0.06542969,-0.5805664,0.7041016,0.3237305,-2,-2,-1,-1,-1,0,0,2,18,2,2,26,13,3,13,6,-1.5625,-1.5625,-1.5625,-1.9375,-1.9375,-1.9375,2.776795,3.087376,7.592414,6.835484,5.963304,1.262721,-0.1344636,-0.4289872,1.506311,0.03815382,0.07116039,1.485369,0.0793526,0.3746879,1.592036,-0.09244126,-0.4185857,1.475757,-0.01231402,0.01424051,1.482039,0.05921223,-0.0676984,1.610746,0.05708765,-0.3789026,1.593862,-0.08909486,0.1175068,1.574796,-0.02318947,-0.3691059,1.556349,-0.1524267,-0.1312024,1.601705,0.2089166,-0.07948337,1.466417,NA,NA,NotTracked,Unknown,
0.9335938,-0.3330078,0.06347656,-0.4907227,0.699707,0.2583008,-2,-1,1,-1,0,-1,-2,-1,20,3,-9,-13,-2,-13,4,3,-0.8125,-0.8125,-0.8125,24.3125,24.3125,24.3125,2.783565,3.087923,7.583405,6.810946,5.941049,1.17288,-0.1348337,-0.42869,1.505202,-0.06152507,0.1190778,1.503579,0.07920521,0.3746904,1.591621,-0.09214153,-0.4338367,1.470526,-0.1012054,0.0938803,1.51,0.05907648,-0.06773701,1.61052,0.0570614,-0.3789603,1.593741,-0.08936702,0.1174548,1.57427,-0.02322462,-0.3691818,1.556077,-0.152487,-0.1312085,1.601283,0.209263,-0.08055976,1.467668,NA,NA,NotTracked,NotTracked,
0.9428711,-0.3408203,0.06005859,-0.3413086,0.6762695,0.4296875,-1,-1,-2,-1,-3,-1,0,-1,-46,-24,-8,1,-5,-9,-3,-11,0.9375,0.9375,0.9375,10.875,10.875,10.875,2.787132,3.089014,7.579719,6.737983,5.815636,0.9678706,-0.1339748,-0.4318405,1.504426,0.03079003,0.05032343,1.459434,0.07912166,0.3746414,1.591421,-0.09211773,-0.422796,1.474216,0.0473203,0.06914016,1.420038,0.05909626,-0.06775687,1.610452,0.0570938,-0.3789847,1.593714,-0.09010193,0.1171737,1.573146,-0.02317485,-0.3692236,1.556064,-0.1525443,-0.1314632,1.601188,0.2103193,-0.08151323,1.468707,NA,NA,NotTracked,Unknown,
0.9272461,-0.3408203,0.05224609,-0.3168945,0.7988281,0.421875,1,0,-1,-2,-2,-1,-1,1,37,5,6,4,2,-2,-4,3,5.0625,5.0625,5.0625,25.75,25.75,25.75,2.792486,3.087537,7.581509,6.722823,5.688236,0.826789,-0.1337724,-0.4318735,1.504741,-0.02588973,0.06424744,1.42114,0.07873096,0.3748924,1.591203,-0.09218112,-0.4220425,1.474315,-0.0557194,0.04830345,1.389667,0.05889613,-0.06751721,1.610325,0.05704039,-0.3786685,1.593711,-0.09276032,0.1177735,1.573635,-0.02316348,-0.3689432,1.556299,-0.1528039,-0.1310968,1.601064,0.2155185,-0.08305967,1.470854,NA,NA,NotTracked,Unknown,
0.9306641,-0.3608398,0.07568359,-0.1943359,0.6118164,0.4833984,-1,-2,-1,-2,-2,-2,0,0,-6,0,7,16,6,-2,4,1,6.0625,6.0625,6.0625,-8.3125,-8.3125,-8.3125,2.800487,3.08882,7.580856,6.63998,5.487826,0.6633472,-0.134403,-0.4319583,1.504146,-0.01979064,0.02634384,1.381512,0.07773039,0.3752708,1.591298,-0.09247412,-0.4217364,1.474528,-0.0510462,0.004734026,1.358286,0.058506,-0.06697979,1.610067,0.05643486,-0.3773992,1.593532,-0.09934767,0.12042,1.578465,-0.02356011,-0.3677226,1.556966,-0.1531504,-0.1316546,1.601036,0.2194206,-0.08511185,1.472654,NA,NA,NotTracked,Unknown,
0.9287109,-0.3359375,0.06591797,-0.08105469,0.7470703,0.4599609,-1,-1,-2,0,-1,-1,-4,-3,-6,5,-1,-2,7,-2,0,-4,14.9375,14.9375,14.9375,-16.9375,-16.9375,-16.9375,2.817246,3.092637,7.585594,6.595505,5.087162,0.4342061,-0.1350144,-0.4321459,1.505204,-0.003138549,-0.04272669,1.347756,0.07623961,0.3758639,1.591377,-0.09235849,-0.4211138,1.474465,-0.01026884,-0.08590334,1.382778,0.05763293,-0.06566024,1.60994,0.05601621,-0.3746516,1.593551,-0.1056615,0.121107,1.583794,-0.02347401,-0.3650195,1.557116,-0.1535977,-0.1337987,1.601556,0.2391974,-0.08846837,1.490577,NA,NA,NotTracked,Unknown,
0.9287109,-0.3632813,0.0703125,0.1625977,0.8325195,0.6103516,-1,0,-2,-1,-1,-3,-3,-2,-4,-3,1,12,24,2,-10,-4,7.5625,7.5625,7.5625,-5.3125,-5.3125,-5.3125,2.827689,3.089454,7.598757,6.596263,4.7095,0.2555619,-0.1352051,-0.4328118,1.506888,0.0244426,-0.1334908,1.320978,0.07346244,0.3767944,1.591939,-0.09217008,-0.4222908,1.4746,-0.02848311,-0.1193911,1.368333,0.056692,-0.06505698,1.610005,0.05527603,-0.3738759,1.593767,-0.1063178,0.1216799,1.586348,-0.02413825,-0.3642419,1.557364,-0.1542397,-0.1321529,1.602105,0.2674623,-0.1198238,1.458306,NA,NA,NotTracked,Unknown,
0.9179688,-0.3759766,0.07568359,0.4897461,0.8759766,0.578125,0,-2,-1,-4,-2,0,-2,-2,-4,-4,9,2,-2,-4,4,5,5.5625,5.5625,5.5625,-2.375,-2.375,-2.375,2.835337,3.088445,7.60392,6.694905,4.18403,9.982561,-0.1356444,-0.4324162,1.506458,0.07724727,-0.2309866,1.311107,0.07070652,0.3779555,1.591853,-0.09347907,-0.4128472,1.476311,0.06158496,-0.1855191,1.294234,0.05580404,-0.06495775,1.609836,0.05462809,-0.3743711,1.593874,-0.1086848,0.1209092,1.587512,-0.02469196,-0.3646902,1.557576,-0.1546816,-0.1317704,1.602548,0.2802002,-0.120658,1.487359,NA,NA,NotTracked,Unknown,
0.9169922,-0.3608398,0.08984375,0.7158203,0.6142578,0.5151367,-1,-1,-1,-1,0,-2,0,-2,-2,-2,-4,-8,-7,-5,9,1,5.3125,5.3125,5.3125,-1.5,-1.5,-1.5,2.851367,3.089343,7.595958,6.817177,3.84464,9.73051,-0.136011,-0.4332087,1.508176,0.1332338,-0.3180172,1.317793,0.06780199,0.3786395,1.591369,-0.09193435,-0.4267986,1.473992,0.1145235,-0.2752162,1.293512,0.05242056,-0.06513775,1.609354,0.0484533,-0.3759627,1.59393,-0.1115694,0.1204992,1.588589,-0.03144842,-0.3649182,1.55772,-0.1551944,-0.1315736,1.602811,0.2710349,-0.09794828,1.549843,NA,NA,NotTracked,Unknown,
0.9360352,-0.3530273,0.09960938,0.8745117,0.6337891,0.3168945,1,1,0,0,-1,0,2,0,-6,1,-1,-5,-12,6,4,6,3.625,3.625,3.625,-17.8125,-17.8125,-17.8125,2.866244,3.088314,7.586418,7.022628,3.548505,9.441323,-0.1364699,-0.4336063,1.507227,0.1989388,-0.3721657,1.350314,0.06486066,0.378889,1.590783,-0.09276726,-0.4189029,1.475417,0.1653391,-0.3417933,1.31296,0.0505552,-0.06517285,1.608845,0.04661684,-0.3760569,1.593693,-0.1134253,0.1202305,1.588529,-0.0337342,-0.3644194,1.557431,-0.1559431,-0.131272,1.602981,0.2694624,-0.1042064,1.551231,NA,NA,NotTracked,Closed,
0.9501953,-0.3496094,0.09228516,1.001953,0.512207,0.1586914,-3,-1,-1,-1,-2,-1,-3,-7,4,1,-1,-1,19,4,9,-4,3.0625,3.0625,3.0625,-20.6875,-20.6875,-20.6875,2.878011,3.0845,7.580619,7.257348,3.345017,9.111402,-0.136858,-0.430213,1.508949,0.2403156,-0.4182819,1.386358,0.06263857,0.3790012,1.589887,-0.09368811,-0.4300099,1.47392,0.2078829,-0.3938672,1.352786,0.05050493,-0.06531619,1.608599,0.04826507,-0.3767284,1.593606,-0.114603,0.1200908,1.588415,-0.0315755,-0.3657772,1.557407,-0.1564881,-0.1312598,1.603029,0.2692414,-0.1211997,1.554115,NA,NA,NotTracked,Closed,
0.9404297,-0.3417969,0.078125,0.9550781,0.4326172,0.02539063,0,0,-1,-2,-1,1,4,2,3,7,-3,-6,-9,10,2,-52,3.75,3.75,3.75,-80.5,-80.5,-80.5,2.879947,3.080017,7.586186,7.495482,3.181633,8.678387,-0.1366466,-0.433648,1.508814,0.2699343,-0.4466367,1.4199,0.0606785,0.3791063,1.588935,-0.09347616,-0.4196496,1.475953,0.242456,-0.4209439,1.388267,0.05054723,-0.06543618,1.608419,0.05020211,-0.377371,1.593827,-0.115974,0.1196772,1.588206,-0.02929405,-0.3670957,1.557768,-0.1569475,-0.1311092,1.603064,0.268912,-0.1354253,1.561849,NA,NA,NotTracked,Closed,
0.9228516,-0.3334961,0.08496094,0.9394531,0.3466797,0.1074219,-1,-3,-1,-2,-1,-2,-2,-2,-8,-4,-3,-2,0,5,14,-41,4.25,4.25,4.25,-15.5625,-15.5625,-15.5625,2.881823,3.074732,7.593487,7.57886,3.092441,8.513085,-0.1365691,-0.4372107,1.507506,0.2857979,-0.456043,1.454473,0.058738,0.3792085,1.587269,-0.0939346,-0.4220776,1.475185,0.2607609,-0.4385456,1.421754,0.05043799,-0.06552079,1.607866,0.05068964,-0.3775359,1.593692,-0.1168484,0.119598,1.5878,-0.0288845,-0.3674439,1.557708,-0.1574237,-0.1311623,1.602899,0.2691686,-0.1431678,1.570626,NA,NA,NotTracked,Unknown,
0.9375,-0.3422852,0.09570313,0.9174805,0.3798828,0.07275391,-1,-1,-1,-1,-1,-2,-5,-5,11,-4,-7,-6,-1,1,-4,-10,1.9375,1.9375,1.9375,10.8125,10.8125,10.8125,2.8808,3.070285,7.600176,7.632537,3.017243,8.463883,-0.1368829,-0.4378373,1.507502,0.2886617,-0.4607993,1.486552,0.05697931,0.379316,1.585462,-0.09375639,-0.4210423,1.475159,0.281538,-0.4824668,1.444067,0.0502104,-0.06548431,1.607422,0.05091679,-0.3776224,1.593663,-0.1158066,0.1195984,1.586721,-0.02868308,-0.3676408,1.557758,-0.1579476,-0.1307558,1.602709,0.2695644,-0.1464971,1.581883,NA,NA,NotTracked,NotTracked,
0.9418945,-0.3496094,0.08886719,0.9272461,0.3100586,0.0625,0,-1,-2,0,-2,-1,1,3,-7,0,-1,1,-3,-8,-2,-53,1.6875,1.6875,1.6875,-1.9375,-1.9375,-1.9375,2.884584,3.067788,7.600137,7.565641,2.937535,8.531454,-0.137187,-0.4345775,1.508708,0.2808807,-0.4644744,1.513308,0.0557461,0.3794486,1.584164,-0.09386507,-0.4217859,1.475144,0.2555789,-0.4491324,1.478553,0.05008087,-0.06549757,1.606781,0.05115709,-0.3777384,1.593508,-0.1172026,0.1195152,1.586346,-0.02848722,-0.3678614,1.557678,-0.1581905,-0.1302229,1.602489,0.2678258,-0.1458774,1.594026,NA,NA,NotTracked,NotTracked,
0.9438477,-0.3330078,0.07910156,0.9233398,0.3466797,0.05566406,-1,0,-2,-1,-2,-1,2,-2,14,15,5,0,-3,-14,-6,39,1.0625,1.0625,1.0625,-13.6875,-13.6875,-13.6875,2.88784,3.067907,7.599426,7.446673,2.899705,8.641703,-0.137047,-0.4337105,1.507349,0.2627588,-0.4537897,1.537047,0.05459751,0.3791809,1.58315,-0.09554268,-0.4261687,1.472881,0.2205575,-0.4372458,1.524714,0.05020879,-0.06557605,1.606471,0.05232584,-0.378034,1.593315,-0.1180887,0.1193947,1.585887,-0.02726382,-0.3684289,1.557606,-0.1584348,-0.1307066,1.602032,0.2644184,-0.1450405,1.603426,NA,NA,NotTracked,NotTracked,
0.9404297,-0.3266602,0.07568359,0.9360352,0.2841797,0.01171875,0,-2,1,0,-1,0,-3,-2,0,-1,-3,-2,1,2,-1,-2,-1.25,-1.25,-1.25,-9.1875,-9.1875,-9.1875,2.8857,3.066622,7.600118,7.288675,2.877906,8.78283,-0.137254,-0.4338106,1.507744,0.2504433,-0.4475502,1.544221,0.05385514,0.3788705,1.582548,-0.09580716,-0.4103661,1.477276,0.213336,-0.4215228,1.513375,0.05052474,-0.06575667,1.606275,0.05404465,-0.3783944,1.593358,-0.1186445,0.1193657,1.585698,-0.02561167,-0.3691834,1.557704,-0.1587592,-0.1313665,1.601512,0.2593176,-0.1464939,1.612227,NA,NA,NotTracked,NotTracked,
0.9438477,-0.3339844,0.08154297,0.925293,0.2749023,-0.1748047,-2,-1,1,-1,-2,-4,0,-1,-14,0,1,0,-1,5,3,5,-3.25,-3.25,-3.25,-7.75,-7.75,-7.75,2.87662,3.060971,7.603396,7.31172,2.886729,8.74134,-0.137248,-0.4348179,1.508302,0.2387777,-0.4637905,1.541189,0.0536149,0.3788309,1.582216,-0.09816269,-0.4367117,1.471372,0.202845,-0.4449397,1.50187,0.05085329,-0.06576572,1.606155,0.0554278,-0.3783406,1.593723,-0.1189162,0.1193864,1.585445,-0.02447816,-0.3694971,1.558134,-0.1588579,-0.1316609,1.60128,0.2554738,-0.1465917,1.617446,NA,NA,NotTracked,NotTracked,
0.9428711,-0.3242188,0.07275391,0.9755859,0.2338867,-0.001464844,-1,-2,-1,-1,-1,-2,-1,-1,7,2,1,1,3,6,-3,-2,2.6875,2.6875,2.6875,-0.375,-0.375,-0.375,2.869409,3.056228,7.613019,7.283981,2.896876,8.732035,-0.1369773,-0.4343624,1.509279,0.2386682,-0.465693,1.540396,0.05341173,0.3788548,1.581861,-0.09580629,-0.4201043,1.475795,0.2032219,-0.4492718,1.502889,0.05095462,-0.06571393,1.606116,0.05617968,-0.3781272,1.594127,-0.1191757,0.1194246,1.585162,-0.02386404,-0.3695747,1.558487,-0.1588852,-0.1317814,1.60122,0.2535203,-0.1462985,1.619724,NA,NA,NotTracked,NotTracked,
0.9301758,-0.3168945,0.06396484,0.9135742,0.1899414,0.06884766,-2,-3,-3,-2,-1,-1,-1,-2,-7,-6,-2,0,1,1,4,-1,1.75,1.75,1.75,8.9375,8.9375,8.9375,2.860639,3.047902,7.627492,7.268218,2.897169,8.758621,-0.1371895,-0.4350319,1.511224,0.2422175,-0.4497214,1.545088,0.053379,0.378872,1.581825,-0.09614098,-0.4182173,1.478757,0.2045092,-0.4263823,1.507303,0.05101849,-0.0656741,1.606163,0.05656954,-0.3779828,1.594555,-0.1192729,0.1195238,1.585153,-0.02352489,-0.36956,1.558746,-0.1590288,-0.1315227,1.601366,0.2527068,-0.1461691,1.62242,NA,NA,NotTracked,NotTracked,
0.9389648,-0.3393555,0.08105469,0.9438477,0.2338867,0.03271484,-2,-1,-2,0,0,-2,-3,-4,-28,-11,-5,-3,0,-6,-10,-8,1.9375,1.9375,1.9375,0.125,0.125,0.125,2.855881,3.045464,7.634301,7.228924,2.893091,8.806458,-0.1369572,-0.434411,1.510216,0.2422293,-0.4503036,1.544635,0.05332728,0.3788328,1.58177,-0.09689412,-0.4138296,1.478558,0.2048925,-0.4175373,1.506,0.05105135,-0.06567583,1.606181,0.05665635,-0.3779355,1.594678,-0.1194544,0.1195421,1.585057,-0.02344593,-0.3695633,1.55885,-0.1590738,-0.1319249,1.601337,0.2522473,-0.1458886,1.623056,NA,NA,NotTracked,NotTracked,
0.9433594,-0.3242188,0.08447266,0.9545898,0.2412109,0.009765625,1,-1,-2,-2,-1,-2,0,-2,4,0,-2,-2,5,3,4,5,6.1875,6.1875,6.1875,-6.125,-6.125,-6.125,2.861576,3.047124,7.638669,7.219976,2.894068,8.806808,-0.1367628,-0.4347496,1.511402,0.2430387,-0.446699,1.545199,0.05331828,0.3787862,1.581752,-0.09681586,-0.4179588,1.47785,0.2092013,-0.4364839,1.508588,0.05111801,-0.0656949,1.606179,0.0569128,-0.3779092,1.59481,-0.119511,0.1194754,1.585032,-0.02324073,-0.369596,1.558935,-0.159099,-0.1322742,1.601225,0.2516865,-0.146015,1.623666,NA,NA,NotTracked,NotTracked,
0.9350586,-0.3305664,0.05371094,0.9550781,0.2333984,0.03857422,-1,-1,0,-1,-2,-1,0,1,-30,-14,-6,-3,3,0,-1,-8,0.9375,0.9375,0.9375,2.875,2.875,2.875,2.846998,3.044517,7.663766,7.222879,2.895709,8.804372,-0.136571,-0.4347305,1.511482,0.2362668,-0.4686858,1.539598,0.05329955,0.3787392,1.581775,-0.09608912,-0.4297797,1.47644,0.1960104,-0.4723429,1.4995,0.05116799,-0.06571134,1.606232,0.0570454,-0.3779003,1.594952,-0.1195635,0.1194995,1.585056,-0.02314069,-0.3696393,1.559033,-0.1591015,-0.1320809,1.601525,0.251247,-0.1464423,1.624154,NA,NA,NotTracked,NotTracked,
0.9399414,-0.3261719,0.06884766,0.9423828,0.2158203,0.06787109,0,-1,-1,0,-1,0,-1,1,19,3,-1,0,-6,-9,-5,3,1.6875,1.6875,1.6875,3.6875,3.6875,3.6875,2.843162,3.044092,7.669142,7.217351,2.893982,8.820539,-0.1368813,-0.435151,1.51241,0.2359512,-0.4689226,1.539503,0.05330605,0.3787146,1.5818,-0.09672488,-0.4213459,1.477344,0.1987182,-0.457051,1.501531,0.05127003,-0.06564248,1.606372,0.057255,-0.3776576,1.595288,-0.119539,0.1195949,1.58508,-0.02298947,-0.3694567,1.559274,-0.1590942,-0.1320807,1.601607,0.2510203,-0.1460126,1.624422,NA,NA,NotTracked,NotTracked,
