ALX,ALY,ALZ,ARX,ARY,ARZ,EMG0L,EMG1L,EMG2L,EMG3L,EMG4L,EMG5L,EMG6L,EMG7L,EMG0R,EMG1R,EMG2R,EMG3R,EMG4R,EMG5R,EMG6R,EMG7R,GLX,GLY,GLZ,GRX,GRY,GRZ,ORL,OPL,OYL,ORR,OPR,OYR,LHNX,LHNY,LHNZ,RHNX,RHNY,RHNZ,HX,HY,HZ,LTX,LTY,LTZ,RTX,RTY,RTZ,SpineMidX,SpineMidY,SpineMidZ,SpineBaseX,SpineBaseY,SpineBaseZ,ShoulderLeftX,ShoulderLeftY,ShoulderLeftZ,ShoulderRightX,ShoulderRightY,ShoulderRightZ,ElbowLeftX,ElbowLeftY,ElbowLeftZ,ElbowRightX,ElbowRightY,ElbowRightZ,Myo_Pose_left,Myo_Pose_Right,Kinect_pose_left,Kinect_pose_right
0.9282227,-0.3496094,0.07275391,0.934082,0.2539063,0.06054688,0,-2,0,-2,-1,-1,1,-3,-20,1,1,0,5,-1,8,-2,0.0625,0.0625,0.0625,0.9375,0.9375,0.9375,2.826343,3.096822,7.551521,7.069579,2.929973,9.474738,-0.1535018,-0.4385546,1.547778,0.2200638,-0.4595085,1.569654,0.04971243,0.3780826,1.62601,-0.1973241,-0.4378206,1.558586,0.2603522,-0.4304184,1.583681,0.04200948,-0.06668111,1.647668,0.0447415,-0.3788292,1.635631,-0.120626,0.1192859,1.624232,-0.0345766,-0.3699019,1.599671,-0.1670244,-0.1325557,1.643129,0.2407287,-0.1417406,1.661099,NA,NA,NotTracked,NotTracked,
0.9282227,-0.3603516,0.07324219,0.9804688,0.3271484,0.0859375,-1,-1,-2,-1,-3,-2,-2,-2,-56,-2,2,0,-5,4,1,14,0.125,0.125,0.125,6.3125,6.3125,6.3125,2.826343,3.096822,7.551521,7.055763,2.936667,9.497126,-0.1530227,-0.4381807,1.548759,0.218712,-0.4624477,1.568905,0.04972011,0.3780913,1.625994,-0.1994299,-0.4583132,1.559667,0.2609925,-0.437959,1.588999,0.04203975,-0.0666694,1.647653,0.0447535,-0.3787937,1.635626,-0.1219776,0.1196909,1.625584,-0.03456276,-0.3698829,1.599661,-0.1669932,-0.132685,1.643099,0.2406392,-0.1415249,1.660892,NA,NA,NotTracked,NotTracked,
0.9243164,-0.3564453,0.07226563,0.9501953,0.425293,0.07958984,-2,-1,-1,-1,-3,-1,-4,-3,13,6,-14,5,14,5,7,12,-1.5,-1.5,-1.5,-6.6875,-6.6875,-6.6875,2.824532,3.096839,7.552486,6.978274,2.965615,9.578287,-0.1533376,-0.4381855,1.548007,0.2194716,-0.4526784,1.564725,0.0497489,0.3781173,1.626023,-0.1972799,-0.4488628,1.55454,0.25772,-0.4390478,1.581259,0.04205178,-0.06665269,1.647628,0.04474038,-0.3787363,1.635573,-0.1229935,0.1199197,1.626611,-0.03457545,-0.3698354,1.599597,-0.1669141,-0.1329367,1.643076,0.2408507,-0.1407053,1.660162,NA,NA,NotTracked,NotTracked,
0.9272461,-0.3583984,0.0703125,1.016602,0.4829102,0.3730469,-2,-2,-1,-1,-1,-2,1,1,24,13,11,-6,-4,-15,16,13,1.1875,1.1875,1.1875,21.375,21.375,21.375,2.823824,3.099892,7.552841,6.660987,3.140048,9.908067,-0.1534378,-0.4388418,1.546826,0.2028859,-0.434376,1.5407,0.04976198,0.3781117,1.626013,-0.1958075,-0.4488309,1.5458,0.2410795,-0.4163078,1.547647,0.04191781,-0.06663248,1.64747,0.04410067,-0.3786087,1.635044,-0.1235088,0.1198228,1.62701,-0.03535135,-0.3695962,1.598983,-0.1668076,-0.1328206,1.643093,0.2416219,-0.139379,1.658176,NA,NA,NotTracked,NotTracked,
0.9262695,-0.3540039,0.08691406,0.9731445,0.6142578,0.6254883,-2,0,-2,-1,-1,-3,-4,0,47,26,15,4,-22,15,9,-7,-3.0625,-3.0625,-3.0625,70.375,70.375,70.375,2.834234,3.103446,7.541525,6.460335,3.422816,0.2527681,-0.1530186,-0.4383513,1.547126,0.1630882,-0.3936006,1.503018,0.04992522,0.3781967,1.626332,-0.1957266,-0.4354043,1.551773,0.186121,-0.4284166,1.504429,0.04064132,-0.06644684,1.647345,0.03917383,-0.3780027,1.633956,-0.1238536,0.1198621,1.62768,-0.0407878,-0.3676743,1.59814,-0.1664595,-0.131946,1.643466,0.2420395,-0.1329655,1.651003,NA,NA,NotTracked,Unknown,
0.9282227,-0.3837891,0.1010742,0.8271484,0.7915039,0.7509766,-1,-2,-3,-1,0,-1,1,-1,-17,3,71,-3,39,-3,-19,4,-4.3125,-4.3125,-4.3125,82.375,82.375,82.375,2.836306,3.10837,7.531255,6.359023,4.056986,0.6522931,-0.1523837,-0.4390939,1.5461,0.07401077,-0.3274658,1.465326,0.0504937,0.3781338,1.626963,-0.1907008,-0.464294,1.5384,0.09358585,-0.3916367,1.501539,0.03984922,-0.06640974,1.647641,0.03697443,-0.3779774,1.633942,-0.1240854,0.1198276,1.628384,-0.04294247,-0.3669162,1.598082,-0.1658438,-0.1308624,1.643416,0.2417708,-0.1192978,1.633841,NA,NA,NotTracked,Closed,
0.9477539,-0.3798828,0.1015625,0.4555664,0.6040039,0.7119141,-1,-2,-3,-1,0,0,0,-1,52,20,-35,-24,-45,2,-6,22,-8.25,-8.25,-8.25,51.375,51.375,51.375,2.839065,3.115249,7.518083,6.355426,4.654772,0.9017419,-0.1509381,-0.4377703,1.545519,-0.002973,-0.1904009,1.437044,0.05166466,0.3778565,1.628045,-0.1941793,-0.4524911,1.548033,-0.04121785,-0.1573493,1.480588,0.04004865,-0.06634785,1.648042,0.03728344,-0.3777434,1.634203,-0.1236562,0.1197497,1.62898,-0.04221148,-0.366823,1.598544,-0.1653104,-0.1298997,1.643312,0.2368203,-0.1091932,1.600951,NA,NA,NotTracked,Unknown,
0.921875,-0.3598633,0.04980469,-0.1713867,0.7260742,0.5600586,-2,-2,-2,-3,-2,0,0,-2,45,-12,-15,-2,55,-24,-31,15,-10,-10,-10,47.625,47.625,47.625,2.82829,3.118863,7.512598,6.436241,5.269304,1.133218,-0.1492274,-0.4397083,1.542644,-0.0480631,-0.03272482,1.450949,0.05403591,0.3776275,1.62958,-0.1909033,-0.4440082,1.543676,-0.03934506,0.02039978,1.497391,0.04091837,-0.06576279,1.648916,0.03851718,-0.3765595,1.634571,-0.1231448,0.1201553,1.629989,-0.04054032,-0.365876,1.599378,-0.1649702,-0.1319326,1.642188,0.2224969,-0.1015564,1.554327,NA,NA,NotTracked,Unknown,
0.9130859,-0.3652344,0.04199219,-0.2236328,0.5327148,0.3486328,-2,-1,-1,1,1,0,-2,-2,-104,-27,-6,-27,-60,-8,-12,-9,-8.5,-8.5,-8.5,57.6875,57.6875,57.6875,2.807113,3.120607,7.515227,6.583055,5.72836,1.348542,-0.1487766,-0.4389468,1.542451,-0.03990702,0.05755936,1.490659,0.05686612,0.3771362,1.631002,-0.1914878,-0.4588142,1.542462,-0.06731431,0.03980778,1.467226,0.04179621,-0.06597206,1.649456,0.03939712,-0.3767744,1.634543,-0.1120443,0.1174118,1.616373,-0.03945882,-0.3662755,1.599642,-0.1643182,-0.1318197,1.642296,0.21626,-0.09511304,1.542034,NA,NA,NotTracked,Unknown,
0.9233398,-0.3676758,0.06787109,-0.2944336,0.6176758,0.3813477,-1,0,-1,-2,1,-1,1,-2,-42,-35,-10,-7,-115,-29,-3,-57,0.9375,0.9375,0.9375,40.5,40.5,40.5,2.778611,3.119506,7.539908,6.774798,5.943026,1.53779,-0.1490449,-0.4385404,1.54297,-0.03537007,0.077565,1.51078,0.06018932,0.3771543,1.632997,-0.1921542,-0.4465109,1.544726,-0.05011855,0.008873526,1.530424,0.04260172,-0.0662065,1.650157,0.04034993,-0.3772567,1.634667,-0.1032548,0.1163334,1.608292,-0.038577,-0.3667682,1.599404,-0.1637882,-0.1315511,1.642411,0.2035771,-0.08744095,1.523117,NA,NA,NotTracked,Unknown,
0.9091797,-0.3647461,0.078125,-0.4272461,0.5947266,0.46875,-1,-1,-2,-2,1,-1,0,-1,4,-4,-20,-20,35,26,3,27,7.1875,7.1875,7.1875,10.625,10.625,10.625,2.7795,3.121922,7.549485,6.807589,5.927614,1.570109,-0.1495596,-0.4385898,1.543468,-0.04006732,0.09351428,1.508709,0.062288,0.3770534,1.634182,-0.1940704,-0.4445814,1.549238,-0.04532718,0.02374115,1.527134,0.04310438,-0.06637174,1.650654,0.04066873,-0.3775869,1.634657,-0.1000111,0.1165932,1.605725,-0.03828863,-0.3670947,1.599119,-0.1631792,-0.1312211,1.642743,0.1973474,-0.07987174,1.513791,NA,NA,NotTracked,Unknown,
0.9165039,-0.3833008,0.07714844,-0.5634766,0.6850586,0.4746094,0,-2,-2,-2,0,-1,-1,0,28,14,27,-9,7,28,-12,14,9.5625,9.5625,9.5625,-20.5,-20.5,-20.5,2.786191,3.124434,7.55876,6.771592,5.93167,1.572857,-0.1501477,-0.4390441,1.543952,-0.0431164,0.1006875,1.506713,0.06354545,0.3770726,1.634918,-0.1937599,-0.44352,1.547533,-0.04280529,0.03599682,1.527135,0.04348749,-0.06655063,1.650783,0.04104819,-0.377993,1.634382,-0.09845718,0.1166767,1.604568,-0.03794261,-0.3675354,1.598482,-0.1629509,-0.1310493,1.643022,0.1938852,-0.07663515,1.508794,NA,NA,NotTracked,Unknown,
0.9199219,-0.3984375,0.07861328,-0.4267578,0.7612305,0.5834961,-1,0,0,-2,-1,-1,2,0,1,9,-7,-23,45,-4,15,-29,3.75,3.75,3.75,-31.375,-31.375,-31.375,2.788373,3.123888,7.567557,6.760504,5.934824,1.658503,-0.1503012,-0.4372793,1.5457,-0.03292936,0.09117998,1.522302,0.06418606,0.3770599,1.635207,-0.1949742,-0.4448206,1.553492,-0.06075034,0.04518501,1.538837,0.04366105,-0.06662449,1.650859,0.04102354,-0.3782138,1.634175,-0.09790518,0.1167027,1.604273,-0.03804656,-0.3677669,1.598133,-0.1627398,-0.1311372,1.643385,0.1930391,-0.07622153,1.508559,NA,NA,NotTracked,NotTracked,
0.8984375,-0.4199219,0.06689453,-0.6850586,0.9736328,-0.5825195,-1,-3,0,-4,-1,-1,-2,-2,19,1,4,13,-31,-42,-7,29,-6.5625,-6.5625,-6.5625,-21.9375,-21.9375,-21.9375,2.776707,3.12094,7.57141,6.847447,5.924944,1.852118,-0.1510527,-0.4376304,1.545905,-0.0265633,0.07910564,1.538275,0.0643739,0.3770829,1.635265,-0.1967572,-0.4398907,1.5605,-0.05953969,0.03324477,1.533342,0.0436953,-0.06663596,1.650859,0.04095024,-0.3783125,1.634012,-0.09825325,0.116997,1.605843,-0.0381348,-0.3678328,1.598057,-0.1625886,-0.1313073,1.643719,0.1923403,-0.07531049,1.509071,NA,NA,NotTracked,NotTracked,
0.9521484,-0.3330078,0.1074219,-0.6806641,0.690918,0.3569336,1,1,0,0,0,-1,1,1,36,9,2,13,-73,-12,22,-9,-0.5,-0.5,-0.5,-12.8125,-12.8125,-12.8125,2.786961,3.125595,7.558156,6.775759,5.941866,1.752063,-0.1515728,-0.4376535,1.544349,-0.02717275,0.07877975,1.532231,0.06453548,0.3769551,1.635208,-0.1951518,-0.4383499,1.549957,-0.05896978,0.03300971,1.534497,0.04377576,-0.06671377,1.650804,0.04092773,-0.3783929,1.633861,-0.09831528,0.1170632,1.606416,-0.03818909,-0.3678783,1.598011,-0.1625672,-0.1313679,1.643752,0.1919178,-0.07607794,1.510306,NA,NA,NotTracked,NotTracked,
0.8857422,-0.4946289,0.06738281,-0.6005859,0.7661133,0.4370117,0,0,-1,-1,0,-1,-2,0,15,-4,-30,-4,-72,-39,-18,18,1.0625,1.0625,1.0625,13.75,13.75,13.75,2.772202,3.126274,7.557292,6.710175,5.939724,1.641534,-0.1514136,-0.4366836,1.54426,-0.03663836,0.0882792,1.524233,0.06486382,0.3767867,1.634946,-0.1976758,-0.4607936,1.5515,-0.06832665,0.04215931,1.541863,0.04380279,-0.06673685,1.65074,0.04088252,-0.3784752,1.633579,-0.09825706,0.1170733,1.60635,-0.03827684,-0.3679299,1.597737,-0.162407,-0.1311148,1.643723,0.1910211,-0.07611538,1.510616,NA,NA,NotTracked,NotTracked,
0.9545898,-0.3085938,0.06640625,-0.2143555,0.796875,0.7939453,1,1,-1,-1,0,-1,0,-2,22,-1,8,31,103,23,11,22,-19.25,-19.25,-19.25,-6.375,-6.375,-6.375,2.781701,3.115519,7.563762,6.705923,5.915019,1.649149,-0.151517,-0.4370076,1.545007,-0.03694391,0.08923604,1.524253,0.06498938,0.376718,1.634848,-0.1966773,-0.4434623,1.554944,-0.0690515,0.04455237,1.544152,0.04386829,-0.06677866,1.65072,0.04089122,-0.3786028,1.63342,-0.09808303,0.117074,1.605971,-0.0383056,-0.3680611,1.597468,-0.162316,-0.1310848,1.643775,0.1899742,-0.07628738,1.510945,NA,NA,NotTracked,NotTracked,
0.9375,-0.4389648,0.05957031,-0.7573242,0.9384766,-0.5483398,-1,-2,-3,0,-2,-2,-5,-2,18,3,13,23,76,9,-12,-3,12.125,12.125,12.125,-17.875,-17.875,-17.875,2.767253,3.122954,7.561751,6.839028,5.922511,1.854448,-0.1518226,-0.4372136,1.544407,-0.02771852,0.07639413,1.537775,0.06516851,0.3766015,1.634675,-0.1950783,-0.4455885,1.548367,-0.06197425,0.03127441,1.536142,0.04387684,-0.06683618,1.650639,0.04075634,-0.378656,1.633277,-0.09840809,0.1172526,1.606782,-0.03844752,-0.3680874,1.597449,-0.1623514,-0.131019,1.643669,0.1897238,-0.07632276,1.510819,NA,NA,NotTracked,NotTracked,
0.9711914,-0.2866211,0.1142578,-0.7426758,0.7080078,0.3457031,-1,-1,-2,-1,0,2,1,0,-36,-3,-6,-14,-4,-10,-31,-36,-13.25,-13.25,-13.25,-20.375,-20.375,-20.375,2.774684,3.122833,7.542776,6.798138,5.928375,1.800704,-0.1525811,-0.4373123,1.542133,-0.02667015,0.07798772,1.53487,0.06527665,0.3765183,1.634598,-0.1971514,-0.4538646,1.542364,-0.06269655,0.03651026,1.537593,0.04394836,-0.06688935,1.650588,0.04075119,-0.3786849,1.633212,-0.09846754,0.1173378,1.607129,-0.03845849,-0.3681103,1.59744,-0.1625852,-0.1313747,1.64323,0.1897586,-0.07634158,1.510417,NA,NA,NotTracked,NotTracked,
0.8959961,-0.3608398,0.02490234,-0.5556641,0.7797852,0.3789063,0,0,-3,-2,-1,-1,-1,-1,3,-1,-6,-1,-18,4,6,5,36.5625,36.5625,36.5625,2.0625,2.0625,2.0625,2.784052,3.120171,7.542221,6.770897,5.943852,1.75536,-0.1520783,-0.4368553,1.542607,-0.02874115,0.08018324,1.533202,0.06533574,0.3765227,1.634389,-0.1946566,-0.4533349,1.541215,-0.06328937,0.03630585,1.537795,0.04401572,-0.06688753,1.650397,0.04081545,-0.3787131,1.632899,-0.0985769,0.1173573,1.607301,-0.03845463,-0.3681507,1.597185,-0.1627078,-0.1310941,1.642849,0.1899171,-0.07633209,1.510628,NA,NA,NotTracked,NotTracked,
0.8876953,-0.465332,0.05175781,-0.4648438,0.659668,0.3422852,0,-1,-1,-1,-1,1,2,-1,-22,-10,1,-10,-14,-5,0,-14,-37,-37,-37,-9.1875,-9.1875,-9.1875,2.756277,3.109691,7.538992,6.731765,5.934175,1.720851,-0.1519169,-0.4364877,1.542489,-0.03197822,0.0826261,1.530344,0.06536712,0.3765568,1.634306,-0.1948896,-0.4519917,1.542836,-0.07099519,0.04071777,1.543557,0.04405981,-0.06691989,1.650309,0.04082714,-0.3787917,1.632783,-0.09856635,0.1173505,1.607314,-0.03846885,-0.3682192,1.597023,-0.1627409,-0.1308905,1.642586,0.18966,-0.07729517,1.511281,NA,NA,NotTracked,NotTracked,
0.9311523,-0.2954102,0.06494141,-0.3466797,0.6884766,0.3955078,0,-2,-1,-1,-2,-1,1,1,4,-1,1,11,23,7,9,1,18.8125,18.8125,18.8125,-1.875,-1.875,-1.875,2.782958,3.11619,7.529447,6.651058,5.843215,1.560792,-0.1520371,-0.4363759,1.541587,-0.03909725,0.08165103,1.521417,0.06536257,0.3766645,1.634233,-0.1939545,-0.4445586,1.536455,-0.07053193,0.03302826,1.544041,0.04408332,-0.0669179,1.650267,0.04093372,-0.3788474,1.632752,-0.09867606,0.1171866,1.606974,-0.03832721,-0.3682916,1.596884,-0.1628661,-0.1312239,1.642228,0.1913478,-0.08190129,1.515569,NA,NA,NotTracked,NotTracked,
0.9389648,-0.3681641,0.05566406,-0.2495117,0.6850586,0.4794922,-1,-1,-1,-1,-2,-2,-1,-2,-28,-7,-4,-5,-8,-1,-2,-1,5,5,5,6.1875,6.1875,6.1875,2.787394,3.114781,7.514013,6.547266,5.649754,1.334898,-0.1517621,-0.4367961,1.541705,-0.03754,0.06783433,1.498942,0.0647931,0.3767641,1.633898,-0.1956215,-0.4363029,1.546625,-0.08676983,0.05772914,1.459328,0.04408985,-0.06688068,1.650181,0.04102135,-0.3787744,1.632756,-0.1000051,0.1165861,1.606254,-0.03818881,-0.3682469,1.596868,-0.162918,-0.1312514,1.642109,0.1993456,-0.08775561,1.524182,NA,NA,NotTracked,Unknown,
0.9199219,-0.3349609,0.04931641,-0.1386719,0.5605469,0.5869141,-1,-3,0,-1,0,-1,-2,-1,-10,1,-4,-10,-16,11,7,1,10,10,10,-24.6875,-24.6875,-24.6875,2.807531,3.108644,7.513025,6.432244,5.161933,1.048506,-0.1517611,-0.4372395,1.543949,-0.05197356,-0.003917177,1.444667,0.06320561,0.3771634,1.633515,-0.1953467,-0.437043,1.546443,-0.04403501,0.04297899,1.498207,0.04371827,-0.0662846,1.650047,0.04086779,-0.3773089,1.633075,-0.1172827,0.1204806,1.622399,-0.03807062,-0.3668855,1.597657,-0.1630266,-0.1314914,1.642061,0.2104089,-0.09153596,1.538141,NA,NA,NotTracked,Unknown,
0.9204102,-0.3828125,0.07958984,0.04248047,0.7402344,0.6411133,-2,-1,-2,-1,1,-3,-2,-3,18,-19,3,-7,-14,4,36,0,7.875,7.875,7.875,13.125,13.125,13.125,2.806405,3.103282,7.526984,6.423346,4.681493,0.8678641,-0.1525133,-0.4382539,1.546707,-0.01225789,-0.1343686,1.411212,0.06054692,0.3781955,1.633065,-0.1965748,-0.4480072,1.547504,-0.05349614,-0.1746382,1.43619,0.04265825,-0.06503867,1.649914,0.04018155,-0.3755355,1.633413,-0.1194343,0.120884,1.626075,-0.0385347,-0.3653122,1.598131,-0.1637032,-0.130576,1.642231,0.2311998,-0.09689862,1.565995,NA,NA,NotTracked,Unknown,
0.9282227,-0.3837891,0.09619141,1.019531,0.8378906,1.044922,-1,0,-3,0,-2,-1,-1,-1,-17,-10,1,5,2,-21,9,-11,7.5625,7.5625,7.5625,-32.5625,-32.5625,-32.5625,2.816527,3.101915,7.542723,6.461137,4.038806,0.6382822,-0.1530691,-0.4384212,1.547204,0.03266128,-0.2563632,1.413115,0.05709552,0.3788175,1.632246,-0.1980129,-0.4569953,1.550444,0.05838756,-0.2589021,1.387857,0.04189861,-0.065051,1.649599,0.03969649,-0.375864,1.633536,-0.1209855,0.1205965,1.627222,-0.03888453,-0.3656458,1.598368,-0.16418,-0.1296429,1.64276,0.2789261,-0.131001,1.57673,NA,NA,NotTracked,Unknown,
0.9213867,-0.3574219,0.08398438,0.3564453,0.609375,-0.4912109,-1,-1,-1,-1,-2,-1,-2,1,-11,-5,7,4,-2,-6,-7,0,4.8125,4.8125,4.8125,18.9375,18.9375,18.9375,2.838006,3.107052,7.536286,6.600771,3.7574,0.4739461,-0.1532522,-0.4385752,1.545855,0.09660679,-0.3500293,1.440965,0.05415493,0.3792053,1.63143,-0.1962078,-0.4495856,1.545834,0.133083,-0.3986773,1.477467,0.03927807,-0.06567052,1.649126,0.03489501,-0.3779683,1.634024,-0.1231188,0.1200049,1.627861,-0.04395666,-0.366434,1.598935,-0.1647155,-0.1295622,1.643108,0.2443903,-0.1023416,1.60565,NA,NA,NotTracked,Closed,
0.9233398,-0.3740234,0.08300781,1.519531,0.5214844,0.4233398,-1,-3,-2,0,-1,-2,0,-4,-18,0,-1,-3,-4,-6,-5,-5,-2.5625,-2.5625,-2.5625,-50.3125,-50.3125,-50.3125,2.835584,3.105325,7.536274,6.945992,3.309651,9.945929,-0.1535604,-0.4394844,1.54626,0.1645941,-0.4119904,1.462419,0.05218827,0.3793222,1.630712,-0.1964864,-0.4524601,1.545995,0.1851711,-0.4300307,1.444396,0.03689909,-0.06582927,1.64797,0.03147884,-0.3781598,1.632767,-0.1247629,0.1199561,1.628643,-0.04875604,-0.3655319,1.597283,-0.1654859,-0.1292026,1.643239,0.2429025,-0.1172259,1.613227,NA,NA,NotTracked,Closed,
0.9477539,-0.3666992,0.08300781,1.134766,0.3955078,0.06152344,-1,0,0,-1,-1,0,-1,-2,21,5,4,3,1,3,-7,-5,-2.25,-2.25,-2.25,8.125,8.125,8.125,2.831175,3.103251,7.538524,7.316459,3.107316,9.53273,-0.1538486,-0.4385427,1.545284,0.210848,-0.45046,1.504758,0.05077539,0.379463,1.629231,-0.1990527,-0.4432406,1.553782,0.2522163,-0.4592814,1.5172,0.03691213,-0.06597156,1.647524,0.03287124,-0.3787664,1.632473,-0.1255382,0.119808,1.628533,-0.04680093,-0.3668204,1.596873,-0.1667494,-0.1309105,1.642748,0.2432472,-0.1350377,1.617669,NA,NA,NotTracked,Unknown,
0.9169922,-0.3481445,0.07226563,1.416016,0.5498047,0.2275391,-2,-2,-2,0,0,-1,-1,-1,14,4,-2,-1,2,0,1,1,-0.3125,-0.3125,-0.3125,-20.1875,-20.1875,-20.1875,2.819989,3.096697,7.543653,7.508436,2.972417,9.284597,-0.1546588,-0.4392234,1.545445,0.2297063,-0.4686714,1.541106,0.0498826,0.3794537,1.62805,-0.1974605,-0.4427705,1.547384,0.2656027,-0.4592375,1.534436,0.03712891,-0.06611675,1.647225,0.03473121,-0.3794607,1.63248,-0.1262899,0.119925,1.628352,-0.04421889,-0.3681843,1.596621,-0.1672166,-0.1308574,1.642301,0.2459681,-0.1493945,1.626341,NA,NA,NotTracked,NotTracked,
0.9150391,-0.3486328,0.09033203,0.2807617,0.2875977,-0.3818359,-2,-1,-3,-1,-1,0,1,3,-2,-5,2,1,-1,-4,-6,-10,-2.5625,-2.5625,-2.5625,-38.375,-38.375,-38.375,2.817635,3.092763,7.543107,7.571207,2.923339,9.159276,-0.1551705,-0.4384897,1.544543,0.2348818,-0.4681014,1.567621,0.04939262,0.3792008,1.62653,-0.1983382,-0.4418218,1.547058,0.2730013,-0.4749074,1.572923,0.03742557,-0.06628317,1.646696,0.03590136,-0.3796901,1.632329,-0.1267866,0.1201954,1.627899,-0.04284135,-0.3687108,1.59643,-0.1680795,-0.1322215,1.641176,0.2473294,-0.1518571,1.639738,NA,NA,NotTracked,NotTracked,
0.9448242,-0.3515625,0.09277344,0.3154297,0.1430664,-0.3959961,-3,-2,-2,1,-1,-1,0,-2,-22,-1,0,-2,0,6,-2,-3,-2.0625,-2.0625,-2.0625,-48.625,-48.625,-48.625,2.818866,3.091548,7.540443,7.490298,2.878232,9.113732,-0.1550476,-0.4403298,1.54411,0.2378197,-0.4646398,1.585681,0.04903071,0.3789516,1.625317,-0.1974375,-0.4455937,1.547254,0.2771481,-0.4427574,1.597667,0.03786959,-0.0665039,1.64621,0.03760452,-0.3799878,1.632363,-0.1271419,0.1200989,1.627151,-0.04091301,-0.3694699,1.596522,-0.1685107,-0.1337706,1.640099,0.2464476,-0.1512156,1.648809,NA,NA,NotTracked,NotTracked,
0.9384766,-0.347168,0.07373047,0.3974609,0.3129883,-0.5712891,-1,-2,-2,-1,-1,-1,-2,-2,-6,-1,-1,-3,-5,-8,-2,-2,0.125,0.125,0.125,-22.75,-22.75,-22.75,2.82712,3.091352,7.530919,7.397297,2.868669,9.164342,-0.1541976,-0.4376647,1.543849,0.2337917,-0.4531612,1.593832,0.04876591,0.3786917,1.624142,-0.1976971,-0.4474672,1.547629,0.2609333,-0.4739892,1.596286,0.03848659,-0.06657545,1.645885,0.04014181,-0.3799017,1.63282,-0.1272209,0.120083,1.626645,-0.03845877,-0.3699013,1.596879,-0.1685804,-0.1338653,1.639803,0.2433872,-0.1514205,1.657575,NA,NA,NotTracked,NotTracked,
0.9199219,-0.3574219,0.05712891,0.53125,0.2104492,-0.6694336,-2,0,-1,-2,-1,0,-2,-3,15,7,3,1,4,7,5,3,-4.25,-4.25,-4.25,-32.75,-32.75,-32.75,2.82611,3.089178,7.523304,7.408203,2.875783,9.092164,-0.153665,-0.4378444,1.542916,0.2311807,-0.4544353,1.595052,0.04869487,0.3784575,1.623302,-0.1945208,-0.4474825,1.54272,0.2603993,-0.4616714,1.61475,0.03901367,-0.06661547,1.645707,0.04195701,-0.3797388,1.63334,-0.12747,0.1200237,1.625987,-0.03682714,-0.3701703,1.597435,-0.1686,-0.1341486,1.639508,0.2411453,-0.1494049,1.661055,NA,NA,NotTracked,NotTracked,
0.934082,-0.3540039,0.06591797,1.304688,0.3481445,-0.02099609,-1,0,-1,-1,-2,0,-1,1,-3,4,3,2,2,9,-2,-1,-4.75,-4.75,-4.75,10.125,10.125,10.125,2.82011,3.088242,7.521412,7.435824,2.881934,9.06418,-0.1536885,-0.4383677,1.54428,0.2283971,-0.4704194,1.591528,0.04871212,0.3782548,1.622635,-0.198105,-0.4507794,1.549208,0.2651051,-0.4366472,1.613,0.03957167,-0.06661605,1.645694,0.04358779,-0.379537,1.633923,-0.1275968,0.1200875,1.625422,-0.03528031,-0.3703247,1.597772,-0.1687474,-0.1343553,1.639198,0.2403112,-0.1486061,1.663226,NA,NA,NotTracked,NotTracked,
0.934082,-0.3422852,0.08300781,0.9335938,0.1875,0.1079102,0,-2,-1,-1,-3,0,0,0,28,7,-1,-1,-2,-4,10,1,-2.875,-2.875,-2.875,-5.625,-5.625,-5.625,2.817352,3.086197,7.518929,7.423563,2.881596,9.071146,-0.1539589,-0.4389379,1.545741,0.2304605,-0.4715391,1.593295,0.04868063,0.378202,1.622488,-0.1976019,-0.449154,1.546774,0.2681266,-0.4316295,1.611091,0.03990098,-0.066567,1.645802,0.04454996,-0.3793634,1.634437,-0.1276229,0.1200321,1.625176,-0.03436352,-0.3703634,1.598218,-0.1687627,-0.134381,1.639088,0.2400632,-0.1483073,1.665143,NA,NA,NotTracked,NotTracked,
0.9379883,-0.3388672,0.078125,0.9458008,0.2075195,0.06689453,-1,-1,0,-1,0,-1,-1,-1,-6,-4,-2,0,-2,-4,-2,-11,5,5,5,3.125,3.125,3.125,2.823244,3.085477,7.516959,7.361719,2.877012,9.133614,-0.1533401,-0.4372459,1.544219,0.2294501,-0.4712376,1.590554,0.0487064,0.3781015,1.622305,-0.1969761,-0.4347959,1.549,0.265112,-0.4457144,1.612278,0.04032252,-0.06658813,1.6458,0.04502385,-0.3793165,1.634555,-0.1276318,0.1200086,1.624914,-0.03389142,-0.3704197,1.598342,-0.1687777,-0.1342177,1.63882,0.2399115,-0.1481357,1.665784,NA,NA,NotTracked,NotTracked,
0.9301758,-0.3564453,0.06835938,0.953125,0.2314453,0.015625,-2,0,-2,2,1,3,2,0,6,0,2,2,0,-2,0,1,2.3125,2.3125,2.3125,-9.125,-9.125,-9.125,2.824351,3.083937,7.522004,7.333855,2.877057,9.155876,-0.1532288,-0.4381374,1.545722,0.231418,-0.450121,1.5939,0.04872632,0.377997,1.622193,-0.1995316,-0.4562423,1.555,0.2662422,-0.4314134,1.613556,0.04074377,-0.06657888,1.645923,0.04571876,-0.3791911,1.634928,-0.1276229,0.1200561,1.624773,-0.03318337,-0.3704322,1.598761,-0.1688113,-0.1342475,1.63873,0.2398466,-0.1481096,1.666033,NA,NA,NotTracked,NotTracked,
0.9301758,-0.3549805,0.06640625,0.9580078,0.2041016,0.01708984,-2,-2,-1,-1,-1,0,-2,-1,1,3,0,-1,-2,0,2,0,2.9375,2.9375,2.9375,-5.375,-5.375,-5.375,2.818042,3.082951,7.535461,7.338553,2.877502,9.139193,-0.1534607,-0.4385601,1.546924,0.2277462,-0.4666945,1.589112,0.04869903,0.3779177,1.621987,-0.1991375,-0.4526795,1.553851,0.2601709,-0.4513634,1.604167,0.04102641,-0.06656765,1.645932,0.0461127,-0.3791393,1.635089,-0.1275903,0.1200441,1.624696,-0.0327866,-0.3704598,1.598959,-0.1688055,-0.1342366,1.638743,0.2398092,-0.1480517,1.666038,NA,NA,NotTracked,NotTracked,
0.9228516,-0.3579102,0.08496094,0.9414063,0.2109375,0.08203125,-1,-1,-2,-1,-1,0,-1,-1,-33,-9,0,1,-3,-7,-15,-6,0.625,0.625,0.625,3.3125,3.3125,3.3125,2.818134,3.083408,7.536785,7.320789,2.875964,9.159861,-0.1534121,-0.4379241,1.547327,0.2277728,-0.4705402,1.588273,0.04871469,0.3778826,1.621879,-0.1961141,-0.4284518,1.55276,0.2582925,-0.4642051,1.598176,0.04132137,-0.06655851,1.645911,0.04641493,-0.3790315,1.635208,-0.127593,0.1200431,1.624691,-0.03254316,-0.3704255,1.599089,-0.1686659,-0.1341646,1.639067,0.2397668,-0.1479306,1.666043,NA,NA,NotTracked,NotTracked,
0.9355469,-0.3505859,0.08300781,0.9506836,0.2109375,0.04736328,-1,-2,-1,-3,-2,-1,2,-1,-12,-2,1,0,-2,-8,-7,0,2.5,2.5,2.5,1.6875,1.6875,1.6875,2.823428,3.086295,7.537457,7.296519,2.874476,9.188156,-0.1530795,-0.4376757,1.547851,0.2278775,-0.4732783,1.588086,0.04871856,0.3778383,1.621851,-0.1964449,-0.440512,1.550564,0.2576907,-0.4828844,1.599286,0.04156925,-0.06658422,1.646033,0.04665245,-0.3790236,1.6354,-0.1275793,0.1200482,1.624734,-0.03227823,-0.370459,1.599351,-0.1687101,-0.1341908,1.639287,0.2397146,-0.1481066,1.666284,NA,NA,NotTracked,NotTracked,
0.9282227,-0.3579102,0.06835938,0.9516602,0.2011719,0.04248047,-1,-2,0,-2,-1,0,-2,-1,-12,-10,-5,-4,-6,3,-9,-5,1.4375,1.4375,1.4375,-1.25,-1.25,-1.25,2.824801,3.087977,7.538511,7.27892,2.872496,9.205482,-0.1530589,-0.4374442,1.548011,0.2276779,-0.4738005,1.587978,0.04875502,0.3777954,1.621768,-0.196211,-0.4403437,1.551701,0.2571402,-0.4732547,1.596822,0.04177189,-0.06658371,1.646031,0.04714552,-0.3789416,1.635519,-0.1275538,0.120061,1.624829,-0.03181991,-0.3704315,1.59948,-0.168589,-0.1342647,1.639525,0.2396425,-0.1481819,1.666534,NA,NA,NotTracked,NotTracked,
0.9311523,-0.3613281,0.06445313,0.9482422,0.215332,0.05957031,-1,-3,-1,-1,0,-1,2,-3,6,2,-2,-3,-1,3,4,0,-1.1875,-1.1875,-1.1875,-2.375,-2.375,-2.375,2.820806,3.088167,7.54237,7.265545,2.871368,9.213587,-0.1529122,-0.4376244,1.547682,0.2319843,-0.4510747,1.593796,0.04880627,0.3777367,1.62176,-0.1961151,-0.4433616,1.550892,0.2652975,-0.4454184,1.608545,0.04196947,-0.06662766,1.646092,0.04730751,-0.378952,1.635603,-0.1274609,0.1200402,1.624803,-0.03164711,-0.3704783,1.599589,-0.1684104,-0.1343578,1.639656,0.2397106,-0.1482099,1.666677,NA,NA,NotTracked,NotTracked,
0.934082,-0.3515625,0.06884766,0.949707,0.2026367,0.06542969,-3,-2,-1,-3,-2,-1,-3,-25,4,-5,-4,-3,0,1,2,-4,-1.375,-1.375,-1.375,1,1,1,2.820449,3.088253,7.541462,7.248031,2.871668,9.22754,-0.1527581,-0.437809,1.548552,0.2286689,-0.4706547,1.588963,0.04892399,0.3776038,1.62175,-0.1967653,-0.4328993,1.560417,0.2618718,-0.4485675,1.603804,0.04222888,-0.06666443,1.646228,0.04748089,-0.3789281,1.635728,-0.1272294,0.1200554,1.624928,-0.03148041,-0.370476,1.599718,-0.1681802,-0.1342894,1.640003,0.2397551,-0.1482011,1.666841,NA,NA,NotTracked,NotTracked,
0.9267578,-0.3564453,0.08056641,0.9545898,0.2138672,0.04785156,-2,-3,-1,-1,0,-1,-1,-5,-10,-6,-4,-2,0,12,0,-6,-1.1875,-1.1875,-1.1875,0.1875,0.1875,0.1875,2.82232,3.089396,7.537365,7.242619,2.871822,9.23383,-0.1525311,-0.4373527,1.54762,0.2291964,-0.4679723,1.589146,0.04908736,0.3775539,1.621756,-0.1952263,-0.4378609,1.552056,0.2546414,-0.4893711,1.589737,0.04252968,-0.06663625,1.646313,0.04773165,-0.3788607,1.635777,-0.1271407,0.1200761,1.62506,-0.03125337,-0.370444,1.599765,-0.1681079,-0.1343104,1.640059,0.2397868,-0.1479528,1.667039,NA,NA,NotTracked,NotTracked,
