ALX,ALY,ALZ,ARX,ARY,ARZ,EMG0L,EMG1L,EMG2L,EMG3L,EMG4L,EMG5L,EMG6L,EMG7L,EMG0R,EMG1R,EMG2R,EMG3R,EMG4R,EMG5R,EMG6R,EMG7R,GLX,GLY,GLZ,GRX,GRY,GRZ,ORL,OPL,OYL,ORR,OPR,OYR,LHNX,LHNY,LHNZ,RHNX,RHNY,RHNZ,HX,HY,HZ,LTX,LTY,LTZ,RTX,RTY,RTZ,SpineMidX,SpineMidY,SpineMidZ,SpineBaseX,SpineBaseY,SpineBaseZ,ShoulderLeftX,ShoulderLeftY,ShoulderLeftZ,ShoulderRightX,ShoulderRightY,ShoulderRightZ,ElbowLeftX,ElbowLeftY,ElbowLeftZ,ElbowRightX,ElbowRightY,ElbowRightZ,Myo_Pose_left,Myo_Pose_Right,Kinect_pose_left,Kinect_pose_right
0.925293,-0.3515625,0.1577148,-0.4360352,0.5737305,0.4707031,0,-1,-1,-2,-1,-1,1,-1,-8,-9,0,-2,2,32,16,-23,-19.5625,-19.5625,-19.5625,60.1875,60.1875,60.1875,3.022598,3.108982,6.910648,6.346053,5.30349,9.854512,-0.09400415,-0.4190285,1.532287,0.1227301,0.004872404,1.425463,0.0922115,0.392761,1.611321,-0.1421286,-0.4149586,1.552809,0.1457712,-0.021925,1.386571,0.08036047,-0.06585564,1.641163,0.08085883,-0.3771675,1.632396,-0.0867437,0.1230346,1.621026,0.001315502,-0.3669707,1.59375,-0.1273443,-0.1295488,1.638624,0.3005542,-0.09765315,1.641004,NA,NA,NotTracked,Unknown,
0.9458008,-0.3432617,0.1049805,-0.2705078,0.6279297,0.5483398,-3,-4,-1,0,-1,-2,0,0,-2,-10,-5,1,4,8,7,-5,-3.1875,-3.1875,-3.1875,22.5,22.5,22.5,3.012131,3.117444,6.901753,6.507829,5.994744,0.0182201,-0.09422971,-0.4162146,1.531849,0.0730088,-0.02170445,1.329458,0.095498,0.391954,1.61005,-0.1373488,-0.4316047,1.543882,0.09290757,-0.01860333,1.305684,0.08031568,-0.06588377,1.641352,0.08082299,-0.3774124,1.632418,-0.08643748,0.1233568,1.620936,0.001197599,-0.367401,1.593927,-0.1271652,-0.1281853,1.638143,0.2956504,-0.100043,1.607964,NA,NA,NotTracked,Unknown,
0.9267578,-0.3632813,0.09667969,-0.2905273,0.637207,0.4589844,1,-1,-2,-1,0,-2,2,0,-1,-10,-14,-4,3,-4,-2,4,-2.9375,-2.9375,-2.9375,21.5625,21.5625,21.5625,3.005239,3.122105,6.902738,6.605422,6.270485,0.141529,-0.09086114,-0.4229546,1.529361,0.05557108,-0.01536758,1.302413,0.09757219,0.3908805,1.60925,-0.1406121,-0.4020736,1.548143,0.07575358,-0.01237137,1.278624,0.08015808,-0.06697144,1.641217,0.08078215,-0.3787335,1.632329,-0.08624734,0.1236444,1.621231,0.0007841738,-0.3691914,1.594643,-0.1268498,-0.1277698,1.638197,0.2802714,-0.09963015,1.579669,NA,NA,NotTracked,Unknown,
0.9101563,-0.3496094,0.1005859,-0.5957031,0.5898438,0.4121094,0,1,0,0,0,-3,-1,-3,-9,-5,-6,-7,-7,8,5,2,-0.1875,-0.1875,-0.1875,-0.8125,-0.8125,-0.8125,3.008162,3.125807,6.896992,6.69278,6.33584,0.2440648,-0.09395827,-0.4135291,1.532794,0.04895941,-0.006898895,1.290396,0.09891348,0.3897022,1.608985,-0.1413293,-0.4126728,1.555604,0.06925151,-0.004052585,1.266601,0.07941148,-0.06846748,1.639876,0.08048224,-0.3807293,1.632049,-0.08574623,0.1234475,1.621952,6.599518E-05,-0.3713741,1.595464,-0.1267654,-0.1277367,1.638232,0.2757776,-0.1010907,1.565057,NA,NA,NotTracked,Unknown,
0.9228516,-0.3564453,0.1352539,-0.7558594,0.5395508,0.3554688,-1,-1,-3,-1,-1,-1,-1,-2,-2,-5,3,-1,8,28,-17,-10,4.4375,4.4375,4.4375,1.4375,1.4375,1.4375,3.012676,3.12514,6.896404,6.741092,6.333463,0.2980441,-0.0945664,-0.4146751,1.533717,0.04862053,-0.002983597,1.285691,0.1000519,0.3880057,1.60924,-0.1399148,-0.4154037,1.548102,0.06891551,-0.000207603,1.261896,0.07870459,-0.06917953,1.639409,0.08048397,-0.3817545,1.63211,-0.08544654,0.1235153,1.622672,-0.0001041341,-0.3725092,1.59608,-0.1266792,-0.127861,1.638496,0.2760677,-0.09970316,1.559231,NA,NA,NotTracked,Unknown,
0.9174805,-0.3774414,0.1289063,-0.7294922,0.5776367,0.3022461,0,-1,-1,-1,0,-1,0,-1,-3,3,-3,-2,-1,-18,-2,-14,0.375,0.375,0.375,6.6875,6.6875,6.6875,3.009661,3.120994,6.904766,6.736073,6.346481,0.2987895,-0.09526617,-0.4118629,1.536004,0.04898794,-0.0004840766,1.283526,0.1004708,0.3873805,1.609236,-0.1425898,-0.4080956,1.552475,0.06932119,0.002111157,1.259913,0.07825237,-0.06941989,1.639051,0.08038523,-0.3820527,1.632144,-0.08522199,0.1236827,1.623307,-0.0003337951,-0.3729054,1.596505,-0.1266877,-0.1277403,1.638772,0.2768966,-0.0987621,1.556383,NA,NA,NotTracked,Unknown,
0.909668,-0.3867188,0.1450195,-0.7734375,0.5732422,0.2866211,-1,-1,-2,0,1,1,0,-2,-14,0,-11,-4,-4,-4,-3,4,-2.4375,-2.4375,-2.4375,-7.4375,-7.4375,-7.4375,3.003333,3.123704,6.906458,6.720826,6.348412,0.2941573,-0.09530283,-0.411749,1.535475,0.04914798,0.0004810855,1.282368,0.1007439,0.3869769,1.609253,-0.1442055,-0.393207,1.554238,0.06965122,0.002332738,1.259722,0.07778943,-0.06950693,1.638712,0.08025131,-0.3823614,1.632156,-0.08504324,0.1240095,1.623847,-0.0005288213,-0.3732251,1.596808,-0.1265638,-0.1278913,1.639073,0.2771944,-0.09819385,1.554972,NA,NA,NotTracked,Unknown,
0.9213867,-0.3491211,0.1142578,-0.675293,0.6879883,0.340332,-2,-1,-1,-2,1,0,1,0,-17,-12,-9,-2,-5,6,-1,-2,3,3,3,6.0625,6.0625,6.0625,3.003736,3.127794,6.910376,6.731687,6.31781,0.2947121,-0.0953665,-0.4119019,1.534963,0.04936205,0.001174968,1.28136,0.1008809,0.3868872,1.609379,-0.143107,-0.4056054,1.553147,0.06983331,0.002810348,1.259011,0.0767649,-0.06982592,1.638697,0.0800908,-0.3827362,1.632153,-0.08497554,0.1241299,1.624171,-0.0007779361,-0.3736336,1.597023,-0.1266883,-0.1277988,1.639313,0.2775754,-0.09758308,1.553841,NA,NA,NotTracked,Unknown,
0.921875,-0.3740234,0.1040039,-0.8730469,0.6865234,0.3134766,-1,-1,-1,0,-2,0,-1,-1,42,11,13,0,10,12,1,-4,3.9375,3.9375,3.9375,14.875,14.875,14.875,2.994569,3.128942,6.923182,6.758396,6.414753,0.3108967,-0.09543773,-0.4138473,1.535012,0.0497382,0.001282557,1.280856,0.1009441,0.3863744,1.609689,-0.1428016,-0.4117839,1.552687,0.07011301,0.002756413,1.258829,0.07644719,-0.07001771,1.638724,0.07985239,-0.3830729,1.63217,-0.084881,0.1241942,1.624783,-0.001139237,-0.3739999,1.597429,-0.1265028,-0.1279174,1.63946,0.2779402,-0.09665641,1.553674,NA,NA,NotTracked,Unknown,
0.9179688,-0.3554688,0.09814453,-0.8867188,0.5351563,0.1713867,1,-1,-1,-1,0,0,-3,-1,2,-8,3,6,8,17,15,-5,6.5625,6.5625,6.5625,44.375,44.375,44.375,2.995312,3.127688,6.935197,6.871463,6.572045,0.3780478,-0.09547017,-0.4136064,1.534966,0.0507312,0.003873604,1.280044,0.1005694,0.3855918,1.610023,-0.1421131,-0.4119055,1.545625,0.07086033,0.005439143,1.257297,0.07757831,-0.07004666,1.638808,0.07936241,-0.3831551,1.632111,-0.08469699,0.124311,1.624864,-0.001757794,-0.3740354,1.597777,-0.1266434,-0.1275413,1.639743,0.2793938,-0.09503848,1.553126,NA,NA,NotTracked,Unknown,
0.8999023,-0.3774414,0.1230469,-0.8618164,0.3989258,0.1396484,-3,0,-2,-1,-1,-1,2,-3,9,0,-4,0,1,-20,-13,-40,4.875,4.875,4.875,15.25,15.25,15.25,2.994807,3.124437,6.944261,7.084473,6.624641,0.5408021,-0.09589209,-0.4135759,1.534927,0.05449206,0.0104078,1.279105,0.09980804,0.384773,1.610082,-0.1422294,-0.4187628,1.544538,0.07467604,0.0129408,1.255314,0.07872017,-0.06972828,1.639164,0.07886292,-0.38299,1.632096,-0.08439893,0.1244601,1.62489,-0.002318463,-0.3738109,1.598018,-0.1266283,-0.126742,1.640118,0.2845793,-0.09167508,1.551314,NA,NA,NotTracked,Unknown,
0.9199219,-0.3876953,0.1396484,-0.8369141,0.4438477,0.1508789,-2,0,-2,-1,-2,0,-1,-2,-58,-20,3,-6,-3,33,5,-37,-6.5,-6.5,-6.5,-1.5625,-1.5625,-1.5625,2.995652,3.123352,6.940619,7.134825,6.592645,0.5934709,-0.09634097,-0.413169,1.535302,0.05815605,0.01392673,1.279284,0.09917831,0.3841047,1.610075,-0.1438417,-0.4209294,1.552909,0.07827378,0.01639588,1.255497,0.07942156,-0.06960746,1.6392,0.07809202,-0.3829012,1.632075,-0.08423411,0.1247547,1.625047,-0.003177193,-0.3736331,1.598305,-0.1267215,-0.1265375,1.640307,0.2894845,-0.09027173,1.550963,NA,NA,NotTracked,Unknown,
0.9208984,-0.355957,0.1191406,-0.8452148,0.487793,0.1386719,-1,0,-3,-2,0,0,0,-2,12,15,-2,1,-3,-20,-3,7,-1.75,-1.75,-1.75,-3.3125,-3.3125,-3.3125,3.003591,3.127741,6.926216,7.129604,6.592103,0.6002865,-0.09648905,-0.4141903,1.535153,0.05933262,0.0148131,1.279241,0.09876007,0.3835508,1.610057,-0.1432354,-0.4224452,1.551838,0.07863357,0.01612538,1.255766,0.07987347,-0.06965815,1.639101,0.07787701,-0.3829267,1.631958,-0.08421971,0.12471,1.625102,-0.003390505,-0.3736576,1.598303,-0.126822,-0.126413,1.640343,0.2908412,-0.08942732,1.550878,NA,NA,NotTracked,Unknown,
0.9282227,-0.3535156,0.1142578,-0.8652344,0.5371094,0.1176758,0,0,-3,-2,-1,-2,-1,-1,15,5,2,-1,2,10,2,0,-0.4375,-0.4375,-0.4375,-0.0625,-0.0625,-0.0625,3.00546,3.128429,6.923081,7.119874,6.60743,0.5926681,-0.09605809,-0.4139578,1.534515,0.06016103,0.01591384,1.279084,0.0982834,0.3827742,1.610146,-0.1437994,-0.4071557,1.550215,0.07927039,0.0169736,1.255642,0.08020543,-0.06981312,1.639093,0.07762639,-0.3829957,1.631963,-0.08426167,0.1247532,1.625102,-0.003666492,-0.3737108,1.598437,-0.1268284,-0.1262178,1.640204,0.2920766,-0.0891908,1.550393,NA,NA,NotTracked,Unknown,
0.9204102,-0.3530273,0.1083984,-0.765625,0.5249023,0.1445313,1,-3,-1,-1,-1,0,-1,-1,16,5,6,0,-7,-15,-4,15,-0.75,-0.75,-0.75,10,10,10,3.004434,3.125602,6.923278,7.105733,6.602612,0.5624545,-0.09573413,-0.4156769,1.533844,0.06023189,0.0162802,1.279197,0.09808343,0.3826078,1.610213,-0.144413,-0.4022956,1.55083,0.07911491,0.01693527,1.255793,0.08041628,-0.06986741,1.63906,0.07739411,-0.3830279,1.631947,-0.08427551,0.124842,1.625048,-0.003905702,-0.3737442,1.598474,-0.1268691,-0.1261313,1.640192,0.2923048,-0.0892933,1.550368,NA,NA,NotTracked,Unknown,
0.921875,-0.3681641,0.1186523,-0.4990234,0.5151367,0.2709961,-4,-2,0,0,-1,-3,1,-1,13,7,3,-1,-2,-1,-1,7,-4.25,-4.25,-4.25,18.5625,18.5625,18.5625,3.000212,3.12163,6.921079,7.005157,6.538394,0.4149078,-0.09716504,-0.4133998,1.534417,0.0603037,0.01621743,1.279586,0.09781464,0.3825912,1.610056,-0.1410092,-0.4326283,1.539444,0.07901413,0.01668771,1.256071,0.08052578,-0.06983481,1.638999,0.07704335,-0.3829751,1.631904,-0.08430418,0.1249325,1.624827,-0.004261067,-0.373706,1.598516,-0.1270965,-0.125945,1.64004,0.2923728,-0.08931588,1.550831,NA,NA,NotTracked,Unknown,
0.918457,-0.3427734,0.1162109,-0.2958984,0.5,0.4750977,0,-1,-2,1,-3,-2,-1,-1,-26,-10,-25,-9,-5,1,-2,15,7.8125,7.8125,7.8125,-19.625,-19.625,-19.625,3.008038,3.118995,6.918445,6.651946,6.218718,9.984128,-0.09715719,-0.4136804,1.533914,0.06208269,0.009455369,1.287976,0.09621993,0.3836402,1.609788,-0.1440501,-0.4148887,1.547979,0.08181999,0.01214008,1.263693,0.08026483,-0.06953929,1.6392,0.07665115,-0.3825885,1.631933,-0.08471982,0.1253325,1.624583,-0.00465994,-0.373308,1.598847,-0.1274973,-0.1255257,1.640085,0.2925655,-0.09108149,1.561727,NA,NA,NotTracked,Unknown,
0.9072266,-0.3203125,0.1118164,-0.5991211,0.5644531,0.4907227,1,-1,0,-1,0,-1,0,-2,5,-3,3,4,6,23,2,24,29.125,29.125,29.125,-44.5625,-44.5625,-44.5625,3.041234,3.119171,6.923621,6.439528,5.679762,9.737845,-0.09730614,-0.4167667,1.533941,0.1536705,0.07715145,1.520519,0.09285544,0.3857001,1.60995,-0.1452964,-0.4081663,1.550531,0.2025063,0.06206322,1.453236,0.07868053,-0.06926845,1.640297,0.07617186,-0.3825179,1.631917,-0.08651803,0.1251353,1.624514,-0.004975037,-0.3733167,1.598858,-0.128407,-0.1253633,1.640334,0.294503,-0.09385966,1.590169,NA,NA,NotTracked,Unknown,
0.9506836,-0.371582,0.1567383,-0.4819336,0.6474609,0.3828125,0,0,-1,1,0,0,2,-1,-3,3,-6,-6,-2,5,1,9,33.25,33.25,33.25,-67,-67,-67,3.078267,3.118748,6.944837,6.276297,4.743262,9.550172,-0.09712272,-0.4218908,1.533991,0.1688211,0.0105686,1.471232,0.08988978,0.3878901,1.610306,-0.1498661,-0.3966246,1.562941,0.1938879,-0.0217125,1.3924,0.07714417,-0.06899805,1.641274,0.07588316,-0.382148,1.632033,-0.08757704,0.1243554,1.624464,-0.005046096,-0.3728951,1.598292,-0.129638,-0.1262874,1.641668,0.2959034,-0.1000996,1.615066,NA,NA,NotTracked,Unknown,
0.9106445,-0.3813477,0.125,0.7192383,0.5214844,0.5317383,-3,1,-1,-1,-2,-4,-6,-4,24,1,6,-2,-9,-9,24,-8,13.6875,13.6875,13.6875,16.875,16.875,16.875,3.095323,3.120599,6.981983,6.355933,4.046251,9.418825,-0.09911555,-0.4188619,1.537065,0.1716318,-0.2087472,1.500198,0.08649785,0.3900728,1.611483,-0.1462587,-0.4114118,1.553948,0.1616413,-0.2652692,1.517542,0.07505547,-0.06798679,1.641804,0.0754016,-0.3812184,1.632178,-0.08944451,0.1235466,1.624779,-0.005243657,-0.3717752,1.597232,-0.1302458,-0.1265286,1.643462,0.2973601,-0.09565043,1.666577,NA,NA,NotTracked,Unknown,
0.902832,-0.3803711,0.1616211,1.050781,0.8681641,0.6401367,5,-6,-1,-2,-3,-5,-7,-3,-75,-33,-18,-6,-66,5,-10,-4,-4.9375,-4.9375,-4.9375,41.25,41.25,41.25,3.091019,3.121008,6.987829,6.48693,3.488022,9.321913,-0.1007361,-0.4190719,1.537579,0.1957957,-0.3564974,1.505806,0.08367368,0.3915067,1.612637,-0.1503912,-0.4119078,1.5646,0.2276327,-0.4237511,1.5378,0.07318017,-0.06727111,1.642094,0.0742511,-0.3805647,1.632066,-0.09113369,0.1233904,1.624893,-0.006244136,-0.3708955,1.596146,-0.1312022,-0.1266397,1.64414,0.2944524,-0.1085143,1.680705,NA,NA,NotTracked,Unknown,
0.8959961,-0.3500977,0.1918945,1.425781,0.4165039,0.5297852,0,2,-1,0,1,4,22,5,30,19,11,6,27,37,38,0,-31.375,-31.375,-31.375,-9.8125,-9.8125,-9.8125,3.047374,3.110582,6.998388,6.702363,3.090554,9.035344,-0.1031819,-0.4209879,1.539103,0.243482,-0.4179933,1.538379,0.08188455,0.3923249,1.613479,-0.1514703,-0.4107243,1.559126,0.29335,-0.4142574,1.563154,0.07254031,-0.06710345,1.642311,0.0741934,-0.3804749,1.631989,-0.09287438,0.1229432,1.624947,-0.006127299,-0.370763,1.595418,-0.1319163,-0.1268194,1.644188,0.2889502,-0.1326144,1.681412,NA,NA,NotTracked,NotTracked,
0.9458008,-0.3251953,0.09082031,1.193848,0.2509766,-0.0859375,5,2,-2,-2,-2,2,3,-3,-18,-20,-5,0,-18,-7,-18,-7,-34.5625,-34.5625,-34.5625,-63.4375,-63.4375,-63.4375,2.890392,3.077713,7.084468,7.19649,2.888049,8.452952,-0.1071559,-0.4236499,1.542553,0.2577066,-0.4808843,1.569981,0.08076017,0.3927673,1.614383,-0.1583486,-0.4059635,1.5688,0.2921244,-0.4911523,1.57392,0.07272097,-0.06716844,1.642682,0.07665428,-0.3808712,1.632986,-0.09392363,0.1227031,1.624895,-0.002817611,-0.3717671,1.595955,-0.1325884,-0.1274887,1.642859,0.2809096,-0.1442665,1.676052,NA,NA,NotTracked,NotTracked,
0.9609375,-0.3232422,0.01708984,0.9160156,0.2768555,0.02392578,5,-4,-2,0,2,5,9,4,3,-9,-1,-2,-1,5,10,5,-42.6875,-42.6875,-42.6875,17.6875,17.6875,17.6875,2.742417,3.042944,7.1671,7.357713,2.885207,8.285494,-0.1086171,-0.4272185,1.545282,0.2603194,-0.4546711,1.589038,0.08037817,0.3930508,1.61542,-0.1556149,-0.4185818,1.567885,0.2992297,-0.4165463,1.6101,0.07288551,-0.06721395,1.643317,0.07805169,-0.3810221,1.634172,-0.09430364,0.1225928,1.624878,-0.001193179,-0.3722785,1.59674,-0.1331057,-0.1282969,1.640732,0.2763396,-0.1457541,1.673876,NA,NA,NotTracked,NotTracked,
0.9418945,-0.3388672,-0.005859375,0.9106445,0.2783203,-0.1030273,-3,-5,0,-2,-2,-3,-3,-3,18,2,0,-3,1,0,-6,5,-14.3125,-14.3125,-14.3125,14.375,14.375,14.375,2.686445,3.03093,7.201246,7.467462,2.892639,8.226077,-0.1085692,-0.4263017,1.545483,0.2492665,-0.4686646,1.580368,0.08027122,0.3932494,1.615742,-0.1540681,-0.4196766,1.564858,0.2862515,-0.4401442,1.600125,0.07286601,-0.06711859,1.643646,0.07823987,-0.3808176,1.634548,-0.09467338,0.1225718,1.624216,-0.0009619527,-0.3721746,1.59693,-0.1332076,-0.1300409,1.638947,0.2740556,-0.1442005,1.672929,NA,NA,NotTracked,NotTracked,
0.9536133,-0.3349609,0.0546875,0.9379883,0.2714844,0.09765625,2,-2,0,-1,-3,-2,1,0,6,-1,-2,1,3,2,-3,2,2.125,2.125,2.125,-4.6875,-4.6875,-4.6875,2.705845,3.028567,7.180329,7.289919,2.889952,8.38992,-0.1108187,-0.4226981,1.547029,0.2483388,-0.4670347,1.579314,0.08009315,0.3934868,1.615913,-0.1520738,-0.4248964,1.560089,0.2870286,-0.4367312,1.594333,0.07287639,-0.06697744,1.643718,0.07834056,-0.3805563,1.634692,-0.09499547,0.1228581,1.623415,-0.0008125034,-0.3719632,1.59696,-0.133506,-0.1298651,1.637778,0.2729547,-0.1422984,1.671894,NA,NA,NotTracked,NotTracked,
0.9257813,-0.3173828,0.06005859,0.9301758,0.1938477,0.07714844,1,0,-1,0,0,-1,4,1,7,1,0,1,-1,1,7,3,5.875,5.875,5.875,-2.125,-2.125,-2.125,2.731605,3.035473,7.160244,7.21148,2.888909,8.45955,-0.1112593,-0.4190535,1.547552,0.256366,-0.4425609,1.586447,0.07997229,0.3936624,1.615952,-0.1534923,-0.4217313,1.562474,0.293681,-0.4211496,1.604222,0.07282948,-0.06682751,1.643781,0.07848607,-0.3803525,1.634859,-0.09542843,0.1228759,1.622549,-0.0006391794,-0.3718157,1.596955,-0.1335204,-0.1301295,1.637305,0.2723408,-0.1430736,1.67158,NA,NA,NotTracked,NotTracked,
0.9428711,-0.3085938,0.05761719,0.9477539,0.2651367,0.02148438,-2,-4,-1,-4,-3,-3,-4,-4,-28,-1,0,3,1,-5,-7,-6,2.4375,2.4375,2.4375,-3.125,-3.125,-3.125,2.751209,3.034752,7.145524,7.225588,2.893719,8.448022,-0.1117259,-0.4188984,1.547561,0.2560581,-0.4432599,1.586543,0.0797796,0.3939024,1.616105,-0.1551004,-0.4215561,1.567979,0.2907465,-0.4304131,1.600184,0.07279333,-0.06675126,1.64382,0.07853165,-0.3802595,1.634941,-0.09568378,0.122759,1.622351,-0.0005991302,-0.3717745,1.59695,-0.1337095,-0.1301047,1.63674,0.2718482,-0.1428677,1.671313,NA,NA,NotTracked,NotTracked,
0.9458008,-0.3227539,0.04736328,0.9492188,0.2480469,0.08984375,-3,-1,0,0,0,0,3,-1,-40,-15,-7,-3,0,-1,0,-1,3.3125,3.3125,3.3125,-2.5625,-2.5625,-2.5625,2.759278,3.034103,7.140663,7.175132,2.89957,8.485617,-0.1119175,-0.4192168,1.547242,0.255556,-0.4431604,1.585372,0.07952629,0.3939234,1.615984,-0.1580659,-0.4060735,1.57095,0.2911876,-0.4273167,1.600778,0.07276248,-0.06670665,1.643844,0.07857876,-0.3801689,1.635028,-0.09605947,0.1226156,1.62215,-0.0005503132,-0.3717124,1.59694,-0.133894,-0.1303589,1.636349,0.2715246,-0.1423647,1.670908,NA,NA,NotTracked,NotTracked,
0.9423828,-0.3237305,0.05712891,0.9360352,0.2514648,0.07324219,1,-2,0,0,0,-1,-1,1,-12,-8,-2,-3,-6,-6,-4,6,5.25,5.25,5.25,9.375,9.375,9.375,2.768791,3.031825,7.142731,7.143782,2.897941,8.53341,-0.1115951,-0.418912,1.547105,0.2618442,-0.4238395,1.589514,0.07915077,0.3940417,1.61561,-0.1583224,-0.4091381,1.571845,0.2916535,-0.4182749,1.59775,0.07272509,-0.06659422,1.6438,0.07862526,-0.3799658,1.635031,-0.09631158,0.1228143,1.621757,-0.0004950781,-0.3715616,1.596937,-0.1340494,-0.1300849,1.635968,0.2712013,-0.1430978,1.670699,NA,NA,NotTracked,NotTracked,
0.9448242,-0.3154297,0.0625,0.9394531,0.2265625,0.06445313,2,-1,-3,0,0,-1,2,2,4,-5,-1,-1,-1,-4,-9,1,-1.0625,-1.0625,-1.0625,6.625,6.625,6.625,2.773518,3.031137,7.138983,7.128267,2.895813,8.560436,-0.1119217,-0.4181709,1.547337,0.2528253,-0.4484486,1.582564,0.07852209,0.3942848,1.615183,-0.160142,-0.4037026,1.576222,0.2901389,-0.4337394,1.600889,0.07251928,-0.0663824,1.643638,0.07859319,-0.3798179,1.635016,-0.09669562,0.1228841,1.621502,-0.0005053363,-0.3714745,1.596951,-0.1341294,-0.1293295,1.635618,0.2710197,-0.1432256,1.670213,NA,NA,NotTracked,NotTracked,
0.9453125,-0.3261719,0.05126953,0.9438477,0.2333984,0.06933594,-2,0,0,-2,-2,-1,-2,-1,-1,-1,1,0,1,0,9,-3,2.625,2.625,2.625,-1.25,-1.25,-1.25,2.766735,3.029509,7.144517,7.116258,2.89447,8.574086,-0.1117,-0.4184913,1.548663,0.2506436,-0.4489779,1.579764,0.07825195,0.3942626,1.614925,-0.1594054,-0.3991786,1.578167,0.2850913,-0.4509601,1.593182,0.07243584,-0.066308,1.643599,0.07858881,-0.3797263,1.635067,-0.09687314,0.1228837,1.621261,-0.0005010872,-0.3714134,1.596993,-0.1341583,-0.1293397,1.635581,0.2711735,-0.1433022,1.670007,NA,NA,NotTracked,NotTracked,
0.9438477,-0.328125,0.05908203,0.9394531,0.2333984,0.07373047,1,0,-3,-1,-2,0,1,0,-3,-1,-3,-1,-2,1,-6,0,4.6875,4.6875,4.6875,-0.0625,-0.0625,-0.0625,2.769017,3.029566,7.151157,7.102195,2.895962,8.587777,-0.1120096,-0.419545,1.54936,0.2539689,-0.4477734,1.583145,0.0781434,0.3941962,1.614793,-0.1582108,-0.4080824,1.574025,0.2891963,-0.4374424,1.599258,0.07239031,-0.06628559,1.643605,0.07854545,-0.3796239,1.63518,-0.09708219,0.1228612,1.621054,-0.000526268,-0.3713349,1.597068,-0.1342768,-0.1292083,1.635566,0.2712923,-0.1423141,1.669315,NA,NA,NotTracked,NotTracked,
0.9355469,-0.3212891,0.06298828,0.9467773,0.2373047,0.06787109,1,0,0,-1,-1,-1,-3,0,-1,1,0,0,-2,1,-5,3,-1.375,-1.375,-1.375,1.125,1.125,1.125,2.771513,3.029165,7.149776,7.099318,2.896884,8.591299,-0.1112177,-0.418833,1.548235,0.2631951,-0.4084842,1.592644,0.0780174,0.3941275,1.614488,-0.155027,-0.4151973,1.566154,0.2965805,-0.3997093,1.6045,0.07235197,-0.06628274,1.643582,0.07851225,-0.3796066,1.635181,-0.09717096,0.1227953,1.620892,-0.0005515722,-0.3713298,1.597077,-0.1343971,-0.1291532,1.635557,0.2714624,-0.1421858,1.668746,NA,NA,NotTracked,NotTracked,
0.9428711,-0.3310547,0.05712891,0.9345703,0.2270508,0.07275391,-2,2,-1,1,0,0,-4,-2,2,-1,-2,-2,1,-4,-5,3,-1.125,-1.125,-1.125,-3.1875,-3.1875,-3.1875,2.769337,3.029631,7.149163,7.076318,2.897642,8.60907,-0.111625,-0.4192595,1.550088,0.2633392,-0.4086414,1.593027,0.07797769,0.3941277,1.614311,-0.1586629,-0.4128436,1.580556,0.2999195,-0.4054903,1.612833,0.07231029,-0.06623603,1.643599,0.0784765,-0.3795224,1.635237,-0.09721077,0.1228386,1.620858,-0.0005773658,-0.3712595,1.597145,-0.1344749,-0.1289732,1.635684,0.2714561,-0.1422454,1.668631,NA,NA,NotTracked,NotTracked,
0.9389648,-0.3203125,0.06103516,0.9414063,0.2397461,0.08203125,-2,-1,-1,-1,-1,-1,-2,-3,1,-2,-2,-1,-2,0,3,1,0.3125,0.3125,0.3125,-0.8125,-0.8125,-0.8125,2.769337,3.029631,7.149163,7.060004,2.897876,8.622296,-0.1113573,-0.418658,1.550307,0.2565082,-0.4395884,1.585072,0.07795459,0.3941413,1.614227,-0.1538247,-0.4199504,1.566125,0.2929089,-0.431124,1.6044,0.07224427,-0.06610104,1.643645,0.07847296,-0.3792969,1.635367,-0.09729732,0.1230233,1.62081,-0.0005634078,-0.3710184,1.597329,-0.1345105,-0.1290432,1.635684,0.2716634,-0.141712,1.668339,NA,NA,NotTracked,NotTracked,
0.9394531,-0.3237305,0.05664063,0.9375,0.2426758,0.07275391,0,-1,-1,-1,-2,0,-1,-1,-6,-2,0,2,-2,-4,-2,-5,-0.1875,-0.1875,-0.1875,-1.0625,-1.0625,-1.0625,2.770124,3.029658,7.148376,7.049139,2.899782,8.630746,-0.1111426,-0.4190792,1.549562,0.2543232,-0.4463381,1.583309,0.07796333,0.3941268,1.614212,-0.153994,-0.409991,1.562286,0.285269,-0.4477782,1.594182,0.07224603,-0.06608757,1.643712,0.07849759,-0.3792453,1.635548,-0.09734208,0.1230506,1.620808,-0.0005448303,-0.3709968,1.597537,-0.1344849,-0.1290317,1.635786,0.2719202,-0.1437729,1.668749,NA,NA,NotTracked,NotTracked,
0.9404297,-0.3203125,0.05859375,0.9389648,0.2416992,0.08398438,0,1,1,-1,1,0,0,-1,-8,-5,-1,-1,1,-5,2,-6,0.75,0.75,0.75,-1.4375,-1.4375,-1.4375,2.769829,3.029794,7.14867,7.036866,2.901214,8.6413,-0.1110951,-0.4193988,1.551772,0.2588122,-0.4335091,1.588654,0.07795875,0.3940811,1.61427,-0.15641,-0.4116951,1.573482,0.297004,-0.4046397,1.606833,0.07221918,-0.06608772,1.64381,0.07847831,-0.3792562,1.635736,-0.09734008,0.1230297,1.620859,-0.0005799145,-0.3710115,1.597793,-0.1344189,-0.1288716,1.636099,0.2722604,-0.1438015,1.669191,NA,NA,NotTracked,NotTracked,
0.9414063,-0.3217773,0.06494141,0.9472656,0.2426758,0.08105469,-4,-1,-1,-3,-1,-1,-2,-4,-4,0,-1,-1,-2,6,-8,0,0.5,0.5,0.5,0.1875,0.1875,0.1875,2.770843,3.029764,7.147795,7.0276,2.902915,8.648713,-0.1110957,-0.4191245,1.551814,0.2559384,-0.4449107,1.584751,0.07801414,0.3940544,1.614351,-0.154421,-0.4237975,1.574167,0.289682,-0.4414734,1.601125,0.07230254,-0.06604962,1.643958,0.0786224,-0.3791765,1.635976,-0.09733161,0.1230503,1.620896,-0.00042789,-0.3709538,1.598069,-0.1343498,-0.1290141,1.636337,0.272488,-0.1437535,1.669254,NA,NA,NotTracked,NotTracked,
0.9453125,-0.3222656,0.05908203,0.9404297,0.2392578,0.08544922,-1,-2,-3,-2,0,-1,-1,-2,0,-1,0,-1,-1,-2,-3,1,-0.375,-0.375,-0.375,0.3125,0.3125,0.3125,2.771643,3.030191,7.146996,7.023633,2.903697,8.652754,-0.110731,-0.4194635,1.551622,0.2545975,-0.4463131,1.583304,0.07806552,0.3940626,1.614326,-0.1555818,-0.4115632,1.572505,0.292027,-0.4343437,1.603918,0.07244813,-0.0660077,1.644073,0.07882147,-0.3790946,1.636257,-0.09730597,0.1230706,1.620939,-0.0002630945,-0.3709233,1.598384,-0.1342942,-0.129437,1.636516,0.2725493,-0.1439454,1.66941,NA,NA,NotTracked,NotTracked,
0.9428711,-0.3251953,0.0546875,0.9433594,0.2446289,0.08789063,0,-1,-1,1,-2,-1,0,-1,-3,1,-1,-1,1,3,8,1,1.125,1.125,1.125,-0.25,-0.25,-0.25,2.773216,3.029923,7.146816,7.022373,2.903779,8.654677,-0.1108649,-0.4189146,1.552629,0.2549712,-0.4487522,1.583397,0.07819248,0.3940644,1.61438,-0.1553731,-0.4101367,1.573741,0.2912226,-0.4377112,1.60212,0.0725568,-0.06597341,1.644168,0.07892996,-0.3790567,1.636402,-0.0971965,0.1230503,1.621093,-0.0001403701,-0.3708905,1.598563,-0.1340232,-0.1295236,1.636817,0.272911,-0.1447101,1.66949,NA,NA,NotTracked,NotTracked,
0.9418945,-0.3183594,0.06347656,0.9423828,0.2363281,0.08349609,-2,-1,-1,-1,-1,-1,-1,0,0,0,-1,-2,0,0,-2,-2,0.6875,0.6875,0.6875,-1.0625,-1.0625,-1.0625,2.775869,3.029543,7.145555,7.019876,2.90424,8.657107,-0.1094287,-0.4224535,1.551528,0.2562544,-0.4485959,1.583987,0.07829405,0.3939679,1.614356,-0.1538886,-0.4201969,1.575473,0.2929517,-0.4362913,1.605731,0.07263396,-0.06599442,1.644237,0.07910854,-0.3790445,1.636654,-0.0970526,0.1230088,1.621202,3.007078E-05,-0.3708617,1.59877,-0.1338103,-0.1298383,1.636977,0.2731722,-0.1442063,1.66933,NA,NA,NotTracked,NotTracked,
0.9389648,-0.3276367,0.05810547,0.9414063,0.2353516,0.08105469,-2,-2,-1,-1,-1,-1,1,-1,-6,-3,-2,-3,-2,-7,18,-4,2.1875,2.1875,2.1875,-0.3125,-0.3125,-0.3125,2.77977,3.030411,7.143743,7.008281,2.905504,8.666863,-0.1101873,-0.4200566,1.553234,0.2556267,-0.4513615,1.583812,0.07838258,0.3939389,1.6144,-0.154315,-0.4211574,1.574386,0.2897008,-0.4458782,1.601333,0.07274739,-0.06600849,1.644419,0.07925331,-0.3790069,1.636855,-0.09698142,0.1229214,1.621396,0.0001674429,-0.3708347,1.598965,-0.1338133,-0.1299501,1.637219,0.2734092,-0.144418,1.669578,NA,NA,NotTracked,NotTracked,
0.9458008,-0.3261719,0.06054688,0.940918,0.2436523,0.07861328,-1,-1,-1,0,-2,0,-1,-4,-22,-7,-3,-2,-3,-2,5,-9,0.125,0.125,0.125,-1.5,-1.5,-1.5,2.78294,3.030836,7.143916,6.996351,2.908825,8.67529,-0.1099664,-0.4187335,1.553009,0.2562991,-0.4513738,1.58373,0.07857421,0.393857,1.614357,-0.1550307,-0.4105732,1.576017,0.2937679,-0.4269322,1.600403,0.07291579,-0.06599521,1.644577,0.07942913,-0.3789358,1.637078,-0.09691472,0.1228677,1.621489,0.0003414056,-0.3707533,1.599215,-0.1336255,-0.1299669,1.637389,0.2736849,-0.1442265,1.66947,NA,NA,NotTracked,NotTracked,
0.9355469,-0.3256836,0.06103516,0.9384766,0.2348633,0.08349609,1,-1,-1,0,-2,-1,-2,0,4,-1,-1,1,0,10,-1,-2,4.3125,4.3125,4.3125,-1.5625,-1.5625,-1.5625,2.78635,3.032866,7.145516,6.98556,2.91129,8.683148,-0.1099749,-0.4194333,1.551926,0.2565771,-0.4498635,1.582458,0.07867802,0.393818,1.614277,-0.1568725,-0.4005941,1.580312,0.2878281,-0.4489722,1.597,0.07298518,-0.06596638,1.644591,0.07947516,-0.3788144,1.637185,-0.09675054,0.1228954,1.621596,0.0003833697,-0.3706121,1.599323,-0.1334848,-0.1298309,1.637594,0.2739792,-0.1434919,1.669187,NA,NA,NotTracked,NotTracked,
