ALX,ALY,ALZ,ARX,ARY,ARZ,EMG0L,EMG1L,EMG2L,EMG3L,EMG4L,EMG5L,EMG6L,EMG7L,EMG0R,EMG1R,EMG2R,EMG3R,EMG4R,EMG5R,EMG6R,EMG7R,GLX,GLY,GLZ,GRX,GRY,GRZ,ORL,OPL,OYL,ORR,OPR,OYR,LHNX,LHNY,LHNZ,RHNX,RHNY,RHNZ,HX,HY,HZ,LTX,LTY,LTZ,RTX,RTY,RTZ,SpineMidX,SpineMidY,SpineMidZ,SpineBaseX,SpineBaseY,SpineBaseZ,ShoulderLeftX,ShoulderLeftY,ShoulderLeftZ,ShoulderRightX,ShoulderRightY,ShoulderRightZ,ElbowLeftX,ElbowLeftY,ElbowLeftZ,ElbowRightX,ElbowRightY,ElbowRightZ,Myo_Pose_left,Myo_Pose_Right,Kinect_pose_left,Kinect_pose_right
0.9238281,-0.3916016,0.1044922,-0.3168945,0.7348633,0.5761719,-2,-2,-1,2,1,-2,-6,-1,12,3,1,3,-2,0,-5,-2,-8.1875,-8.1875,-8.1875,38.9375,38.9375,38.9375,2.884474,3.167566,7.302157,6.390983,5.219191,8.382337,-0.100496,-0.420856,1.489257,0.1690949,-0.06150381,1.320853,0.06942473,0.3928488,1.59824,-0.05416077,-0.3856156,1.468663,0.1775398,-0.02377009,1.311,0.06085777,-0.06543776,1.621896,0.06452838,-0.3780695,1.605764,-0.1065474,0.1209181,1.601386,-0.01485477,-0.3692212,1.56585,-0.1421862,-0.1321992,1.597722,0.2748314,-0.1025313,1.573603,NA,NA,NotTracked,Closed,
0.9072266,-0.3842773,0.08544922,-0.4956055,0.7231445,0.5400391,-1,-1,-2,-2,0,2,-2,-1,8,-3,-7,-4,-4,1,2,2,-4.5625,-4.5625,-4.5625,62.1875,62.1875,62.1875,2.880294,3.167476,7.295783,6.513273,5.759744,8.471437,-0.1005878,-0.4177751,1.489994,0.160267,0.08819771,1.338005,0.07029703,0.3917615,1.597461,-0.05280229,-0.3995058,1.467702,0.173129,0.1336926,1.33275,0.06072229,-0.06574948,1.622511,0.06453352,-0.3782172,1.606164,-0.1065451,0.1209008,1.601402,-0.01490745,-0.3696611,1.566529,-0.1424086,-0.1316313,1.597673,0.269131,-0.09734482,1.536794,NA,NA,NotTracked,Lasso,
0.9121094,-0.3881836,0.09619141,-0.5878906,0.6948242,0.4301758,-2,-1,-1,-1,-1,-1,-2,2,42,-3,-3,0,-2,-1,-4,0,-3.3125,-3.3125,-3.3125,59.4375,59.4375,59.4375,2.877368,3.166182,7.291663,6.700098,6.177793,8.617265,-0.1006438,-0.4181008,1.489771,0.166512,0.1664932,1.386235,0.06942809,0.3907814,1.596113,-0.0538425,-0.3873067,1.468138,0.1840643,0.182904,1.4025,0.06048552,-0.06600539,1.622709,0.06360663,-0.378657,1.6064,-0.1064844,0.1209676,1.601395,-0.01715267,-0.3704598,1.568737,-0.1425283,-0.1306429,1.597562,0.2706976,-0.07776316,1.509058,NA,NA,NotTracked,Lasso,
0.9243164,-0.3935547,0.1074219,-0.5883789,0.5444336,0.3178711,0,-2,0,-2,-2,-2,-3,-2,-12,3,5,6,2,0,0,-3,-0.625,-0.625,-0.625,37.375,37.375,37.375,2.877049,3.167194,7.288902,7.011065,6.510375,8.883226,-0.101384,-0.4185404,1.491856,0.1599037,0.2218509,1.41102,0.06853489,0.389374,1.594086,-0.05418889,-0.3862066,1.469575,0.1264117,0.2266032,1.4467,0.06089161,-0.06474485,1.622132,0.06210883,-0.378693,1.606711,-0.105521,0.1212292,1.601748,-0.01985753,-0.3699805,1.570173,-0.1423446,-0.1280716,1.598215,0.2755533,-0.0646902,1.48648,NA,NA,NotTracked,Unknown,
0.9003906,-0.3935547,0.09326172,-0.6230469,0.4755859,0.2280273,0,-2,1,0,-2,-2,0,1,33,-1,-3,1,1,1,-6,-5,7.1875,7.1875,7.1875,26.75,26.75,26.75,2.879254,3.170494,7.298408,7.233472,6.624035,9.095485,-0.1016096,-0.4185712,1.492753,0.1571517,0.2512741,1.427934,0.06969125,0.3875128,1.591371,-0.0539949,-0.3891997,1.46927,0.1243274,0.2452959,1.4882,0.06101025,-0.06482251,1.622406,0.06061461,-0.378795,1.607129,-0.1044647,0.1212384,1.602365,-0.0216376,-0.3696455,1.570811,-0.1420858,-0.126906,1.59929,0.2776318,-0.009950466,1.42988,NA,NA,NotTracked,Unknown,
0.9077148,-0.3969727,0.1074219,-0.706543,0.4321289,0.1435547,-2,-1,0,0,-1,-4,0,-1,-2,7,4,-2,0,-8,1,-1,11,11,11,8.125,8.125,8.125,2.887214,3.172324,7.308628,7.408988,6.679204,9.279436,-0.1024764,-0.4181278,1.49319,0.1475677,0.2687543,1.446522,0.07120147,0.3848378,1.587628,-0.05520941,-0.3825631,1.470101,0.09967484,0.2594153,1.499497,0.06086442,-0.06534754,1.622993,0.05905567,-0.3785985,1.607425,-0.1036695,0.1214053,1.603256,-0.02342083,-0.3691227,1.571393,-0.1421533,-0.1251589,1.600644,0.2783455,-0.006120555,1.427404,NA,NA,NotTracked,Unknown,
0.9086914,-0.4052734,0.1162109,-0.7485352,0.402832,0.01074219,-2,-1,-1,-2,-3,-1,0,-1,-31,1,-1,0,-1,0,-2,-19,10.25,10.25,10.25,15.4375,15.4375,15.4375,2.899513,3.174288,7.31621,7.570364,6.71854,9.44011,-0.103672,-0.4185083,1.495261,0.1396814,0.2706994,1.459267,0.07122582,0.3835935,1.586157,-0.0550777,-0.3832241,1.471294,0.100675,0.2527089,1.499208,0.0616608,-0.06576771,1.623549,0.05795161,-0.3782792,1.607582,-0.1035297,0.1214474,1.603898,-0.02447679,-0.3686929,1.571762,-0.1422459,-0.1240174,1.601966,0.2810465,-0.003205877,1.42632,NA,NA,NotTracked,Unknown,
0.9013672,-0.4150391,0.1088867,-0.8291016,0.4873047,-0.09082031,-3,0,-1,-2,0,-1,0,2,-28,-2,-6,-5,-6,3,-4,-9,4.5625,4.5625,4.5625,-17.75,-17.75,-17.75,2.906426,3.176204,7.32031,7.623194,6.731446,9.493634,-0.1042596,-0.4180709,1.494101,0.1352647,0.279349,1.462709,0.07081948,0.3826335,1.58496,-0.05269088,-0.4152954,1.469242,0.07547104,0.2566549,1.494582,0.06188914,-0.06591844,1.623695,0.05702035,-0.3779636,1.607523,-0.1036545,0.1213265,1.604138,-0.02544581,-0.3682843,1.57201,-0.1422396,-0.1239764,1.60237,0.2795393,0.005876217,1.420141,NA,NA,NotTracked,Unknown,
0.925293,-0.4458008,0.1132813,-0.9487305,0.5112305,-0.1079102,0,-1,0,-3,1,-3,-3,-3,19,15,2,0,0,2,7,-4,-0.9375,-0.9375,-0.9375,31.75,31.75,31.75,2.911132,3.180552,7.314119,7.542147,6.739856,9.356059,-0.1046426,-0.4182009,1.493309,0.1357941,0.294598,1.471463,0.07044403,0.3818115,1.583644,-0.05736572,-0.380243,1.472558,0.09531511,0.2575412,1.533889,0.06236354,-0.06576108,1.623642,0.05652704,-0.3777038,1.60739,-0.103651,0.1213053,1.604256,-0.02596102,-0.3679729,1.572111,-0.1427564,-0.123002,1.602898,0.2782674,0.008835993,1.41797,NA,NA,NotTracked,Unknown,
0.9350586,-0.5317383,0.06835938,-1.015137,0.4042969,-0.06591797,2,-2,-3,-3,-4,0,-8,0,21,2,2,4,0,1,1,-19,17.6875,17.6875,17.6875,28.625,28.625,28.625,2.930196,3.202842,7.314748,7.409619,6.739284,9.1627,-0.1061326,-0.4153672,1.487928,0.1321145,0.3174846,1.460459,0.07018915,0.3813443,1.583197,-0.0589192,-0.3798083,1.470369,0.08379958,0.2834207,1.489273,0.06281009,-0.06530569,1.623424,0.05621463,-0.3773768,1.60711,-0.1033735,0.12151,1.604416,-0.02631209,-0.3674751,1.57182,-0.1433565,-0.1223266,1.603077,0.2770048,0.01242229,1.415541,NA,NA,NotTracked,Unknown,
0.8950195,-0.7617188,0.1464844,-0.9272461,0.5161133,-0.015625,-2,-1,4,3,3,-8,-45,1,-38,-16,-5,-1,5,-7,3,-8,25.5,25.5,25.5,43.8125,43.8125,43.8125,2.982136,3.311843,7.293632,7.297567,6.728599,8.938265,-0.1017911,-0.4162171,1.456024,0.1760491,0.3003302,1.407263,0.06899853,0.3817741,1.584943,-0.06077026,-0.4226474,1.408152,0.1452064,0.3279627,1.431615,0.06274193,-0.06504645,1.623436,0.05618665,-0.3769459,1.607109,-0.1026271,0.1222023,1.604962,-0.02636892,-0.3667805,1.571714,-0.1453372,-0.1189875,1.603479,0.2775971,0.01746378,1.412032,NA,NA,Unknown,Open,
0.8681641,-0.90625,0.3828125,-0.7626953,0.3886719,0.1054688,-4,-3,-7,-5,6,-3,14,-10,53,24,9,9,-6,-6,-4,5,93.6875,93.6875,93.6875,-3.25,-3.25,-3.25,3.132579,3.547156,7.251143,7.098402,6.655537,8.696401,-0.1120332,-0.3716677,1.366199,0.1888527,0.2953483,1.369301,0.06683341,0.3830466,1.589725,-0.1398193,-0.3771645,1.335143,0.1607408,0.3149708,1.385083,0.05872051,-0.06422552,1.622809,0.05613791,-0.3763305,1.607171,-0.1029557,0.1229735,1.605564,-0.02654544,-0.3663049,1.571674,-0.1493694,-0.1108075,1.603517,0.2853997,0.04289849,1.402806,NA,NA,Unknown,Unknown,
0.6655273,-0.8129883,0.5644531,-0.6000977,0.4125977,0.2524414,-2,1,0,4,-8,-3,-18,-9,30,5,3,-8,-5,4,3,-4,60.9375,60.9375,60.9375,-17.8125,-17.8125,-17.8125,3.346244,4.030497,7.222331,6.81145,6.409594,8.365605,-0.1243319,-0.2749894,1.281718,0.199223,0.2849803,1.315602,0.06420927,0.3847303,1.594427,-0.1473437,-0.2769709,1.244,0.1663895,0.307916,1.334167,0.05815038,-0.0641524,1.623606,0.05703115,-0.3757612,1.607474,-0.1038867,0.1242134,1.607224,-0.02522362,-0.3660185,1.571943,-0.1551002,-0.09722499,1.596001,0.2820972,0.04157965,1.402662,NA,NA,Unknown,Unknown,
0.4887695,-0.7670898,0.5947266,-0.5283203,0.4345703,0.3696289,-3,-2,-2,1,-1,9,24,3,63,28,5,-2,-10,11,-4,14,35.4375,35.4375,35.4375,-14.6875,-14.6875,-14.6875,3.408949,4.424877,7.228535,6.6553,6.151304,8.194972,-0.1298106,-0.1742538,1.210698,0.2065136,0.2527741,1.256877,0.06245553,0.3860632,1.599034,-0.1541453,-0.1875523,1.201429,0.1753676,0.2807685,1.26521,0.0558307,-0.06397473,1.625195,0.05650313,-0.3752981,1.607963,-0.1055449,0.1258477,1.610537,-0.0252766,-0.3655565,1.572572,-0.1839492,-0.09525366,1.529978,0.2830407,0.01986812,1.412189,NA,NA,Unknown,Lasso,
0.3134766,-0.6484375,0.5229492,-0.3935547,0.5566406,0.4853516,-1,20,3,1,5,10,-9,4,-20,3,-1,-9,-7,7,4,-6,11.1875,11.1875,11.1875,-19.625,-19.625,-19.625,3.441611,4.7658,7.249257,6.54985,5.859488,8.079866,-0.1350166,-0.08418252,1.184561,0.2121175,0.1928914,1.206167,0.06068315,0.387134,1.60331,-0.09720518,-0.05915673,1.155445,0.1823118,0.2256103,1.208273,0.05485653,-0.06438762,1.628265,0.05549179,-0.3751463,1.608641,-0.106726,0.1267558,1.612129,-0.02566106,-0.3653709,1.573053,-0.1811648,-0.07144386,1.529049,0.3025643,-0.05543567,1.431151,NA,NA,Unknown,Unknown,
0.2890625,-0.5576172,0.4194336,-0.1328125,0.7524414,0.5771484,10,11,20,4,0,32,5,-16,9,3,0,0,18,-2,13,20,-2.875,-2.875,-2.875,-25.5,-25.5,-25.5,3.45369,5.051484,7.28262,6.470985,5.44946,7.98581,-0.138513,-0.03229554,1.164132,0.2195241,0.1074039,1.176099,0.05923448,0.3880973,1.607666,-0.1593708,-0.01013424,1.155,0.1902652,0.1508692,1.164312,0.05408842,-0.0651399,1.630409,0.05482789,-0.375919,1.609198,-0.1084493,0.1276882,1.61318,-0.02574762,-0.3659757,1.573451,-0.1335018,-0.1220124,1.54857,0.2846891,-0.03593956,1.406606,NA,NA,Unknown,Unknown,
0.1352539,-0.5063477,0.3837891,0.04638672,0.7993164,0.7661133,8,12,-7,21,20,24,-14,-11,21,11,-1,4,-6,22,-19,-20,-17.625,-17.625,-17.625,-5.375,-5.375,-5.375,3.449171,5.111493,7.281878,6.427405,5.172836,7.942307,-0.1325339,-0.02140308,1.153424,0.2198819,0.02254988,1.164587,0.0584388,0.3887616,1.610491,-0.09811445,0.0003525085,1.139333,0.1971966,0.05780803,1.139444,0.05366623,-0.06586929,1.63143,0.05430576,-0.3770402,1.609318,-0.1092831,0.1281625,1.613317,-0.0258584,-0.3671212,1.573248,-0.12398,-0.08925526,1.543852,0.2465833,-0.07442488,1.493251,NA,NA,Unknown,Unknown,
0.1967773,-0.5610352,0.4643555,0.09521484,0.9101563,0.7939453,-7,-12,-19,0,24,-28,-25,-30,23,-8,-7,-6,59,-18,5,22,11.4375,11.4375,11.4375,-36.3125,-36.3125,-36.3125,3.452726,5.040905,7.27213,6.38243,4.936882,7.929227,-0.1277681,-0.04623633,1.152154,0.2145878,-0.0560243,1.160211,0.05817083,0.3893964,1.613052,-0.1025039,-0.06154442,1.1,0.1860379,-0.02131205,1.128143,0.05318725,-0.06627669,1.632302,0.0541217,-0.3774868,1.609464,-0.1101004,0.1278699,1.613066,-0.0257788,-0.3676351,1.573055,-0.1634533,-0.1034833,1.445643,0.2275862,-0.1002599,1.563662,NA,NA,Unknown,Unknown,
0.2734375,-0.8779297,0.6201172,0.009277344,1.102539,0.8554688,-9,12,-15,-4,-3,34,20,32,15,9,-4,-6,1,24,4,32,1.25,1.25,1.25,-24.25,-24.25,-24.25,3.445062,4.925039,7.268708,6.340276,4.772907,7.928915,-0.1234015,-0.07210437,1.152615,0.2080076,-0.1103995,1.162702,0.05833755,0.3899347,1.614914,-0.07829896,-0.04893547,1.130111,0.1867048,-0.07597273,1.132286,0.05309864,-0.06635243,1.632561,0.05407502,-0.3776417,1.609444,-0.1105616,0.1275187,1.612648,-0.02561525,-0.3679401,1.572687,-0.1808098,-0.06382322,1.508918,0.2358317,-0.09626874,1.549068,NA,NA,Unknown,Unknown,
-0.171875,-0.9902344,0.6269531,-0.01904297,0.9760742,0.7792969,28,19,-21,-1,12,20,40,6,-12,0,8,2,-32,7,22,-3,11.75,11.75,11.75,7.4375,7.4375,7.4375,3.468861,4.87401,7.265161,6.340827,4.771695,7.939764,-0.1201894,-0.08333092,1.155579,0.2020123,-0.1263616,1.170856,0.0585991,0.3902051,1.61535,-0.07770588,-0.05964704,1.1356,0.1754694,-0.09358826,1.14,0.05308827,-0.06639643,1.632533,0.05415595,-0.3777619,1.609377,-0.1110834,0.1263792,1.611562,-0.02526779,-0.3682462,1.572173,-0.1806031,-0.06352492,1.504316,0.2543699,-0.08032686,1.513222,NA,NA,Unknown,Unknown,
-0.08251953,-0.9848633,0.6416016,0.1069336,0.7944336,0.7026367,14,55,31,-1,1,-6,0,-43,-18,-5,-6,-4,7,4,-9,-9,-3.0625,-3.0625,-3.0625,5.9375,5.9375,5.9375,3.467108,4.868558,7.258443,6.355569,4.802577,7.94063,-0.1200241,-0.08092307,1.155409,0.2002326,-0.1195932,1.167751,0.05884141,0.3904862,1.615427,-0.07672796,-0.0546723,1.131907,0.1830658,-0.08957642,1.147387,0.05308056,-0.06641297,1.632544,0.05422692,-0.3778379,1.609453,-0.1112967,0.1261358,1.611237,-0.02505246,-0.3683567,1.572082,-0.1810284,-0.06479709,1.506261,0.2562017,-0.07976465,1.513023,NA,NA,Unknown,Unknown,
0.08203125,-0.8041992,0.5576172,0.2114258,0.6455078,0.5947266,-11,10,18,8,-3,-15,16,8,19,6,2,0,6,-4,1,0,-2,-2,-2,8.9375,8.9375,8.9375,3.463276,4.908967,7.264472,6.368963,4.817386,7.934955,-0.1217945,-0.07666689,1.150818,0.2042157,-0.1159256,1.167577,0.05896093,0.3906507,1.615366,-0.07899657,-0.05397157,1.131,0.1777024,-0.08639637,1.129111,0.05298233,-0.06643109,1.632491,0.05422969,-0.3779042,1.609463,-0.1115619,0.1258881,1.61049,-0.02499061,-0.3684562,1.572037,-0.1823849,-0.0644171,1.505065,0.2566186,-0.07867897,1.511158,NA,NA,Unknown,Unknown,
0.159668,-0.7216797,0.5131836,0.2592773,0.5981445,0.5302734,-7,1,-13,2,8,24,19,10,-60,-28,-8,-3,-6,-6,-8,-19,-6.5,-6.5,-6.5,21.125,21.125,21.125,3.455213,4.901511,7.274387,6.39538,4.780475,7.939165,-0.1241661,-0.08033176,1.149087,0.2059357,-0.1173831,1.166026,0.05901239,0.3908107,1.615017,-0.07970984,-0.05466324,1.131169,0.1831051,-0.0854385,1.149081,0.05284777,-0.06645913,1.63246,0.05417318,-0.3780537,1.609606,-0.1120751,0.1252444,1.609596,-0.02497979,-0.3685949,1.572117,-0.1796568,-0.06649748,1.504675,0.2573682,-0.07891966,1.511958,NA,NA,Unknown,Unknown,
0.2338867,-0.6542969,0.4711914,0.3217773,0.5317383,0.5185547,-5,0,-9,0,0,4,6,-4,-3,-5,0,1,0,-4,-6,-8,-13.5625,-13.5625,-13.5625,39.4375,39.4375,39.4375,3.434633,4.821569,7.26807,6.44243,4.678915,7.95542,-0.1222829,-0.1064584,1.152849,0.2044712,-0.1434734,1.161413,0.05886291,0.3911785,1.614269,-0.07998362,-0.07955497,1.13725,0.1802699,-0.1068519,1.1593,0.05261987,-0.06643538,1.632268,0.05413505,-0.3780871,1.609645,-0.1122082,0.1253312,1.60924,-0.02497479,-0.3686265,1.572118,-0.1851006,-0.06534918,1.50627,0.2602102,-0.07829016,1.511846,NA,NA,Unknown,Unknown,
0.3183594,-0.597168,0.4116211,0.3374023,0.6157227,0.4326172,-4,5,-3,-7,-8,-3,10,-16,4,1,-1,-1,-2,-3,-2,1,-31.3125,-31.3125,-31.3125,44.9375,44.9375,44.9375,3.397797,4.674099,7.266561,6.510571,4.506121,7.980601,-0.1183314,-0.1571823,1.170654,0.2051905,-0.197987,1.188655,0.05841215,0.3916554,1.612887,-0.1168827,-0.1302202,1.140357,0.1709592,-0.1632891,1.177167,0.05249983,-0.0663637,1.631924,0.05419452,-0.3780777,1.609689,-0.1122814,0.1251698,1.608912,-0.02476278,-0.3686569,1.572189,-0.1822484,-0.07805105,1.497751,0.2661592,-0.09728169,1.506375,NA,NA,Unknown,Unknown,
0.425293,-0.6499023,0.4594727,0.5180664,0.6542969,0.527832,1,-1,-1,-2,2,16,9,8,-6,-2,-2,0,-2,-11,0,-4,-18.4375,-18.4375,-18.4375,8.75,8.75,8.75,3.360262,4.435472,7.255332,6.548507,4.166946,7.998814,-0.1238622,-0.2333511,1.216467,0.212061,-0.26887,1.241148,0.0579753,0.3920627,1.611667,-0.09720454,-0.1987868,1.218637,0.1819783,-0.2369613,1.229154,0.05273007,-0.06636316,1.630628,0.0553015,-0.3783104,1.608952,-0.112689,0.1242152,1.607669,-0.02302282,-0.3692085,1.571164,-0.1863661,-0.1144442,1.526381,0.2774364,-0.1152884,1.517765,NA,NA,Unknown,Unknown,
0.5419922,-0.690918,0.4892578,0.6967773,0.7050781,0.5488281,0,-5,-2,-10,-12,-13,4,6,7,2,2,3,-1,-5,-9,-2,-30.875,-30.875,-30.875,31.0625,31.0625,31.0625,3.316159,4.138115,7.268689,6.594109,3.861565,7.97591,-0.1273467,-0.3134684,1.272667,0.2173089,-0.3443159,1.298987,0.05748125,0.3925346,1.609957,-0.0966417,-0.2855519,1.256,0.1830958,-0.3222916,1.271176,0.05313729,-0.06659482,1.62886,0.05678824,-0.3791068,1.607724,-0.1134532,0.1224111,1.605529,-0.02129945,-0.3704107,1.569775,-0.1845718,-0.1283306,1.540448,0.2531211,-0.1259989,1.573645,NA,NA,Unknown,Unknown,
0.7163086,-0.8242188,0.4492188,0.8618164,0.7148438,0.4389648,2,3,2,3,6,0,-16,9,43,7,0,-1,1,-4,-3,4,-13.9375,-13.9375,-13.9375,3.3125,3.3125,3.3125,3.25162,3.829267,7.326421,6.664815,3.57164,7.917572,-0.1342594,-0.3835812,1.339673,0.2248973,-0.4140989,1.360377,0.05694224,0.3931991,1.607491,-0.1355094,-0.3705666,1.29197,0.1922821,-0.3933441,1.328222,0.05284742,-0.06711316,1.626415,0.05701452,-0.3801463,1.606781,-0.1144837,0.1211123,1.604043,-0.0209946,-0.3714491,1.569024,-0.1638895,-0.1230574,1.56638,0.2534776,-0.1310288,1.576195,NA,NA,Unknown,Unknown,
0.8701172,-0.7915039,0.3779297,0.9238281,0.6601563,0.2260742,1,0,-1,-1,0,12,13,3,-26,-8,-3,1,-3,1,-7,-2,-22.25,-22.25,-22.25,19.6875,19.6875,19.6875,3.146214,3.559394,7.430653,6.855125,3.29554,7.739716,-0.1433523,-0.4274373,1.392652,0.2347882,-0.460181,1.419893,0.05689998,0.3940312,1.604851,-0.1110592,-0.4092056,1.350833,0.1988664,-0.4505866,1.377545,0.0527077,-0.06758529,1.624201,0.05702932,-0.381138,1.606092,-0.1156028,0.1195667,1.602191,-0.02089596,-0.372422,1.568353,-0.1612272,-0.1260288,1.572722,0.2543565,-0.1412129,1.583079,NA,NA,Unknown,Unknown,
0.9160156,-0.6967773,0.1308594,0.9589844,0.5136719,0.1586914,-1,1,5,3,0,3,7,8,29,5,0,-1,-2,3,-1,11,6.9375,6.9375,6.9375,-30.3125,-30.3125,-30.3125,2.822939,3.305578,7.730412,6.996749,3.178118,7.553627,-0.1545705,-0.4506515,1.431484,0.2462668,-0.4692757,1.465602,0.05687078,0.3943826,1.60023,-0.1250298,-0.4314008,1.387231,0.2102811,-0.4794909,1.415517,0.05215918,-0.06809291,1.622015,0.05641355,-0.382157,1.605468,-0.1161588,0.1180426,1.599993,-0.02131955,-0.3732802,1.567799,-0.1587865,-0.1321693,1.578232,0.2549262,-0.1484521,1.590952,NA,NA,Unknown,Lasso,
0.8857422,-0.5595703,0.04882813,0.9003906,0.4550781,0.1630859,-4,-4,-3,-2,-3,10,14,-5,19,-5,-2,-2,-1,0,0,-5,34.625,34.625,34.625,3.25,3.25,3.25,2.67698,3.238382,7.957186,7.111371,3.094638,7.405249,-0.1653606,-0.4609356,1.457408,0.2473194,-0.4689506,1.501622,0.0564536,0.394376,1.596675,-0.1381943,-0.4521513,1.396133,0.1948017,-0.4535239,1.503238,0.05157586,-0.06849862,1.620697,0.05581192,-0.3827011,1.605348,-0.1160533,0.1178342,1.598891,-0.02176878,-0.3736349,1.567625,-0.1590757,-0.1426854,1.583949,0.255408,-0.152006,1.601875,NA,NA,Unknown,Unknown,
0.9067383,-0.4736328,0.07910156,0.8720703,0.4243164,0.2114258,1,-2,-2,0,5,-12,-28,-8,-6,-1,0,-3,-3,3,6,1,-1.3125,-1.3125,-1.3125,-33.9375,-33.9375,-33.9375,2.558678,3.202029,8.112783,7.107318,3.083105,7.369157,-0.1737446,-0.4639764,1.472985,0.2481699,-0.4690537,1.515183,0.0562232,0.3940592,1.593306,-0.1159205,-0.4298188,1.494069,0.1948369,-0.4531067,1.502827,0.05127741,-0.06872997,1.61958,0.05541908,-0.382989,1.60536,-0.1158858,0.1175991,1.597588,-0.0220578,-0.3737543,1.567588,-0.1603763,-0.1477776,1.587888,0.2559123,-0.1513363,1.610065,NA,NA,NotTracked,NotTracked,
0.8950195,-0.4799805,0.1137695,0.9189453,0.355957,0.1279297,-2,-3,-1,1,-1,-6,10,0,8,1,0,0,0,1,2,6,5.375,5.375,5.375,-14.5,-14.5,-14.5,2.485571,3.182055,8.186504,7.081089,3.081323,7.351966,-0.1796257,-0.4637969,1.482157,0.2498578,-0.4702544,1.520687,0.05596004,0.3937056,1.590707,-0.1203598,-0.4268644,1.502106,0.19936,-0.4877665,1.509625,0.05118922,-0.06885993,1.618907,0.05543019,-0.3830891,1.605486,-0.1160382,0.1175475,1.596624,-0.0220438,-0.3738048,1.567639,-0.1613662,-0.1498886,1.591908,0.2560141,-0.1509236,1.614636,NA,NA,NotTracked,NotTracked,
0.9052734,-0.4008789,0.04785156,0.9072266,0.3188477,0.1000977,3,0,3,-1,-3,-1,9,-3,-43,-20,-8,-4,-2,-5,-3,-10,13.5625,13.5625,13.5625,-9.9375,-9.9375,-9.9375,2.50386,3.176665,8.201056,7.047568,3.088443,7.366252,-0.1816106,-0.4641806,1.483105,0.2484804,-0.4681444,1.521354,0.05569615,0.393252,1.588437,-0.1216736,-0.4312798,1.505492,0.1981339,-0.4642865,1.507945,0.05122778,-0.06894373,1.618529,0.05552976,-0.3831622,1.605725,-0.1160916,0.1175881,1.595972,-0.0219404,-0.3738365,1.567796,-0.1619728,-0.1508249,1.594222,0.255709,-0.1515671,1.617068,NA,NA,NotTracked,NotTracked,
0.9204102,-0.3930664,0.04199219,0.9052734,0.3256836,0.1044922,-6,-4,-3,-1,-2,-3,2,-4,-15,-6,-2,-1,0,2,11,1,2.8125,2.8125,2.8125,2.125,2.125,2.125,2.530317,3.173359,8.184093,6.99826,3.099504,7.417487,-0.1778032,-0.4643809,1.483896,0.243602,-0.4703414,1.518099,0.05559707,0.3929498,1.586989,-0.1687186,-0.4553916,1.502,0.1938523,-0.4867319,1.505722,0.05117803,-0.06899326,1.618267,0.05547618,-0.3832238,1.6059,-0.1161186,0.1176817,1.595594,-0.02196916,-0.3738412,1.567839,-0.1619698,-0.1513569,1.595245,0.2552078,-0.1517744,1.617931,NA,NA,NotTracked,NotTracked,
0.8984375,-0.4077148,0.02587891,0.9174805,0.3266602,0.07910156,1,1,-1,-2,-4,-2,16,-2,-29,-5,0,0,-1,-4,-3,-1,3.5625,3.5625,3.5625,3.4375,3.4375,3.4375,2.576456,3.171394,8.138324,6.987428,3.103958,7.437464,-0.1708827,-0.4638783,1.485118,0.2406036,-0.4731699,1.516568,0.05554898,0.3927944,1.586476,-0.1359402,-0.4322317,1.530286,0.2265617,-0.4683925,1.551711,0.0510061,-0.06911304,1.618051,0.05531023,-0.383391,1.606165,-0.116135,0.1176554,1.595471,-0.02211769,-0.3739347,1.56801,-0.1617101,-0.1513098,1.595887,0.2544254,-0.1518412,1.618418,NA,NA,NotTracked,NotTracked,
0.9008789,-0.3955078,0.009277344,0.9208984,0.3129883,0.08398438,-3,0,-2,-2,-5,-5,-34,-6,-55,-17,-5,-3,0,2,-5,3,8.125,8.125,8.125,0.75,0.75,0.75,2.604762,3.170604,8.122663,6.980693,3.105339,7.447277,-0.1671243,-0.4643799,1.483708,0.2371827,-0.4742715,1.512928,0.05547884,0.3926417,1.585894,-0.164003,-0.4325109,1.521,0.2235597,-0.4823975,1.548462,0.05089557,-0.06917661,1.617908,0.05521195,-0.3835205,1.606311,-0.1161239,0.1176667,1.595309,-0.02220519,-0.3740181,1.568095,-0.1612629,-0.1507821,1.596522,0.2537303,-0.1520268,1.618354,NA,NA,NotTracked,NotTracked,
0.9199219,-0.4169922,0.006347656,0.9228516,0.3291016,0.09472656,3,3,-2,-3,-8,-11,6,1,-18,1,3,0,0,-2,-9,-6,2.4375,2.4375,2.4375,-2.0625,-2.0625,-2.0625,2.613311,3.169952,8.118992,6.980375,3.105108,7.447988,-0.1635712,-0.4644772,1.48497,0.2372672,-0.474054,1.513163,0.05546184,0.3925803,1.585724,-0.1354662,-0.4384694,1.528091,0.2312179,-0.4844242,1.541333,0.05073118,-0.06924944,1.617878,0.05491162,-0.3837761,1.606589,-0.1162338,0.117622,1.595267,-0.02251912,-0.3742124,1.568335,-0.1607492,-0.1500885,1.597175,0.2530763,-0.1524138,1.618387,NA,NA,NotTracked,NotTracked,
0.9072266,-0.4125977,0.01513672,0.9091797,0.3183594,0.1074219,-2,-4,-1,-3,-6,-11,-5,-2,12,-1,2,1,-2,-5,-1,-5,-1.8125,-1.8125,-1.8125,-0.8125,-0.8125,-0.8125,2.613339,3.169884,8.11793,6.975866,3.104791,7.451616,-0.1628122,-0.4631903,1.486511,0.235978,-0.4754208,1.513066,0.05541098,0.3925759,1.585703,-0.1431109,-0.4491081,1.521784,0.1856239,-0.4759262,1.498611,0.05055704,-0.06926727,1.61786,0.05464007,-0.383829,1.606881,-0.1162807,0.117637,1.5953,-0.02283209,-0.3742768,1.568671,-0.1606334,-0.1499115,1.597332,0.252486,-0.1509357,1.618534,NA,NA,NotTracked,NotTracked,
0.9116211,-0.4106445,0.03662109,0.9106445,0.3364258,0.1313477,3,1,-2,0,2,8,15,3,-25,-8,-5,-2,-1,4,-1,-5,3.5625,3.5625,3.5625,-5.375,-5.375,-5.375,2.618228,3.172428,8.116207,6.968467,3.107395,7.44944,-0.162699,-0.4649439,1.486614,0.236358,-0.4749576,1.512951,0.05529543,0.3925413,1.585662,-0.1365838,-0.4496309,1.531143,0.1858903,-0.4704747,1.499004,0.0503712,-0.06933519,1.617752,0.05442787,-0.3839909,1.606972,-0.1163393,0.1175937,1.595248,-0.02305928,-0.3744435,1.568765,-0.1604825,-0.1496467,1.597492,0.2520843,-0.1510889,1.618665,NA,NA,NotTracked,NotTracked,
0.918457,-0.4067383,0.03662109,0.9169922,0.3334961,0.1269531,3,4,-2,1,5,-1,1,-2,4,1,-1,-2,-2,-3,1,-4,0.75,0.75,0.75,-2.0625,-2.0625,-2.0625,2.615953,3.173787,8.120538,6.963303,3.109136,7.449501,-0.1633723,-0.4639115,1.48608,0.2362319,-0.4735645,1.514182,0.05524633,0.3925055,1.585688,-0.1334849,-0.4614345,1.523222,0.1858039,-0.4757525,1.499511,0.05026796,-0.06935386,1.617765,0.05423051,-0.3840174,1.607142,-0.1164616,0.1175793,1.59524,-0.02323333,-0.3744695,1.568916,-0.1604229,-0.1496359,1.597585,0.2518911,-0.1509172,1.618704,NA,NA,NotTracked,NotTracked,
0.9072266,-0.394043,0.04443359,0.90625,0.324707,0.1254883,0,1,-1,-1,-4,-6,3,-2,22,7,1,-1,0,2,2,3,1.125,1.125,1.125,-0.6875,-0.6875,-0.6875,2.618985,3.175094,8.121515,6.954747,3.111053,7.456206,-0.1635922,-0.4645701,1.48546,0.2357042,-0.4755134,1.512042,0.05519226,0.3925028,1.585679,-0.1334216,-0.4635893,1.522571,0.186426,-0.4834247,1.500592,0.05009172,-0.06934816,1.617752,0.05408448,-0.3840516,1.607258,-0.1166105,0.1175413,1.59517,-0.02335703,-0.3744961,1.568994,-0.1605033,-0.1496313,1.597615,0.2516124,-0.1507752,1.618824,NA,NA,NotTracked,NotTracked,
0.9204102,-0.4018555,0.03662109,0.9072266,0.3320313,0.1289063,2,-1,0,-2,0,-2,4,0,2,-3,0,-2,-2,1,-1,-4,0.8125,0.8125,0.8125,-3.125,-3.125,-3.125,2.620796,3.175493,8.120964,6.944514,3.114221,7.465163,-0.1632178,-0.4639697,1.483852,0.2353428,-0.4744978,1.511254,0.05516139,0.3924491,1.585766,-0.1554419,-0.4407619,1.521936,0.2174206,-0.4835328,1.540583,0.0500092,-0.06937853,1.617766,0.05398694,-0.3841048,1.607303,-0.1166887,0.1175232,1.59515,-0.02346771,-0.3745548,1.569014,-0.160534,-0.1497036,1.59755,0.2514747,-0.1506799,1.618908,NA,NA,NotTracked,NotTracked,
0.9101563,-0.3881836,0.04199219,0.9130859,0.3349609,0.1166992,-3,-2,0,-2,-1,-1,1,-1,-3,-5,-1,0,0,-2,5,-3,6.5,6.5,6.5,-1.375,-1.375,-1.375,2.634601,3.17714,8.1187,6.929523,3.115424,7.473089,-0.1634114,-0.4627685,1.484256,0.2346246,-0.4757077,1.51036,0.055153,0.3923362,1.585987,-0.2108589,-0.459309,1.469429,0.2106907,-0.4953869,1.532718,0.04987622,-0.06943186,1.617848,0.05392218,-0.3841771,1.607422,-0.1167861,0.1175045,1.595208,-0.02351214,-0.3746292,1.569122,-0.1605774,-0.1498158,1.597549,0.2512009,-0.1513737,1.619097,NA,NA,NotTracked,NotTracked,
0.9130859,-0.3959961,0.03613281,0.9165039,0.34375,0.1225586,-1,-1,0,0,0,-1,1,-4,21,2,1,-1,-1,-3,-2,-2,-0.0625,-0.0625,-0.0625,0.125,0.125,0.125,2.639736,3.176951,8.117189,6.919619,3.116459,7.484031,-0.1625145,-0.4638618,1.484493,0.2335874,-0.4759461,1.510608,0.05518166,0.3923992,1.58624,-0.1479371,-0.4522147,1.415779,0.2201434,-0.485395,1.5424,0.04986249,-0.06944162,1.617881,0.05387793,-0.3841897,1.607489,-0.116842,0.1175776,1.595184,-0.02355741,-0.3746389,1.569171,-0.1605785,-0.149821,1.597543,0.2508944,-0.1509191,1.619216,NA,NA,NotTracked,NotTracked,
