ALX,ALY,ALZ,ARX,ARY,ARZ,EMG0L,EMG1L,EMG2L,EMG3L,EMG4L,EMG5L,EMG6L,EMG7L,EMG0R,EMG1R,EMG2R,EMG3R,EMG4R,EMG5R,EMG6R,EMG7R,GLX,GLY,GLZ,GRX,GRY,GRZ,ORL,OPL,OYL,ORR,OPR,OYR,LHNX,LHNY,LHNZ,RHNX,RHNY,RHNZ,HX,HY,HZ,LTX,LTY,LTZ,RTX,RTY,RTZ,SpineMidX,SpineMidY,SpineMidZ,SpineBaseX,SpineBaseY,SpineBaseZ,ShoulderLeftX,ShoulderLeftY,ShoulderLeftZ,ShoulderRightX,ShoulderRightY,ShoulderRightZ,ElbowLeftX,ElbowLeftY,ElbowLeftZ,ElbowRightX,ElbowRightY,ElbowRightZ,Myo_Pose_left,Myo_Pose_Right,Kinect_pose_left,Kinect_pose_right
0.9291992,-0.3632813,0.1157227,1.080078,0.5253906,0.3813477,1,-2,-1,0,1,-4,-3,-2,2,6,-40,-12,-6,5,-8,-1,-0.625,-0.625,-0.625,52.25,52.25,52.25,2.968386,3.118008,1.159108,6.434199,3.318342,2.895101,-0.1345075,-0.409551,1.569384,0.2206449,-0.4204268,1.542156,0.06348805,0.3933232,1.6225,-0.1740324,-0.4115952,1.589276,0.2484162,-0.4557712,1.5265,0.05767879,-0.07015524,1.655204,0.05994543,-0.3856862,1.648777,-0.1108494,0.1204279,1.642203,-0.01980432,-0.3767478,1.609658,-0.1499602,-0.1304735,1.661731,0.2617505,-0.1438648,1.687587,NA,NA,NotTracked,NotTracked,
0.9189453,-0.3574219,0.1088867,0.8144531,0.6894531,0.6503906,0,0,-2,0,-1,-2,-2,-2,8,13,117,19,-7,-11,12,14,-2.8125,-2.8125,-2.8125,16.125,16.125,16.125,2.968859,3.120204,1.153054,6.342084,3.783102,3.117363,-0.1342309,-0.4086682,1.567681,0.1852706,-0.3630014,1.49231,0.06350424,0.3927811,1.621789,-0.1733231,-0.4068277,1.583117,0.209164,-0.3817436,1.450973,0.05590364,-0.07031193,1.655004,0.05441163,-0.3856059,1.647705,-0.1108283,0.1204384,1.642208,-0.02562625,-0.3753438,1.608251,-0.1500134,-0.1297406,1.66182,0.2707168,-0.1242424,1.691099,NA,NA,NotTracked,Unknown,
0.9248047,-0.3647461,0.1318359,0.3544922,0.5742188,0.7084961,-2,-2,-1,-2,-1,-2,0,1,-1,7,9,-9,0,6,10,1,-9.125,-9.125,-9.125,8.25,8.25,8.25,2.969313,3.119353,1.140724,6.296227,4.250341,3.214756,-0.1339048,-0.4088579,1.568808,0.1432517,-0.2593176,1.473769,0.06390094,0.3920498,1.62076,-0.1718234,-0.410673,1.581806,0.1556672,-0.3242388,1.493575,0.05539736,-0.0705208,1.655132,0.05315489,-0.3857829,1.647675,-0.110709,0.120493,1.642267,-0.02649995,-0.3751515,1.608199,-0.1499223,-0.1288599,1.662116,0.2749059,-0.1155815,1.687257,NA,NA,NotTracked,Unknown,
0.9233398,-0.3676758,0.1171875,0.03564453,0.6386719,0.6113281,-3,-4,-2,0,0,-1,-1,-4,-26,-1,-6,-4,0,-2,-1,-7,-8.625,-8.625,-8.625,25.8125,25.8125,25.8125,2.964765,3.118822,1.128368,6.310052,4.785579,3.289953,-0.1337899,-0.4090378,1.569354,0.1235135,-0.1185638,1.446438,0.06459809,0.3911843,1.619594,-0.1732226,-0.4058134,1.582833,0.08104198,-0.1112842,1.488343,0.05535041,-0.070424,1.655437,0.05334495,-0.3849877,1.648151,-0.1103418,0.120574,1.642289,-0.02608862,-0.3744633,1.608311,-0.1499443,-0.1285299,1.662051,0.2771646,-0.09695043,1.665359,NA,NA,NotTracked,Unknown,
0.9321289,-0.3500977,0.1030273,-0.3173828,0.6108398,0.5097656,4,1,0,-2,-1,-1,1,-1,-2,-3,-12,-5,-3,-3,-1,6,-0.8125,-0.8125,-0.8125,9.875,9.875,9.875,2.962166,3.119595,1.120954,6.354292,5.312627,3.370551,-0.1335378,-0.4085934,1.568523,0.1180419,-0.003359286,1.459799,0.06575882,0.3897583,1.617491,-0.1720597,-0.4051327,1.580945,0.1264233,0.04784486,1.476,0.05538445,-0.07036064,1.655675,0.05346373,-0.3845406,1.648295,-0.1097816,0.1207391,1.642212,-0.02583789,-0.3741587,1.608555,-0.1498228,-0.1281059,1.662,0.2947333,-0.1063926,1.62923,NA,NA,NotTracked,Unknown,
0.9194336,-0.3632813,0.09765625,-0.4897461,0.5952148,0.4799805,12,7,-1,-1,-1,-2,-4,-3,-12,2,-6,-1,0,2,7,1,-0.25,-0.25,-0.25,26.4375,26.4375,26.4375,2.962254,3.11962,1.121605,6.458737,5.889033,3.522275,-0.1327871,-0.4079544,1.568275,0.1127407,0.09280278,1.475358,0.0662858,0.3891675,1.616716,-0.1707009,-0.4087058,1.579104,0.08489308,0.06027288,1.5364,0.05537015,-0.07034976,1.655621,0.05334027,-0.3847444,1.648404,-0.1098504,0.1208902,1.642444,-0.02615388,-0.3747514,1.609457,-0.1497885,-0.1280271,1.662015,0.288553,-0.1032901,1.619565,NA,NA,NotTracked,Unknown,
0.9160156,-0.3725586,0.1108398,-0.4350586,0.6269531,0.4575195,-1,-1,-3,0,0,1,0,1,-36,1,9,1,3,1,4,-1,-1,-1,-1,16.875,16.875,16.875,2.961754,3.119737,1.121918,6.591724,6.165786,3.664757,-0.132888,-0.4084899,1.569363,0.1182596,0.1351079,1.501958,0.0663664,0.3884994,1.616005,-0.174297,-0.3970391,1.5872,0.0963438,0.09508444,1.553813,0.05423278,-0.07156341,1.655506,0.0532437,-0.3855255,1.648574,-0.1146595,0.120881,1.64723,-0.02644233,-0.3765162,1.611658,-0.1496345,-0.1279352,1.662144,0.279771,-0.09282169,1.599488,NA,NA,NotTracked,Unknown,
0.9257813,-0.3666992,0.1147461,-0.5917969,0.5585938,0.4204102,0,-3,-3,-2,-1,1,2,-2,-15,1,0,-3,-3,4,5,-5,1.9375,1.9375,1.9375,13.4375,13.4375,13.4375,2.963181,3.121915,1.119501,6.688246,6.296701,3.7851,-0.132964,-0.4085749,1.568807,0.1200003,0.1604117,1.508972,0.0662545,0.3878849,1.61543,-0.1742094,-0.3978463,1.584375,0.1048362,0.1307184,1.548625,0.05349221,-0.07242492,1.654647,0.05292736,-0.3870078,1.648724,-0.1147747,0.1208019,1.647944,-0.02714721,-0.3785514,1.61395,-0.1495029,-0.1273675,1.662568,0.2764578,-0.08173048,1.582188,NA,NA,NotTracked,Unknown,
0.9169922,-0.3574219,0.1054688,-0.6665039,0.5639648,0.3720703,2,-1,0,0,0,0,3,1,-40,15,12,2,2,9,12,-10,3.75,3.75,3.75,6.375,6.375,6.375,2.968808,3.123129,1.120626,6.749362,6.33813,3.84761,-0.132762,-0.4049124,1.570642,0.1215357,0.1673965,1.513984,0.06607964,0.3875321,1.615144,-0.1738912,-0.388941,1.584909,0.1129839,0.1326194,1.55225,0.05298791,-0.0729976,1.654036,0.0527327,-0.3878999,1.648737,-0.113899,0.1206601,1.647733,-0.02756415,-0.3795498,1.615057,-0.1494443,-0.1271719,1.662804,0.2764152,-0.08044422,1.576143,NA,NA,NotTracked,Unknown,
0.9165039,-0.3735352,0.1181641,-0.7060547,0.5708008,0.3398438,-6,-6,1,-1,-1,0,0,0,23,3,-11,-5,-2,-6,-4,12,4.125,4.125,4.125,2.8125,2.8125,2.8125,2.973401,3.126157,1.122572,6.754862,6.346743,3.849998,-0.133008,-0.405061,1.570243,0.1233027,0.1684835,1.514942,0.06574231,0.3869271,1.614995,-0.1718395,-0.407428,1.582893,0.1132544,0.1359277,1.550636,0.05261742,-0.073352,1.653396,0.05242664,-0.3884843,1.648632,-0.1132798,0.1206162,1.647596,-0.02800214,-0.3801167,1.615643,-0.1493082,-0.1273128,1.66317,0.2772884,-0.07878912,1.571353,NA,NA,NotTracked,Unknown,
0.9213867,-0.3793945,0.1240234,-0.7646484,0.590332,0.3095703,-3,2,-1,0,-1,1,1,2,-8,-11,0,2,0,4,0,-16,0.6875,0.6875,0.6875,4.5625,4.5625,4.5625,2.975262,3.129352,1.124283,6.748321,6.357371,3.835276,-0.1336318,-0.4052299,1.569241,0.1222955,0.169665,1.52031,0.06534411,0.3863353,1.6147,-0.1708969,-0.4169055,1.585535,0.08769184,0.1559839,1.5534,0.0521441,-0.07395533,1.652497,0.05213901,-0.3889859,1.648404,-0.1129959,0.12057,1.647616,-0.02829098,-0.3804821,1.615863,-0.1490688,-0.1267096,1.663384,0.2775727,-0.07752074,1.566754,NA,NA,NotTracked,Unknown,
0.9145508,-0.3745117,0.1147461,-0.7631836,0.5991211,0.3149414,-3,-1,0,-1,-1,0,-1,-2,-5,-1,-2,-9,-2,3,6,11,-2.625,-2.625,-2.625,2.5625,2.5625,2.5625,2.976637,3.132964,1.121197,6.739227,6.355722,3.819793,-0.1334826,-0.40509,1.568821,0.123163,0.1697895,1.513096,0.0651111,0.3858373,1.614763,-0.1684969,-0.4273255,1.579429,0.1145287,0.1360384,1.556857,0.05196309,-0.07426836,1.652047,0.05199416,-0.3894626,1.648221,-0.1125485,0.1203062,1.647443,-0.02848756,-0.3808537,1.616099,-0.1490405,-0.126725,1.66351,0.2772691,-0.07755201,1.566261,NA,NA,NotTracked,Unknown,
0.9262695,-0.3725586,0.1191406,-0.7895508,0.6074219,0.3066406,-6,-6,0,-1,0,0,0,-1,0,-4,0,-6,-1,1,0,4,-3.9375,-3.9375,-3.9375,6.8125,6.8125,6.8125,2.974954,3.133197,1.115123,6.736446,6.356402,3.805793,-0.1339858,-0.404888,1.568612,0.1236274,0.1707657,1.514024,0.06505182,0.3857005,1.614744,-0.1708855,-0.4080073,1.576462,0.1140665,0.1373137,1.5575,0.05178937,-0.07432827,1.651874,0.05171983,-0.3897857,1.648197,-0.112283,0.1202063,1.647354,-0.02882784,-0.3811237,1.616421,-0.1490158,-0.1266979,1.663628,0.2770975,-0.07753894,1.566002,NA,NA,NotTracked,Unknown,
0.9199219,-0.3613281,0.1088867,-0.7729492,0.597168,0.3051758,-2,0,-3,-1,-2,-3,-3,-2,-7,0,-14,-5,-4,1,2,13,-3.3125,-3.3125,-3.3125,4.9375,4.9375,4.9375,2.974955,3.132827,1.108268,6.741088,6.361333,3.80142,-0.1337407,-0.4054013,1.568955,0.1241967,0.1715584,1.515825,0.06500388,0.3856326,1.614739,-0.1693417,-0.4272717,1.581571,0.111358,0.1411641,1.555161,0.05170841,-0.07429157,1.651635,0.05155943,-0.3899697,1.648104,-0.111932,0.1202072,1.647158,-0.02898251,-0.3812585,1.616446,-0.1490271,-0.1264511,1.663598,0.2768753,-0.07728034,1.565637,NA,NA,NotTracked,Unknown,
0.9243164,-0.3666992,0.112793,-0.7763672,0.5996094,0.2851563,0,-3,-2,-1,-2,-2,0,-1,-12,-18,-4,-1,-1,1,8,8,-1.9375,-1.9375,-1.9375,7.5625,7.5625,7.5625,2.974897,3.132291,1.104313,6.751829,6.365373,3.798163,-0.1336059,-0.4047569,1.568941,0.1247015,0.1731187,1.520176,0.06496622,0.3855079,1.614849,-0.1743333,-0.3954713,1.586474,0.08518864,0.1631748,1.5455,0.05176537,-0.0743083,1.651443,0.05160544,-0.390124,1.648049,-0.1118229,0.1201315,1.64702,-0.02894822,-0.3813994,1.616485,-0.1490355,-0.1264205,1.663617,0.2767634,-0.07724763,1.565646,NA,NA,NotTracked,Unknown,
0.9238281,-0.3681641,0.1186523,-0.8017578,0.6069336,0.2553711,-4,-1,-1,-1,-1,-2,-5,-4,7,-6,-11,-5,-5,-2,0,14,-3.1875,-3.1875,-3.1875,30.5625,30.5625,30.5625,2.97424,3.13061,1.099232,6.774068,6.364666,3.764796,-0.1339712,-0.4053713,1.56852,0.1272173,0.17306,1.519134,0.06492941,0.3854395,1.614899,-0.1723155,-0.4146219,1.583556,0.09003348,0.1603505,1.54694,0.05183975,-0.07418551,1.651328,0.05152838,-0.3901969,1.647932,-0.1115302,0.1202463,1.646752,-0.02899806,-0.3814235,1.616475,-0.1490901,-0.1263158,1.663552,0.2768358,-0.0768574,1.565592,NA,NA,NotTracked,Unknown,
0.9262695,-0.3662109,0.1186523,-0.9697266,0.5166016,0.190918,-1,-1,-1,-2,-1,-2,-2,-3,-17,-2,0,2,3,5,2,-15,-1.8125,-1.8125,-1.8125,39.75,39.75,39.75,2.974762,3.129956,1.095575,6.780942,6.356679,3.683048,-0.1337394,-0.4047461,1.567348,0.1330761,0.1777767,1.500655,0.0649034,0.3854278,1.614971,-0.1753953,-0.3950822,1.582917,0.08506787,0.1791257,1.502933,0.05198535,-0.07406467,1.651259,0.05151755,-0.3902949,1.647862,-0.1112971,0.120281,1.646514,-0.02901708,-0.3815093,1.616491,-0.1490903,-0.1264491,1.663411,0.2773907,-0.07583792,1.564201,NA,NA,NotTracked,Unknown,
0.9130859,-0.3701172,0.1274414,-0.6655273,0.6201172,0.2734375,-1,-2,-2,-2,0,-1,-1,0,6,8,6,4,1,-4,8,-9,-4.9375,-4.9375,-4.9375,38,38,38,2.976084,3.129107,1.087038,6.730766,6.245629,3.498069,-0.133379,-0.4047753,1.56872,0.1203439,0.2034652,1.477374,0.064796,0.3856742,1.615038,-0.1722451,-0.4072384,1.581477,0.0946269,0.1980827,1.5566,0.05214478,-0.07389694,1.651275,0.0515051,-0.3903096,1.647814,-0.1111291,0.1202102,1.646328,-0.02904214,-0.3815143,1.616491,-0.1490539,-0.1263803,1.663374,0.2785654,-0.07448722,1.56001,NA,NA,NotTracked,Unknown,
0.9150391,-0.3583984,0.1152344,-0.3374023,0.6660156,0.5097656,1,0,-1,-3,-1,-2,0,2,5,-4,-12,-9,-10,-5,-3,19,-0.9375,-0.9375,-0.9375,7.9375,7.9375,7.9375,2.979263,3.130582,1.078791,6.685876,6.075385,3.385239,-0.1330518,-0.4043825,1.568073,0.1220109,0.1806803,1.444011,0.06422897,0.3865436,1.615762,-0.170892,-0.4093387,1.575953,0.1142915,0.205478,1.4608,0.05228412,-0.0737595,1.651375,0.05155732,-0.3903741,1.647818,-0.1110601,0.120244,1.646278,-0.02900658,-0.3815706,1.61653,-0.1490089,-0.126636,1.663379,0.2800004,-0.07325058,1.557048,NA,NA,NotTracked,Unknown,
0.9492188,-0.3540039,0.1328125,-0.7158203,0.734375,0.612793,0,-6,-1,1,-1,2,2,0,-36,-10,0,2,3,-4,6,-6,8.625,8.625,8.625,-44.25,-44.25,-44.25,2.991426,3.133703,1.074509,6.590757,5.92451,3.356313,-0.1335485,-0.4046518,1.567714,0.113272,0.1654857,1.448124,0.0637807,0.3872579,1.616511,-0.168304,-0.4289615,1.577667,0.1486915,0.1670348,1.432637,0.0521607,-0.07366335,1.651825,0.05157007,-0.3903764,1.647864,-0.1110803,0.1202778,1.64628,-0.02898761,-0.381577,1.61662,-0.1490088,-0.1265104,1.663335,0.2813478,-0.07205617,1.557198,NA,NA,NotTracked,Unknown,
0.9306641,-0.3540039,0.1015625,-0.9326172,0.7509766,0.3388672,-5,0,-2,0,-1,-3,-2,0,28,8,-1,-1,-2,0,13,-4,11.9375,11.9375,11.9375,-42.4375,-42.4375,-42.4375,2.996148,3.130143,1.100247,6.554111,6.025986,3.445274,-0.1333355,-0.404876,1.569799,0.119151,0.1533256,1.468772,0.06355573,0.3875319,1.616762,-0.17505,-0.3877901,1.587625,0.1442319,0.1686818,1.460312,0.05211828,-0.07356445,1.652408,0.0516435,-0.3902464,1.647878,-0.111175,0.1203241,1.646209,-0.02888235,-0.3814587,1.616549,-0.1491006,-0.1264148,1.663285,0.2829711,-0.07348949,1.565116,NA,NA,NotTracked,Unknown,
0.9038086,-0.4169922,0.1171875,-0.8999023,0.7255859,0.1875,1,0,-1,-3,-2,-2,-3,-5,16,1,-6,-2,-3,-10,-14,6,-8.0625,-8.0625,-8.0625,8.6875,8.6875,8.6875,2.970992,3.119285,1.126887,6.628851,6.248121,3.559839,-0.133014,-0.4051122,1.571894,0.1146827,0.2000243,1.50757,0.0634864,0.3876838,1.617043,-0.1670904,-0.4225379,1.577572,0.1339538,0.1676441,1.459063,0.05199146,-0.07366219,1.652445,0.05163708,-0.3902321,1.647872,-0.1109865,0.1203762,1.646041,-0.02889417,-0.381435,1.616583,-0.1491048,-0.126082,1.663449,0.2847441,-0.07503589,1.573678,NA,NA,NotTracked,Unknown,
0.9086914,-0.3984375,0.140625,-0.7036133,0.543457,0.2460938,3,5,0,0,-1,-1,5,1,-2,-1,1,0,0,6,10,6,-10.125,-10.125,-10.125,44.0625,44.0625,44.0625,2.96541,3.12466,1.114059,6.733596,6.386367,3.612171,-0.1327962,-0.4043,1.56936,0.118787,0.2233423,1.505821,0.06362625,0.3875927,1.616989,-0.171911,-0.4000901,1.579591,0.1472676,0.1951634,1.462769,0.05241048,-0.07332426,1.652261,0.05162731,-0.390075,1.647742,-0.1099432,0.1208102,1.645117,-0.02892717,-0.3813069,1.616508,-0.1490172,-0.1260656,1.663368,0.2859038,-0.07215454,1.568228,NA,NA,NotTracked,Unknown,
0.9257813,-0.3305664,0.1113281,-0.421875,0.5322266,0.3881836,-2,3,0,-1,-1,0,-3,-2,20,7,2,-3,-2,-11,-13,5,-1.25,-1.25,-1.25,28.125,28.125,28.125,2.984339,3.136371,1.085747,6.749031,6.304087,3.523877,-0.1328708,-0.4040513,1.568122,0.1132137,0.2363637,1.493307,0.06413817,0.3878511,1.617084,-0.1730607,-0.3985615,1.583263,0.06077421,0.2473529,1.537667,0.05291595,-0.07300118,1.652132,0.05150672,-0.3899082,1.647564,-0.1090763,0.1211547,1.644686,-0.02916592,-0.3810341,1.616286,-0.148674,-0.12593,1.663217,0.2886674,-0.06966515,1.559572,NA,NA,NotTracked,Unknown,
0.921875,-0.340332,0.08544922,-0.4072266,0.5517578,0.4643555,3,-1,-3,-1,-2,-2,-6,-5,16,-7,-9,-7,-15,-1,2,-7,3.6875,3.6875,3.6875,-12.4375,-12.4375,-12.4375,2.990164,3.138663,1.080657,6.681419,6.116199,3.452028,-0.1321533,-0.4036622,1.566402,0.1150861,0.2089899,1.463306,0.06427493,0.3887434,1.617565,-0.1708568,-0.4023258,1.57753,0.1060005,0.2006909,1.48425,0.05326276,-0.07263711,1.651877,0.05162746,-0.3898295,1.647364,-0.1088028,0.1213406,1.644527,-0.02914018,-0.3809187,1.616138,-0.1482859,-0.1255117,1.662826,0.2902056,-0.06851929,1.553904,NA,NA,NotTracked,Unknown,
0.9384766,-0.3500977,0.1098633,-0.4819336,0.7724609,0.6005859,-7,-2,-2,0,0,1,-1,-2,5,4,0,3,23,9,3,-4,13.125,13.125,13.125,-20,-20,-20,3.002697,3.136177,1.094981,6.613961,5.91913,3.39786,-0.1330395,-0.4041676,1.566972,0.1334279,0.1327136,1.441812,0.06425309,0.3892625,1.618367,-0.1755962,-0.3834175,1.590778,0.1318965,0.1361078,1.479461,0.05333107,-0.07262692,1.651826,0.05198611,-0.3899662,1.6471,-0.1087916,0.1213361,1.644521,-0.02877723,-0.3809912,1.615974,-0.1481707,-0.1255752,1.662756,0.312204,-0.08980968,1.57198,NA,NA,NotTracked,Lasso,
0.9291992,-0.3647461,0.1176758,-0.8505859,0.8295898,0.5932617,2,-18,-4,-1,0,-2,0,-1,54,11,-2,-3,-3,-2,-10,18,14.9375,14.9375,14.9375,-57.375,-57.375,-57.375,3.00932,3.134502,1.115178,6.521667,5.827929,3.39559,-0.1315576,-0.404991,1.567781,0.1315023,0.1135402,1.45498,0.06409131,0.3895074,1.618747,-0.172118,-0.4051245,1.586349,0.1111343,0.08589347,1.532222,0.05359353,-0.0725411,1.652154,0.05256861,-0.3893522,1.64656,-0.1089175,0.1213105,1.644591,-0.02786681,-0.3803575,1.614867,-0.1480207,-0.1258532,1.662638,0.321518,-0.1048526,1.595224,NA,NA,NotTracked,Unknown,
0.8955078,-0.4091797,0.1245117,-0.9121094,0.8149414,0.2548828,0,9,2,0,-1,-1,0,0,34,17,6,3,-3,-1,-11,5,-0.75,-0.75,-0.75,-3.1875,-3.1875,-3.1875,3.002647,3.128934,1.130901,6.532656,6.038096,3.511972,-0.1309269,-0.4045165,1.569457,0.1329042,0.1211991,1.499185,0.06389835,0.3896627,1.618814,-0.1669911,-0.4232008,1.585333,0.1093795,0.08105887,1.546221,0.0536781,-0.07246815,1.65207,0.05265507,-0.3891485,1.646182,-0.1089817,0.1213158,1.644583,-0.02770474,-0.380161,1.61433,-0.1479086,-0.1253956,1.662623,0.2873157,-0.07971925,1.5848,NA,NA,NotTracked,Unknown,
0.9013672,-0.4067383,0.1323242,-0.7705078,0.6445313,0.2421875,-1,-1,1,-1,-1,-2,-3,0,2,11,15,3,-1,-5,4,-18,-8.6875,-8.6875,-8.6875,41.375,41.375,41.375,2.993795,3.129547,1.126364,6.654117,6.275797,3.623421,-0.1312384,-0.40507,1.569315,0.1238064,0.1941951,1.507124,0.06384853,0.3897671,1.618783,-0.1671108,-0.4194416,1.583357,0.08954397,0.1506773,1.567583,0.05353533,-0.07246879,1.651518,0.05270097,-0.3891346,1.645942,-0.1090109,0.1212134,1.644482,-0.02768147,-0.3801674,1.614355,-0.1476828,-0.1252877,1.662653,0.2861297,-0.07443073,1.577731,NA,NA,NotTracked,Unknown,
0.9267578,-0.3510742,0.1352539,-0.5893555,0.5244141,0.3134766,-5,15,2,1,-2,-1,-2,-4,21,6,1,-2,0,2,0,36,-5.125,-5.125,-5.125,53.8125,53.8125,53.8125,3.00752,3.140997,1.093816,6.772596,6.372756,3.6222,-0.1303025,-0.4081579,1.566054,0.1262152,0.2203303,1.498134,0.06402091,0.3897445,1.618697,-0.168479,-0.4055636,1.5766,0.09466454,0.2589384,1.5457,0.05415682,-0.07215508,1.651078,0.05290638,-0.3889996,1.645625,-0.108511,0.1212136,1.644336,-0.02760397,-0.3801221,1.614281,-0.1469854,-0.1248891,1.66265,0.2876056,-0.06969029,1.561069,NA,NA,NotTracked,Unknown,
0.9306641,-0.3286133,0.1108398,-0.3911133,0.5336914,0.4506836,-4,-7,-3,-2,-1,-3,-3,-2,-3,0,1,1,3,17,-4,30,-5.125,-5.125,-5.125,0.4375,0.4375,0.4375,3.011185,3.142335,1.084546,6.718438,6.188516,3.47757,-0.1293969,-0.4034974,1.565035,0.1279948,0.2143029,1.468477,0.06421075,0.3898837,1.618607,-0.1696885,-0.3876065,1.578591,0.07443456,0.2505237,1.524833,0.0545173,-0.07202144,1.650865,0.05292513,-0.3890388,1.645452,-0.1075194,0.1211545,1.643967,-0.02765789,-0.3801546,1.614177,-0.1462853,-0.1240736,1.662477,0.2903517,-0.06686798,1.548727,NA,NA,NotTracked,Unknown,
0.9248047,-0.359375,0.09521484,-0.3613281,0.6625977,0.5361328,-4,2,2,0,0,0,3,0,12,-23,-8,-1,-4,-6,-10,-3,4,4,4,-1.5,-1.5,-1.5,3.006981,3.139816,1.084431,6.645092,5.979015,3.39255,-0.128348,-0.4116972,1.563513,0.1388013,0.1648382,1.433218,0.06417479,0.3903136,1.618742,-0.1626574,-0.4331277,1.576286,0.1020075,0.1483858,1.430545,0.05497035,-0.07185704,1.650522,0.0534353,-0.3891141,1.644964,-0.1073602,0.1211488,1.64381,-0.02735527,-0.380244,1.613968,-0.145897,-0.1241844,1.662193,0.2907501,-0.06609553,1.54549,NA,NA,NotTracked,Lasso,
0.9350586,-0.3564453,0.1225586,-0.5151367,0.8466797,0.5996094,1,3,-2,0,0,1,2,3,-41,-12,-12,-12,1,6,19,8,10.375,10.375,10.375,-42.1875,-42.1875,-42.1875,3.013725,3.134473,1.097507,6.565951,5.815949,3.345305,-0.1298422,-0.4034765,1.566432,0.1403173,0.1227121,1.425202,0.06416453,0.3903139,1.61874,-0.1682542,-0.3998884,1.5784,0.1149021,0.1111597,1.390897,0.05501748,-0.07184112,1.650417,0.0538069,-0.3891663,1.644507,-0.1073954,0.1210428,1.643749,-0.0268887,-0.3802766,1.613525,-0.1454069,-0.1246103,1.662028,0.2888199,-0.06729057,1.551597,NA,NA,NotTracked,Unknown,
0.9350586,-0.3662109,0.1230469,-0.8935547,0.8647461,0.5419922,4,-4,-1,-2,-1,-1,-1,-1,0,-7,8,10,7,2,-6,-22,13.75,13.75,13.75,-63.125,-63.125,-63.125,3.018337,3.130703,1.116732,6.483777,5.785677,3.362689,-0.1296546,-0.4044653,1.569292,0.1388061,0.1062091,1.442738,0.06410532,0.3904153,1.618625,-0.169846,-0.3993787,1.588429,0.1386988,0.1178046,1.401587,0.05532305,-0.07178325,1.650612,0.05425514,-0.3886605,1.64431,-0.1075016,0.1210476,1.643676,-0.02616948,-0.3797664,1.612926,-0.1453869,-0.1246964,1.662094,0.2880895,-0.07215589,1.570166,NA,NA,NotTracked,Unknown,
0.8925781,-0.4116211,0.1303711,-0.8793945,0.7792969,0.2480469,2,3,-1,-1,-2,1,-2,0,-64,-52,-9,-2,-3,-4,-11,-1,-3.875,-3.875,-3.875,5.0625,5.0625,5.0625,3.000922,3.121254,1.139427,6.527461,6.046552,3.503698,-0.1323047,-0.3996615,1.574133,0.1210318,0.1418296,1.469365,0.06392203,0.3903767,1.618031,-0.1725297,-0.3925746,1.598222,0.1501155,0.1540162,1.451522,0.05550666,-0.07178949,1.650728,0.05433992,-0.3884251,1.644341,-0.1075689,0.1209598,1.643583,-0.02602879,-0.3795601,1.612831,-0.1452875,-0.1245625,1.662191,0.2877893,-0.0764962,1.57757,NA,NA,NotTracked,Unknown,
0.9111328,-0.3925781,0.1362305,-0.7280273,0.6162109,0.284668,5,10,0,-1,-2,-1,-2,-3,-27,-3,-5,-2,-1,22,-6,-12,-14.8125,-14.8125,-14.8125,42.625,42.625,42.625,2.99462,3.123391,1.125278,6.655571,6.272004,3.629956,-0.1308565,-0.4003747,1.570809,0.1144971,0.1919047,1.511858,0.06455667,0.3895141,1.615247,-0.167107,-0.4089808,1.583778,0.1262544,0.161085,1.456606,0.05530144,-0.07229746,1.64941,0.05424261,-0.3885602,1.644095,-0.1069811,0.1209504,1.642681,-0.02611549,-0.3796473,1.612769,-0.1451333,-0.1245598,1.662212,0.2876848,-0.07455464,1.576261,NA,NA,NotTracked,Unknown,
0.9331055,-0.3393555,0.140625,-0.5209961,0.5644531,0.3398438,-2,-4,-1,-2,-1,-1,-2,-2,1,0,0,-1,-2,-20,6,-10,-5.25,-5.25,-5.25,59.5625,59.5625,59.5625,3.011637,3.131504,1.091029,6.768203,6.344212,3.60982,-0.1293382,-0.4035118,1.5664,0.1098118,0.2450108,1.500264,0.06670283,0.3881386,1.612326,-0.1643158,-0.4112074,1.5737,0.1031655,0.2697402,1.453267,0.05576211,-0.07210752,1.648885,0.05425857,-0.3885317,1.64389,-0.1061452,0.1208623,1.641725,-0.02614789,-0.3796463,1.612731,-0.1446649,-0.1241477,1.661916,0.2896019,-0.06935863,1.559001,NA,NA,NotTracked,Unknown,
0.9262695,-0.3310547,0.1010742,-0.4360352,0.5112305,0.4013672,2,-2,-2,-1,-1,1,1,1,-15,-9,2,7,8,2,-3,-6,-7.4375,-7.4375,-7.4375,17.375,17.375,17.375,3.018276,3.132189,1.072242,6.738799,6.216624,3.520238,-0.1280128,-0.4031506,1.564343,0.1195774,0.2292408,1.474313,0.06796185,0.387795,1.610729,-0.1677936,-0.4009074,1.582747,0.1001322,0.2647868,1.43175,0.05652049,-0.07224773,1.648038,0.05427537,-0.3886217,1.643633,-0.1047236,0.1209923,1.640851,-0.02631103,-0.3797026,1.612388,-0.1441014,-0.1234445,1.661062,0.2920926,-0.06556182,1.545924,NA,NA,NotTracked,Unknown,
0.9404297,-0.3461914,0.09863281,-0.4179688,0.6416016,0.5283203,-7,2,-2,0,-2,-1,2,-1,4,-9,-7,-1,-4,-12,4,-1,3.25,3.25,3.25,-14.1875,-14.1875,-14.1875,3.014493,3.127222,1.074765,6.676071,6.034832,3.447045,-0.1277981,-0.3997815,1.565676,0.140282,0.170655,1.434912,0.06860188,0.3883389,1.609985,-0.1633971,-0.4236524,1.58175,0.1556309,0.2015141,1.397938,0.05670067,-0.07213753,1.647838,0.05452531,-0.3887586,1.643427,-0.1042564,0.1208787,1.640392,-0.02617315,-0.3798268,1.612261,-0.1437252,-0.1231343,1.660616,0.2931431,-0.06443761,1.542566,NA,NA,NotTracked,Lasso,
0.9262695,-0.3447266,0.1118164,-0.4980469,0.7402344,0.5595703,1,-3,-3,-1,0,-1,1,-1,5,8,-7,-7,-3,6,3,14,11.6875,11.6875,11.6875,-17.6875,-17.6875,-17.6875,3.015718,3.123733,1.089301,6.601044,5.894699,3.38929,-0.1273305,-0.4006814,1.566135,0.1407905,0.1368154,1.429875,0.06865539,0.3883792,1.609856,-0.1647771,-0.3960908,1.574286,0.1529657,0.1695293,1.412333,0.05673717,-0.07227317,1.647757,0.05478515,-0.3888915,1.643227,-0.1042155,0.1209123,1.640174,-0.02597306,-0.3799371,1.612168,-0.1436223,-0.123111,1.660452,0.2941788,-0.06555703,1.547294,NA,NA,NotTracked,Unknown,
0.940918,-0.3510742,0.1274414,-0.8330078,0.7578125,0.5356445,-4,-1,-1,-1,-1,-3,-2,-1,-7,1,0,3,-3,-1,1,6,14.3125,14.3125,14.3125,-65.1875,-65.1875,-65.1875,3.019504,3.118799,1.111871,6.500364,5.874687,3.373389,-0.1256454,-0.4084801,1.566127,0.1430317,0.1248106,1.445593,0.06850374,0.3883649,1.609461,-0.1675294,-0.4006973,1.587909,0.1499167,0.1354472,1.408641,0.05677768,-0.07229277,1.647772,0.05494533,-0.3887357,1.643036,-0.1045109,0.1207221,1.639968,-0.02568836,-0.379785,1.611758,-0.1435797,-0.1229674,1.660427,0.2934188,-0.07015977,1.563053,NA,NA,NotTracked,Unknown,
0.9008789,-0.3999023,0.1298828,-0.9067383,0.71875,0.2607422,3,8,-1,-1,-2,0,-1,-2,-20,-6,-2,-3,-3,-1,5,-10,3.25,3.25,3.25,-17.9375,-17.9375,-17.9375,3.005443,3.115984,1.142955,6.491322,6.081058,3.449409,-0.1215123,-0.4232869,1.560639,0.1474804,0.1368559,1.471155,0.06797168,0.3881337,1.608132,-0.1622209,-0.4188256,1.581933,0.1534357,0.1528398,1.433529,0.05681139,-0.07239718,1.647523,0.05496211,-0.3887116,1.642855,-0.1045039,0.1206325,1.639404,-0.02563188,-0.3797513,1.611539,-0.1433737,-0.1230512,1.660476,0.2916016,-0.07466929,1.571313,NA,NA,NotTracked,Unknown,
0.8989258,-0.3876953,0.1254883,-0.7241211,0.6352539,0.3085938,-4,0,-3,-1,-2,-1,1,0,9,0,2,1,5,24,-7,-10,-7.4375,-7.4375,-7.4375,26.1875,26.1875,26.1875,2.998484,3.119414,1.141381,6.563783,6.230423,3.500604,-0.1274552,-0.4013065,1.568594,0.1386259,0.1873336,1.482565,0.06781435,0.3878207,1.607054,-0.1631306,-0.4195055,1.58425,0.1509338,0.193135,1.450804,0.05702364,-0.0726077,1.646965,0.05493264,-0.3887961,1.642666,-0.104315,0.1205231,1.639135,-0.0256679,-0.3798387,1.611548,-0.1432105,-0.1231686,1.660464,0.2902744,-0.07425919,1.571537,NA,NA,NotTracked,Unknown,
0.940918,-0.3461914,0.1318359,-0.5429688,0.5844727,0.409668,3,1,-1,1,-1,-3,-1,-4,-6,3,-11,-11,-6,-18,-20,49,-5.25,-5.25,-5.25,32.125,32.125,32.125,3.009717,3.131482,1.109885,6.60309,6.205752,3.447631,-0.1273182,-0.4000945,1.565491,0.1392513,0.1955443,1.46788,0.06816383,0.3875683,1.606302,-0.1636945,-0.4011677,1.575478,0.1724465,0.2024108,1.44176,0.05740428,-0.07252594,1.646534,0.05484544,-0.3887603,1.642201,-0.1038038,0.1206143,1.638644,-0.02583114,-0.379795,1.611255,-0.1426724,-0.1230065,1.660145,0.2892683,-0.07339828,1.563323,NA,NA,NotTracked,Unknown,
0.9282227,-0.3291016,0.08154297,-0.5405273,0.5791016,0.5161133,-5,-5,-2,-1,0,-2,-3,-3,-85,-25,-6,1,-1,-3,6,-11,0.5,0.5,0.5,-0.6875,-0.6875,-0.6875,3.012434,3.132189,1.105334,6.565538,6.065748,3.379567,-0.1267971,-0.4001819,1.565126,0.1291362,0.2116397,1.43645,0.06834123,0.3875361,1.606227,-0.1639582,-0.4091629,1.580078,0.1063635,0.2254544,1.393667,0.05768591,-0.072541,1.646342,0.0550695,-0.3888352,1.641914,-0.1036624,0.1206127,1.638551,-0.02571164,-0.379871,1.611102,-0.1423444,-0.123103,1.659933,0.2894686,-0.07213432,1.557411,NA,NA,NotTracked,Lasso,
