ALX,ALY,ALZ,ARX,ARY,ARZ,EMG0L,EMG1L,EMG2L,EMG3L,EMG4L,EMG5L,EMG6L,EMG7L,EMG0R,EMG1R,EMG2R,EMG3R,EMG4R,EMG5R,EMG6R,EMG7R,GLX,GLY,GLZ,GRX,GRY,GRZ,ORL,OPL,OYL,ORR,OPR,OYR,LHNX,LHNY,LHNZ,RHNX,RHNY,RHNZ,HX,HY,HZ,LTX,LTY,LTZ,RTX,RTY,RTZ,SpineMidX,SpineMidY,SpineMidZ,SpineBaseX,SpineBaseY,SpineBaseZ,ShoulderLeftX,ShoulderLeftY,ShoulderLeftZ,ShoulderRightX,ShoulderRightY,ShoulderRightZ,ElbowLeftX,ElbowLeftY,ElbowLeftZ,ElbowRightX,ElbowRightY,ElbowRightZ,Myo_Pose_left,Myo_Pose_Right,Kinect_pose_left,Kinect_pose_right
0.9204102,-0.355957,0.1235352,0.9243164,0.2875977,0.1518555,-1,-2,-1,-2,-1,0,-1,0,-1,-1,-3,-1,-1,0,-1,-1,-0.1875,-0.1875,-0.1875,-2.3125,-2.3125,-2.3125,3.037484,3.106707,4.484156,6.75249,3.019726,1.846817,-0.1126129,-0.4402718,1.560979,0.2464815,-0.4546462,1.569813,0.07473305,0.3835341,1.615379,-0.0667554,-0.4308095,1.522206,0.2029812,-0.4359707,1.532515,0.07014767,-0.07357898,1.659236,0.07291039,-0.3841361,1.652405,-0.1033591,0.1150487,1.651581,-0.006404353,-0.375757,1.617075,-0.1369792,-0.1371059,1.667187,0.2736759,-0.157406,1.673508,NA,NA,NotTracked,NotTracked,
0.9291992,-0.3540039,0.121582,0.9262695,0.2861328,0.1508789,-2,-1,-2,-2,-1,-2,-1,-4,-2,0,0,0,-1,-1,-1,-1,-1.125,-1.125,-1.125,-0.75,-0.75,-0.75,3.036096,3.106461,4.484543,6.743786,3.019652,1.851355,-0.1125231,-0.4393968,1.560346,0.2466761,-0.4547943,1.56851,0.07486394,0.3835531,1.615388,-0.06832855,-0.4219791,1.523532,0.2024069,-0.441277,1.53189,0.07026663,-0.07354972,1.659157,0.07293367,-0.3841254,1.652387,-0.1032175,0.1151923,1.651538,-0.006367946,-0.3757277,1.617044,-0.1368454,-0.1370409,1.667105,0.2737001,-0.1574123,1.673518,NA,NA,NotTracked,NotTracked,
0.9145508,-0.355957,0.1186523,0.9208984,0.2802734,0.1474609,0,-1,-1,-1,1,-1,-1,0,0,-1,0,-2,1,0,-1,1,-0.4375,-0.4375,-0.4375,-1.625,-1.625,-1.625,3.035003,3.106535,4.484784,6.740624,3.018936,1.851648,-0.1124033,-0.4400286,1.560553,0.2529774,-0.4305532,1.576845,0.07500402,0.3835692,1.615376,-0.06837073,-0.4184837,1.523468,0.2091646,-0.4087954,1.537114,0.07035889,-0.07353123,1.659169,0.07305318,-0.3840879,1.652465,-0.1031396,0.1152359,1.651509,-0.006233014,-0.3756979,1.617118,-0.1367066,-0.1368494,1.667163,0.2739989,-0.1566899,1.673548,NA,NA,NotTracked,NotTracked,
0.9326172,-0.3505859,0.1225586,0.9233398,0.2807617,0.1538086,-1,1,0,0,-2,-1,-1,0,-2,-3,0,-1,1,-1,-2,0,-0.3125,-0.3125,-0.3125,-2.375,-2.375,-2.375,3.035103,3.106407,4.483133,6.736328,3.019651,1.853096,-0.1125685,-0.4397515,1.560282,0.2470786,-0.4551388,1.569393,0.07511946,0.3835672,1.615381,-0.07023776,-0.4099379,1.524559,0.2055707,-0.4262428,1.533927,0.07039884,-0.07352149,1.659144,0.07315327,-0.3840851,1.652484,-0.1030768,0.1151324,1.651443,-0.006113678,-0.3756893,1.617109,-0.1366759,-0.1368241,1.66704,0.2742908,-0.155634,1.673485,NA,NA,NotTracked,NotTracked,
0.9228516,-0.3549805,0.1196289,0.9243164,0.2900391,0.1489258,0,-1,1,1,0,0,0,2,0,-2,-9,-3,-2,-4,-2,3,0.4375,0.4375,0.4375,-3.0625,-3.0625,-3.0625,3.034752,3.106503,4.483172,6.730999,3.021344,1.850754,-0.1127968,-0.4399818,1.559716,0.2465228,-0.4548039,1.568933,0.07527993,0.3836065,1.615353,-0.06849484,-0.4216038,1.521676,0.2054314,-0.4251258,1.533972,0.07054452,-0.07345577,1.658984,0.07331046,-0.384002,1.652381,-0.1029951,0.115098,1.651285,-0.005982533,-0.3756132,1.616982,-0.1366293,-0.136684,1.666908,0.2742738,-0.1558062,1.673501,NA,NA,NotTracked,NotTracked,
0.9223633,-0.3520508,0.1245117,1.016113,0.2675781,0.02978516,-1,-2,-1,2,-1,-3,-2,0,15,4,1,-1,0,0,1,-10,-2.375,-2.375,-2.375,-32.9375,-32.9375,-32.9375,3.034574,3.106771,4.481866,6.70464,3.03029,1.852724,-0.1130046,-0.4394703,1.558898,0.2466398,-0.4542505,1.567804,0.07555137,0.3837861,1.6152,-0.0691157,-0.4184528,1.522722,0.2041444,-0.4378826,1.531978,0.07062446,-0.07335569,1.658843,0.0733716,-0.3839156,1.652289,-0.1027108,0.1153817,1.651063,-0.005922038,-0.3755145,1.616852,-0.1366468,-0.1364419,1.666668,0.2743341,-0.1558201,1.673476,NA,NA,NotTracked,NotTracked,
0.9770508,-0.3637695,0.1137695,1.162598,0.2587891,0.1157227,0,-1,-1,-3,-6,3,1,3,18,17,53,0,76,8,1,-8,22.5,22.5,22.5,-50.75,-50.75,-50.75,3.027242,3.116899,4.50338,6.545084,3.07437,1.915037,-0.1114463,-0.441487,1.552098,0.2414019,-0.4473943,1.555907,0.07565425,0.383824,1.615156,-0.06867976,-0.4175825,1.52131,0.2034001,-0.4141506,1.530906,0.07070776,-0.07329787,1.658545,0.07337009,-0.3839186,1.652033,-0.1025641,0.115358,1.6508,-0.00597042,-0.3754904,1.616539,-0.1366358,-0.1364434,1.666514,0.275077,-0.1565018,1.674647,NA,NA,NotTracked,NotTracked,
1.129883,-0.487793,0.08398438,1.044922,0.4956055,0.4711914,-2,2,14,11,-3,-2,9,-2,-65,-22,-38,-3,-23,-10,-8,-8,110.25,110.25,110.25,-71.75,-71.75,-71.75,3.172611,3.208853,4.522086,6.289856,3.310555,2.043418,-0.1053982,-0.4346412,1.535307,0.2299842,-0.4208431,1.539478,0.07579316,0.3839764,1.615507,-0.1184202,-0.4142361,1.4715,0.2364696,-0.410926,1.467719,0.07061079,-0.07323052,1.658344,0.07299714,-0.3838771,1.651772,-0.1020335,0.1152499,1.65046,-0.006503468,-0.3753328,1.616182,-0.1358543,-0.1360099,1.668585,0.2775028,-0.1542582,1.682816,NA,NA,NotTracked,NotTracked,
1.130371,-0.4707031,0.3657227,0.7578125,0.4467773,0.6264648,-5,-3,-9,-5,-3,-6,-11,-14,7,-2,-14,0,0,-1,0,-3,116.6875,116.6875,116.6875,-109.75,-109.75,-109.75,3.441298,3.364971,4.441969,6.078004,3.569651,2.115077,-0.1030512,-0.3812467,1.527079,0.2261975,-0.3580183,1.526982,0.07579973,0.3844281,1.615643,-0.1407644,-0.3593998,1.456676,0.2624473,-0.3405738,1.4539,0.07076886,-0.07273019,1.657865,0.07318303,-0.3833546,1.651452,-0.1008763,0.1164648,1.649634,-0.006432618,-0.3746921,1.615888,-0.1358476,-0.1299108,1.681267,0.2802406,-0.1459664,1.695566,NA,NA,NotTracked,NotTracked,
0.815918,-0.4516602,0.5737305,0.3886719,0.2475586,0.5654297,-11,-5,-5,11,7,5,3,-5,19,4,-4,6,-13,-3,-1,8,63.8125,63.8125,63.8125,-59.5625,-59.5625,-59.5625,3.712625,3.57192,4.291666,5.900571,3.835078,2.149663,-0.103122,-0.3241952,1.513816,0.2144348,-0.3058595,1.522436,0.07577533,0.3852108,1.615725,-0.1848534,-0.2758632,1.431123,0.1998258,-0.3760943,1.530855,0.07113976,-0.07132459,1.65702,0.07398295,-0.3815101,1.650575,-0.09901235,0.1194115,1.648651,-0.005789982,-0.3727557,1.615074,-0.1359832,-0.1186043,1.690598,0.2807566,-0.1262771,1.7054,NA,NA,Unknown,NotTracked,
0.4033203,-0.4116211,0.4414063,0.4082031,0.3886719,0.5473633,0,-5,-1,-17,-13,-3,-4,-9,2,-6,0,2,-7,2,-8,3,65,65,65,11.8125,11.8125,11.8125,3.906901,3.797211,4.183149,5.901537,4.070634,2.153204,-0.1119065,-0.2674443,1.523434,0.243942,-0.2344691,1.447802,0.07580483,0.385845,1.616025,-0.2021305,-0.2307221,1.442643,0.1761872,-0.2432001,1.436,0.07133811,-0.0703602,1.656604,0.07464428,-0.3801417,1.650115,-0.09835503,0.1211741,1.648784,-0.005062204,-0.3712947,1.614574,-0.1379217,-0.1004932,1.698042,0.2800467,-0.1205678,1.704644,NA,NA,Unknown,Lasso,
0.3632813,-0.2539063,0.4824219,0.4594727,0.3579102,0.7285156,-4,-2,10,47,15,12,10,1,1,0,-7,6,15,8,-4,3,-5.5,-5.5,-5.5,19.8125,19.8125,19.8125,4.040628,4.001637,4.106231,5.910898,4.128996,2.183604,-0.1471776,-0.2176138,1.442662,0.2482267,-0.2147668,1.435741,0.07575476,0.3867002,1.616301,-0.2072561,-0.2122903,1.42146,0.1753372,-0.2204711,1.4225,0.07139596,-0.06946348,1.656404,0.07485292,-0.3790872,1.649928,-0.09804513,0.1232964,1.649257,-0.004811335,-0.3702181,1.614426,-0.1384596,-0.08673974,1.704885,0.2799959,-0.1167947,1.702314,NA,NA,Unknown,Unknown,
0.5795898,-0.4619141,0.6821289,0.5200195,0.4511719,0.7783203,-4,2,7,7,-3,-19,-41,-25,-1,-10,-46,-8,5,-4,4,22,-10.5,-10.5,-10.5,18.4375,18.4375,18.4375,4.021142,4.062763,4.079422,5.9198,4.126215,2.206915,-0.1436168,-0.2190762,1.465224,0.2372053,-0.222606,1.461578,0.07558449,0.3869108,1.616837,-0.2024636,-0.2089328,1.419756,0.1752057,-0.2487692,1.503333,0.07144519,-0.06935722,1.656306,0.07496969,-0.3789005,1.649679,-0.09795263,0.1236283,1.649571,-0.004709383,-0.3700027,1.614155,-0.1385784,-0.08731893,1.704846,0.2801203,-0.1156888,1.701069,NA,NA,Unknown,Unknown,
0.7431641,-0.5268555,0.715332,0.7763672,0.4790039,0.6928711,-4,1,1,-3,-1,-1,10,-22,-21,5,22,18,12,5,1,-18,-14.4375,-14.4375,-14.4375,4.9375,4.9375,4.9375,4.006677,4.058268,4.048748,5.918205,4.080145,2.224798,-0.1334123,-0.2215384,1.474589,0.2219588,-0.2400843,1.487998,0.07536234,0.3877064,1.617569,-0.1966255,-0.2042738,1.426467,0.1806695,-0.2178673,1.388667,0.07151745,-0.06891984,1.656207,0.07505856,-0.3782935,1.649441,-0.09790399,0.1243846,1.64975,-0.004612879,-0.3694913,1.613996,-0.1387071,-0.08740769,1.704662,0.2804868,-0.114268,1.700744,NA,NA,Unknown,Unknown,
0.9863281,-0.4765625,0.6069336,0.7563477,0.5405273,0.6264648,0,-12,-3,-5,-10,2,42,1,59,21,9,2,8,19,15,10,-17.25,-17.25,-17.25,18.0625,18.0625,18.0625,3.994132,3.998742,4.037136,5.955532,4.010279,2.221345,-0.1383336,-0.2090553,1.46844,0.2486539,-0.212973,1.451516,0.07508302,0.3886795,1.61789,-0.1954552,-0.2014729,1.426756,0.1755589,-0.2244889,1.443333,0.07151894,-0.06782117,1.655894,0.07507492,-0.377122,1.649123,-0.09779027,0.1263318,1.649588,-0.004559192,-0.3683491,1.613791,-0.1390336,-0.08717444,1.7053,0.2806023,-0.1112352,1.702202,NA,NA,Unknown,Unknown,
0.746582,-0.4902344,0.5698242,0.4916992,0.4760742,0.8652344,-13,-65,2,-11,-7,0,8,-6,-19,-3,3,-2,33,-1,9,-1,-7.875,-7.875,-7.875,26.3125,26.3125,26.3125,3.968705,3.924277,4.035705,5.966051,3.956613,2.245709,-0.1193244,-0.2201667,1.494437,0.2300086,-0.2287753,1.512019,0.07475254,0.3894646,1.617837,-0.1889101,-0.2008908,1.447947,0.1746831,-0.2650134,1.531958,0.0713855,-0.06653691,1.654672,0.0750183,-0.3761166,1.648509,-0.0978039,0.1277072,1.649141,-0.004578384,-0.3674558,1.613453,-0.142074,-0.08452757,1.71104,0.2840331,-0.1057501,1.70891,NA,NA,Unknown,Unknown,
0.3925781,-0.4936523,0.7602539,-0.3032227,0.4882813,0.5576172,-4,-1,18,15,-5,-4,1,-19,2,-1,1,2,0,-5,-6,-2,-14.25,-14.25,-14.25,3.375,3.375,3.375,3.970788,3.888987,4.015646,5.903014,4.000224,2.458917,-0.09753655,-0.2458664,1.527322,0.2040065,-0.2301297,1.541371,0.07454388,0.3903858,1.618134,-0.1777293,-0.2022097,1.449,0.1997883,-0.2935222,1.549109,0.07151152,-0.06541374,1.653047,0.0750615,-0.37523,1.647842,-0.09771671,0.1293937,1.648254,-0.004538265,-0.3666332,1.613,-0.1437596,-0.08594985,1.713808,0.2887789,-0.101099,1.714527,NA,NA,Unknown,Unknown,
-0.4375,-0.543457,0.6708984,-0.3769531,0.5175781,0.8652344,-5,-2,4,-1,-6,-1,12,-2,-3,-11,-12,-7,-6,-4,-9,-3,-3.75,-3.75,-3.75,36.5,36.5,36.5,4.040748,3.892164,3.823916,5.810471,4.15743,2.663179,-0.08305988,-0.2462564,1.521162,0.1646709,-0.2205198,1.536937,0.07431894,0.3915244,1.618586,-0.118675,-0.2386819,1.533625,0.1488175,-0.2822013,1.528853,0.07156196,-0.0645788,1.651915,0.07506809,-0.3745648,1.647376,-0.09810334,0.1300861,1.647448,-0.004521371,-0.3660387,1.612688,-0.1470759,-0.08480725,1.71357,0.2900725,-0.0977845,1.712026,NA,NA,Unknown,Unknown,
0.2758789,-0.6455078,0.9633789,0.9145508,0.6420898,0.9814453,-1,1,11,0,3,2,-18,0,21,-4,0,-1,9,5,4,-51,-86.375,-86.375,-86.375,59.75,59.75,59.75,4.107002,4.087938,3.547638,5.88174,4.340487,2.728548,-0.04709135,-0.2392435,1.491576,0.1249764,-0.1982524,1.500862,0.07435875,0.3926087,1.619522,-0.006418217,-0.2175611,1.421368,0.07396197,-0.1984784,1.505715,0.07145899,-0.06442254,1.651915,0.07507705,-0.3746191,1.647522,-0.09840868,0.1298069,1.646816,-0.004474194,-0.3660591,1.612831,-0.1514978,-0.08865989,1.687401,0.2872349,-0.1000276,1.686161,NA,NA,NotTracked,Unknown,
1.430176,-0.6176758,0.6728516,1.10498,0.5249023,0.4033203,1,5,0,6,0,7,21,30,38,-6,-7,-9,3,-3,0,-68,-28.75,-28.75,-28.75,-33.125,-33.125,-33.125,3.973935,4.234481,3.586561,5.989823,4.428248,2.470738,-0.05583748,-0.1963417,1.386875,0.1629037,-0.1734169,1.374291,0.07442297,0.3938241,1.621421,0.0004659615,-0.1884312,1.353143,0.114129,-0.1807271,1.351429,0.07106855,-0.06399533,1.653475,0.07496834,-0.3746344,1.648755,-0.09855513,0.1295837,1.646234,-0.004369837,-0.3660491,1.613757,-0.1024172,-0.1343836,1.628197,0.2745878,-0.1017799,1.655078,NA,NA,Open,NotTracked,
1.263184,-0.3793945,0.190918,1.006836,0.4501953,0.3388672,0,-2,19,4,0,1,6,6,-58,-3,9,8,-6,0,3,-31,57.3125,57.3125,57.3125,-20.875,-20.875,-20.875,3.946525,4.300428,3.769567,6.053243,4.344779,2.2427,-0.09181284,-0.1836884,1.371444,0.2166176,-0.1719761,1.34912,0.07435561,0.3941621,1.622753,-0.1517486,-0.1758951,1.328619,0.165037,-0.1869065,1.348625,0.07093902,-0.06379716,1.655236,0.07494424,-0.3747759,1.649881,-0.09408655,0.1281506,1.648548,-0.004454966,-0.3661613,1.614877,-0.1374029,-0.09385797,1.641907,0.2896886,-0.1225584,1.610593,NA,NA,Open,Open,
0.9228516,-0.3652344,0.559082,0.8793945,0.2631836,0.7871094,-4,4,19,34,5,-1,-46,-9,30,1,6,-7,-13,-9,-7,-11,16.1875,16.1875,16.1875,21.3125,21.3125,21.3125,3.882661,4.217787,4.019588,6.125237,4.211722,2.076482,-0.1416891,-0.1884509,1.393746,0.2680004,-0.1937623,1.356505,0.07431205,0.3942242,1.623083,-0.2025723,-0.1769972,1.364122,0.2196309,-0.2083623,1.360333,0.0705517,-0.06379431,1.655911,0.0747012,-0.3749177,1.650426,-0.09622676,0.127907,1.647863,-0.004758249,-0.3663771,1.615552,-0.1580911,-0.0945615,1.661669,0.305832,-0.1170109,1.662421,NA,NA,Lasso,Unknown,
0.855957,-0.2495117,0.8051758,0.6860352,0.4506836,1.137207,4,2,-12,-19,3,5,22,5,-6,-4,-14,12,4,15,6,-1,21.875,21.875,21.875,14.1875,14.1875,14.1875,3.844673,4.026668,4.202686,6.204095,3.909178,1.996349,-0.1805895,-0.2192671,1.440794,0.3085804,-0.2245172,1.44391,0.07414752,0.3941745,1.623078,-0.2462054,-0.2076908,1.42497,0.3470817,-0.1982774,1.37775,0.07044287,-0.06398033,1.655679,0.07444543,-0.3752087,1.650405,-0.09689296,0.1279237,1.647585,-0.005059198,-0.3666746,1.615565,-0.1565214,-0.09226263,1.688915,0.2987795,-0.09912397,1.691304,NA,NA,Unknown,Lasso,
0.5654297,-0.4956055,1.12793,0.1855469,0.6791992,1.016113,-1,-2,5,3,5,10,40,6,13,7,22,1,22,2,-3,-1,26.875,26.875,26.875,-4.4375,-4.4375,-4.4375,3.782435,3.77888,4.358567,6.128837,3.717775,2.104327,-0.1854961,-0.2451356,1.543286,0.2906515,-0.2506818,1.511512,0.07404938,0.3945819,1.622017,-0.2573047,-0.2377255,1.49139,0.3376204,-0.234368,1.444875,0.07009,-0.06368843,1.653747,0.07376097,-0.3749525,1.649483,-0.09732951,0.1285261,1.646906,-0.005756264,-0.3663554,1.614928,-0.156959,-0.092985,1.718122,0.3051321,-0.09719822,1.719644,NA,NA,NotTracked,Unknown,
0.03955078,-0.5922852,0.9794922,-0.2436523,0.6767578,0.7456055,4,15,-1,2,0,-3,-2,4,34,5,-1,-6,0,-2,3,-8,16,16,16,13.3125,13.3125,13.3125,3.844569,3.60014,4.349542,5.942558,3.736654,2.371495,-0.1593838,-0.2586855,1.576834,0.235976,-0.2708255,1.533762,0.07407009,0.3957964,1.620884,-0.1035404,-0.3271489,1.568057,0.2913305,-0.229671,1.427429,0.06989836,-0.06215932,1.650582,0.07302862,-0.3735099,1.647841,-0.09747475,0.1308308,1.64458,-0.006601091,-0.3647558,1.613704,-0.1517835,-0.09067207,1.729764,0.3022874,-0.0964745,1.725253,NA,NA,NotTracked,Unknown,
-0.1450195,-0.6518555,0.7768555,-0.03808594,0.7412109,0.7011719,-2,-1,-4,1,0,1,6,-2,15,8,8,2,3,4,6,11,-26.125,-26.125,-26.125,35.4375,35.4375,35.4375,4.004734,3.68233,4.130802,5.825464,3.937603,2.629726,-0.1206812,-0.2722341,1.54335,0.1570328,-0.2503794,1.528418,0.07419179,0.3962239,1.620239,-0.08596357,-0.3298665,1.545206,0.1411013,-0.1746922,1.488684,0.07016246,-0.06166093,1.649264,0.07328491,-0.3730637,1.647037,-0.09748983,0.1317444,1.643041,-0.006344728,-0.3643371,1.613032,-0.1491065,-0.0905446,1.728966,0.2981924,-0.0957887,1.722071,NA,NA,NotTracked,Unknown,
0.237793,-0.7460938,0.8540039,0.7382813,0.5859375,1.120117,-7,4,-2,-7,-6,-8,-44,-7,13,2,-3,1,-4,13,9,7,-78.8125,-78.8125,-78.8125,67.3125,67.3125,67.3125,4.073486,3.894178,3.858573,5.890026,4.268158,2.753271,-0.07639384,-0.2727541,1.513077,0.1309303,-0.2132924,1.497712,0.07429285,0.3961481,1.620476,-0.04408837,-0.2425193,1.426706,0.1920128,-0.1911798,1.390072,0.07024769,-0.06210293,1.649411,0.07354684,-0.3735841,1.646955,-0.09757411,0.1307289,1.642847,-0.005981327,-0.3649319,1.612823,-0.144943,-0.09392463,1.69989,0.2899311,-0.1034082,1.686113,NA,NA,Unknown,Unknown,
1.163086,-0.5708008,0.9296875,1.181152,0.4404297,0.6064453,-1,5,-5,-4,-1,9,27,12,-18,3,6,8,9,-2,1,1,-93.6875,-93.6875,-93.6875,-3.1875,-3.1875,-3.1875,3.960258,4.200254,3.670593,5.981409,4.374264,2.590063,-0.07869944,-0.2109075,1.385398,0.1836164,-0.1903373,1.379376,0.07462694,0.3953229,1.622166,-0.01237025,-0.2082795,1.373417,0.2102353,-0.1750354,1.323591,0.07014981,-0.06359705,1.652631,0.07345558,-0.3748015,1.648087,-0.09799391,0.1282093,1.643595,-0.005872827,-0.3661889,1.614112,-0.1427523,-0.09505926,1.668416,0.2788688,-0.1061655,1.656214,NA,NA,Open,Unknown,
1.393555,-0.3457031,0.06787109,1.180176,0.4658203,0.2963867,-1,1,22,13,-2,-7,-12,-10,0,2,4,0,-5,-3,0,-20,56.3125,56.3125,56.3125,-45,-45,-45,3.901004,4.331006,3.843931,6.034454,4.389487,2.298378,-0.1047581,-0.1845133,1.369167,0.2270531,-0.1774359,1.345053,0.07494152,0.3950841,1.623556,-0.1651608,-0.1780458,1.3281,0.2714606,-0.1594606,1.3089,0.06974878,-0.06393331,1.65529,0.07305437,-0.3751075,1.648956,-0.09821089,0.1274383,1.644283,-0.00625779,-0.3664637,1.615098,-0.1394265,-0.09333755,1.655072,0.2740767,-0.1037403,1.64803,NA,NA,Open,Unknown,
0.9853516,-0.2988281,0.2363281,0.7919922,0.3022461,0.7929688,8,9,-6,-4,-9,-8,-20,6,-10,4,-18,-5,6,31,12,23,23.5,23.5,23.5,15.3125,15.3125,15.3125,3.886451,4.315479,4.046305,6.108381,4.246551,2.015298,-0.1207623,-0.1760101,1.361773,0.2788348,-0.1911943,1.395781,0.07499736,0.3950977,1.623829,-0.1157247,-0.1490512,1.31325,0.3197008,-0.1729663,1.366111,0.06967086,-0.06384963,1.656016,0.07282145,-0.3751056,1.649233,-0.09839444,0.1275278,1.64519,-0.006521984,-0.36644,1.615496,-0.1626571,-0.09228835,1.666565,0.2944208,-0.1161968,1.664551,NA,NA,Unknown,Unknown,
0.7939453,-0.3535156,0.7124023,0.684082,0.3701172,1.119629,3,3,5,17,13,0,13,1,8,3,5,-9,-10,20,-13,22,-0.25,-0.25,-0.25,51.3125,51.3125,51.3125,3.80811,4.130409,4.227536,6.205534,4.012845,1.943397,-0.1947913,-0.2224982,1.448384,0.3203478,-0.2268335,1.437885,0.07503594,0.3950464,1.623772,-0.2569917,-0.2106,1.426412,0.3623833,-0.2037692,1.379611,0.06961612,-0.06394492,1.655602,0.07234009,-0.375203,1.648718,-0.0983921,0.1278467,1.645958,-0.007044835,-0.3664483,1.61499,-0.1570989,-0.09448754,1.687855,0.2965128,-0.1046559,1.687672,NA,NA,Unknown,Lasso,
0.6567383,-0.5112305,1.258789,0.1640625,0.6010742,1.048828,-1,-4,-15,-15,-14,-4,19,-7,28,9,8,7,-3,6,0,-6,-7.875,-7.875,-7.875,5.5625,5.5625,5.5625,3.721268,3.845743,4.375081,6.160591,3.802821,2.065392,-0.2002793,-0.2581922,1.516325,0.2946662,-0.2561349,1.499226,0.07515281,0.3948728,1.623478,-0.2641284,-0.2518567,1.4884,0.3432906,-0.2427632,1.441551,0.06971645,-0.06408024,1.653941,0.07192043,-0.3751011,1.647371,-0.09837706,0.1279966,1.646162,-0.007626162,-0.3662099,1.613622,-0.1593262,-0.09522309,1.713204,0.3019156,-0.1017229,1.713763,NA,NA,Unknown,Lasso,
-0.137207,-0.6518555,1.023438,-0.2885742,0.7021484,0.671875,3,-5,-7,-2,0,-5,-36,-6,-54,-1,9,8,2,-8,6,20,-7.25,-7.25,-7.25,32,32,32,3.847456,3.696409,4.247836,5.892728,3.81791,2.500607,-0.1440064,-0.280128,1.544952,0.218848,-0.2834503,1.529602,0.07529735,0.3945951,1.623052,-0.2257874,-0.2540033,1.491,0.2804262,-0.2418666,1.4135,0.06980629,-0.0641754,1.651731,0.07161859,-0.3749684,1.645955,-0.09819242,0.1284438,1.645949,-0.007956149,-0.3659878,1.612481,-0.1572464,-0.09541424,1.723707,0.3001235,-0.1021892,1.720203,NA,NA,NotTracked,NotTracked,
-0.1542969,-0.6762695,0.8022461,0.09863281,0.7822266,0.8222656,-2,-6,-5,-8,0,-6,-22,9,19,7,-7,-7,1,-1,0,-43,-30.5,-30.5,-30.5,51.75,51.75,51.75,3.961105,3.771001,4.056528,5.796423,4.037403,2.781617,-0.08819219,-0.2832585,1.530401,0.1460408,-0.2628493,1.525842,0.07533683,0.3948454,1.622769,-0.1665674,-0.2414901,1.433,0.1673143,-0.2058535,1.4345,0.06991073,-0.06389624,1.65073,0.0718265,-0.3747143,1.645259,-0.09818184,0.1289821,1.645522,-0.007699141,-0.3657559,1.611844,-0.1520479,-0.09417517,1.717626,0.2951616,-0.1032507,1.711625,NA,NA,Unknown,Unknown,
0.3276367,-0.7460938,0.8291016,1.524902,0.3696289,0.8110352,5,7,-7,4,-2,-4,-49,-6,18,1,7,-7,-14,7,-1,-19,-87.625,-87.625,-87.625,31.0625,31.0625,31.0625,4.032805,3.995165,3.749563,5.897192,4.255711,2.837598,-0.06221792,-0.2293317,1.449057,0.1139031,-0.2240651,1.47168,0.07524585,0.3951382,1.623001,-0.1234025,-0.2151311,1.426889,0.1729048,-0.1969914,1.39042,0.0699482,-0.06372788,1.651187,0.07231079,-0.3746192,1.645768,-0.09823702,0.1288999,1.645304,-0.007106086,-0.3656616,1.612257,-0.1450394,-0.09129489,1.688574,0.280593,-0.108214,1.666777,NA,NA,NotTracked,NotTracked,
1.409668,-0.4291992,0.6049805,1.238281,0.3930664,0.309082,4,2,-26,-42,-8,-13,-73,-11,0,-4,2,-11,-10,-7,-4,-22,-20.4375,-20.4375,-20.4375,-100.125,-100.125,-100.125,3.953403,4.279451,3.631145,5.928699,4.34178,2.548223,-0.07847556,-0.1910644,1.382374,0.1666529,-0.1939301,1.379396,0.07490253,0.3949973,1.624285,-0.1396471,-0.1915843,1.341059,0.2081883,-0.181347,1.326269,0.06969397,-0.06384424,1.653804,0.07232698,-0.3750114,1.647321,-0.09826838,0.1283277,1.645182,-0.00689966,-0.3659886,1.613538,-0.1365595,-0.09176663,1.667483,0.2734222,-0.1091174,1.653083,NA,NA,Open,NotTracked,
0.9438477,-0.3579102,0.1552734,0.5849609,0.4301758,0.6425781,2,3,9,-2,-5,2,20,-4,25,6,-1,1,-1,-3,-6,-12,95.4375,95.4375,95.4375,-14.875,-14.875,-14.875,4.0301,4.438168,3.921514,5.966022,4.340675,2.276691,-0.125871,-0.1779576,1.380069,0.2291418,-0.1873606,1.366782,0.07416648,0.3943003,1.626283,-0.1930692,-0.1789083,1.359959,0.2766476,-0.1740808,1.333226,0.06958592,-0.06461239,1.655482,0.0722695,-0.3759654,1.648499,-0.09842495,0.127341,1.645563,-0.006915193,-0.3669205,1.614456,-0.1355827,-0.0927185,1.665571,0.2873873,-0.1265634,1.628256,NA,NA,Unknown,Open,
0.5776367,-0.4960938,0.534668,0.3994141,0.3989258,0.9819336,-6,0,-5,-2,-1,-1,-2,2,-33,-21,-1,4,-4,-5,12,-6,25.9375,25.9375,25.9375,32.625,32.625,32.625,4.003571,4.403553,4.178856,6.066328,4.231488,2.091351,-0.1751957,-0.1960773,1.399217,0.2742099,-0.202218,1.41184,0.07384589,0.3944252,1.626987,-0.2459665,-0.1937218,1.395368,0.3291824,-0.1870905,1.3668,0.06967213,-0.06472206,1.65597,0.0724557,-0.3761103,1.648761,-0.09845239,0.1271513,1.646004,-0.006747518,-0.3671071,1.614599,-0.1335943,-0.09279857,1.670685,0.2733949,-0.1137668,1.664281,NA,NA,Unknown,Unknown,
0.5151367,-0.3388672,0.9516602,0.3017578,0.4301758,0.9375,1,1,-2,3,-4,-3,13,9,-20,10,8,5,13,8,13,-3,-10.4375,-10.4375,-10.4375,-10.8125,-10.8125,-10.8125,3.931811,4.203675,4.38123,6.06334,4.118328,2.056296,-0.207365,-0.223261,1.423171,0.2962791,-0.2219196,1.427643,0.07366585,0.3945963,1.62734,-0.2714677,-0.2161603,1.4185,0.3468971,-0.2074392,1.376628,0.06964052,-0.06461743,1.65603,0.07236701,-0.3759367,1.648628,-0.09850793,0.1271767,1.646209,-0.006878349,-0.366918,1.614398,-0.1362761,-0.09671368,1.679107,0.2792992,-0.1098273,1.68152,NA,NA,Unknown,Lasso,
0.4155273,-0.4575195,0.9648438,0.324707,0.5498047,0.762207,4,1,-8,0,-3,-13,-51,1,-10,8,7,13,-1,-7,-5,-14,6.0625,6.0625,6.0625,-10.25,-10.25,-10.25,3.941393,4.131594,4.410041,6.032222,4.139494,2.057854,-0.2110949,-0.2296368,1.447447,0.2953661,-0.2235419,1.434364,0.07358377,0.3946478,1.627402,-0.2734599,-0.2261415,1.430875,0.3447898,-0.2099544,1.382297,0.06958752,-0.06439783,1.656032,0.07231319,-0.3754741,1.648411,-0.09845805,0.1272443,1.646271,-0.007010401,-0.3664421,1.614075,-0.1372988,-0.09746239,1.686125,0.2805307,-0.1093776,1.687432,NA,NA,Lasso,Lasso,
0.4570313,-0.5834961,0.6796875,0.421875,0.5751953,0.6884766,-1,-8,-12,-8,-9,-1,27,-15,22,-4,-10,-7,-16,-18,-5,5,24.25,24.25,24.25,-28.5,-28.5,-28.5,4.002398,4.148544,4.405287,6.001751,4.179768,2.045077,-0.2023519,-0.231387,1.436106,0.2900047,-0.2250787,1.432791,0.0734512,0.3944287,1.627612,-0.2643081,-0.2258288,1.429041,0.340299,-0.210583,1.383208,0.06947019,-0.06445029,1.656129,0.07230367,-0.3754714,1.648385,-0.09839042,0.1271288,1.646522,-0.007056803,-0.366448,1.613942,-0.1369253,-0.09864192,1.68799,0.2786481,-0.1109911,1.690391,NA,NA,Unknown,Lasso,
0.5600586,-0.5986328,0.5913086,0.5732422,0.5874023,0.6821289,-3,2,15,-7,3,-2,0,-9,23,7,3,14,26,3,4,9,11,11,11,4.0625,4.0625,4.0625,4.017004,4.157228,4.392087,6.009492,4.191219,2.048381,-0.1955418,-0.232346,1.423288,0.2881637,-0.2258048,1.427386,0.07334921,0.3937198,1.627941,-0.2581162,-0.2291725,1.421118,0.341154,-0.2113734,1.37931,0.06940302,-0.06488886,1.656524,0.07229953,-0.3756624,1.64838,-0.09810803,0.1265686,1.647164,-0.007059532,-0.3666791,1.613873,-0.1186961,-0.1689905,1.665437,0.2767903,-0.113763,1.690855,NA,NA,Unknown,Lasso,
0.6303711,-0.5512695,0.6206055,0.5195313,0.4648438,0.7202148,2,2,3,6,3,-3,-17,-3,37,6,0,-2,19,-5,4,12,-10.1875,-10.1875,-10.1875,5.3125,5.3125,5.3125,4.001524,4.157712,4.360387,6.006936,4.196063,2.057699,-0.1894909,-0.2291228,1.424344,0.2819387,-0.2208265,1.435848,0.07328279,0.3933112,1.628206,-0.2564193,-0.2258265,1.419289,0.3290917,-0.2080468,1.384053,0.0693555,-0.0651118,1.656929,0.07230838,-0.3757391,1.648407,-0.09811763,0.1261511,1.64782,-0.00706767,-0.3667772,1.613863,-0.1335072,-0.1051478,1.68436,0.2761893,-0.1145395,1.690585,NA,NA,Unknown,Lasso,
0.5825195,-0.4853516,0.6464844,0.4785156,0.46875,0.7407227,3,-3,-10,3,3,-8,22,14,-69,-18,-1,-2,-4,-12,-9,2,1.375,1.375,1.375,1.25,1.25,1.25,3.998062,4.155021,4.351892,6.007106,4.204492,2.049376,-0.189102,-0.2258586,1.424234,0.2880564,-0.2180234,1.423809,0.07325304,0.3933021,1.62825,-0.2576258,-0.22297,1.421837,0.3388036,-0.2072254,1.380256,0.06932663,-0.0648889,1.657442,0.07231782,-0.3755527,1.64864,-0.09809435,0.126416,1.648398,-0.007093359,-0.3666633,1.61395,-0.1331245,-0.1041138,1.684757,0.2757584,-0.1145485,1.690619,NA,NA,Unknown,Lasso,
0.5708008,-0.503418,0.6689453,0.4555664,0.527832,0.7080078,-6,-1,5,-4,1,-12,-54,-19,-25,-5,-4,6,12,-3,0,0,4.75,4.75,4.75,-1.375,-1.375,-1.375,3.997002,4.148587,4.360469,6.011576,4.20604,2.045234,-0.2034835,-0.227113,1.414718,0.2828926,-0.2194794,1.436717,0.07330996,0.39322,1.628432,-0.1835855,-0.2004816,1.337714,0.3331022,-0.2064466,1.386076,0.06918435,-0.0649365,1.657936,0.07218955,-0.3755914,1.649013,-0.09817602,0.1263494,1.648915,-0.007175197,-0.3667224,1.614192,-0.1203519,-0.167615,1.662304,0.2754142,-0.1145685,1.690934,NA,NA,Unknown,Lasso,
0.5507813,-0.5048828,0.6845703,0.4755859,0.512207,0.7431641,0,1,-1,-5,5,6,20,-2,7,-9,1,-1,23,6,7,-4,-2.5625,-2.5625,-2.5625,6.5,6.5,6.5,3.996109,4.140634,4.362028,6.009864,4.20205,2.050943,-0.1905853,-0.2295017,1.427045,0.2862007,-0.2220594,1.427524,0.07324743,0.3927482,1.629094,-0.2546381,-0.2261771,1.419256,0.3359522,-0.2076526,1.381271,0.0688668,-0.06523494,1.658577,0.07215611,-0.3758045,1.649359,-0.09829469,0.1258008,1.649822,-0.007212338,-0.3669362,1.614404,-0.1326382,-0.101382,1.687265,0.2750214,-0.1149796,1.691155,NA,NA,Unknown,Lasso,
