ALX,ALY,ALZ,ARX,ARY,ARZ,EMG0L,EMG1L,EMG2L,EMG3L,EMG4L,EMG5L,EMG6L,EMG7L,EMG0R,EMG1R,EMG2R,EMG3R,EMG4R,EMG5R,EMG6R,EMG7R,GLX,GLY,GLZ,GRX,GRY,GRZ,ORL,OPL,OYL,ORR,OPR,OYR,LHNX,LHNY,LHNZ,RHNX,RHNY,RHNZ,HX,HY,HZ,LTX,LTY,LTZ,RTX,RTY,RTZ,SpineMidX,SpineMidY,SpineMidZ,SpineBaseX,SpineBaseY,SpineBaseZ,ShoulderLeftX,ShoulderLeftY,ShoulderLeftZ,ShoulderRightX,ShoulderRightY,ShoulderRightZ,ElbowLeftX,ElbowLeftY,ElbowLeftZ,ElbowRightX,ElbowRightY,ElbowRightZ,Myo_Pose_left,Myo_Pose_Right,Kinect_pose_left,Kinect_pose_right
-0.9560547,0.2539063,0.1640625,0.925293,0.3100586,0.03369141,0,0,-2,0,-3,1,7,-2,0,1,1,1,-1,-2,8,-3,-0.625,-0.625,-0.625,-0.75,-0.75,-0.75,6.462537,7.017535,6.136435,7.471095,3.025407,0.8680283,-0.1857596,-0.4739109,1.297662,0.2227241,-0.4700033,1.301903,0.02469441,0.2880834,1.356087,-0.2328198,-0.4678601,1.296554,0.2648969,-0.4591128,1.292896,0.01015699,-0.1507309,1.390692,0.01282624,-0.4567381,1.371968,-0.1524383,0.01941061,1.371268,-0.06558336,-0.4461908,1.338569,-0.1952844,-0.2329962,1.360222,0.2305398,-0.2266619,1.371197,NA,NA,NotTracked,NotTracked,
-0.9521484,0.2407227,0.1806641,0.9160156,0.3295898,0.03955078,0,1,-1,-1,-1,0,-2,-1,-1,-1,-1,-1,-1,-1,1,-3,-0.8125,-0.8125,-0.8125,2.6875,2.6875,2.6875,6.464942,7.015603,6.14114,7.468209,3.026874,0.8774872,-0.1851695,-0.4744566,1.298106,0.2228799,-0.4701781,1.30202,0.02527497,0.2882369,1.356643,-0.23219,-0.4772146,1.306429,0.2649645,-0.4577947,1.292652,0.01065543,-0.1506471,1.390945,0.0132209,-0.4566907,1.372334,-0.1527226,0.01946155,1.370294,-0.06520062,-0.4460958,1.338857,-0.1947715,-0.2326746,1.36046,0.2309377,-0.2268018,1.371346,NA,NA,NotTracked,NotTracked,
-0.9575195,0.2514648,0.1743164,0.9179688,0.3212891,0.02539063,-2,-2,-1,-1,-1,-1,-1,0,2,-1,-1,-1,-2,-1,-3,2,1.8125,1.8125,1.8125,0.1875,0.1875,0.1875,6.468585,7.016126,6.1427,7.463831,3.028941,0.8821329,-0.1850433,-0.4739749,1.29844,0.2233737,-0.4706819,1.301252,0.02602711,0.2881816,1.357233,-0.2275639,-0.4610384,1.289393,0.266255,-0.4648599,1.295358,0.01107434,-0.1505843,1.391244,0.01338708,-0.4566535,1.372597,-0.1527207,0.01953959,1.369989,-0.06503443,-0.446008,1.339073,-0.1944018,-0.2327485,1.360855,0.2314397,-0.2268474,1.371822,NA,NA,NotTracked,NotTracked,
-0.9589844,0.2426758,0.1669922,0.9282227,0.324707,0.04003906,1,0,0,-2,0,1,2,-3,2,1,0,0,0,-1,-2,-3,1.3125,1.3125,1.3125,4.1875,4.1875,4.1875,6.472699,7.017353,6.145171,7.464849,3.033636,0.8861673,-0.1848751,-0.4747799,1.299658,0.2236249,-0.4700693,1.301208,0.02674097,0.2880169,1.357877,-0.2286863,-0.463726,1.293618,0.2685027,-0.4610747,1.297013,0.01178835,-0.1505489,1.391574,0.01379964,-0.4565462,1.373018,-0.1519836,0.01967204,1.37096,-0.06462951,-0.445893,1.339444,-0.193967,-0.2327159,1.36127,0.2321751,-0.2266692,1.372257,NA,NA,NotTracked,NotTracked,
-0.9628906,0.2490234,0.1630859,0.921875,0.3212891,0.02587891,-1,0,-2,-2,-1,-1,0,2,0,0,-2,-1,-1,1,-1,4,2.0625,2.0625,2.0625,-0.5,-0.5,-0.5,6.473944,7.017752,6.141964,7.466319,3.038063,0.8848837,-0.1836689,-0.4736008,1.299181,0.2245699,-0.4696957,1.300245,0.02705267,0.2880666,1.358112,-0.2282209,-0.4653392,1.292235,0.2660904,-0.4576844,1.286544,0.01231309,-0.1503743,1.391967,0.01431245,-0.4563773,1.373534,-0.1519699,0.01955575,1.370399,-0.06410604,-0.4457327,1.34002,-0.1935029,-0.2326809,1.361715,0.2330494,-0.2261832,1.37265,NA,NA,NotTracked,NotTracked,
-0.9633789,0.246582,0.1669922,0.9106445,0.3208008,0.03125,1,-1,-1,0,-1,0,-1,-1,0,-2,-3,-1,-1,0,4,-1,-0.125,-0.125,-0.125,3.5625,3.5625,3.5625,6.471117,7.016246,6.13699,7.472099,3.040376,0.8815072,-0.1829326,-0.4739122,1.298585,0.2251355,-0.4691996,1.299208,0.02743682,0.2881114,1.358261,-0.2275863,-0.4703178,1.291574,0.2681465,-0.4611025,1.289068,0.01269524,-0.1502286,1.392166,0.01458913,-0.4562331,1.373837,-0.1520426,0.01972896,1.369971,-0.06380277,-0.4455826,1.340413,-0.1931937,-0.2325288,1.361958,0.2337296,-0.2259718,1.372756,NA,NA,NotTracked,NotTracked,
-0.9584961,0.2495117,0.1645508,0.9130859,0.3193359,0.04150391,-3,0,0,-3,1,-4,-2,-5,-3,-2,-1,-2,0,-2,2,1,-3,-3,-3,0.0625,0.0625,0.0625,6.468167,7.010694,6.138137,7.478307,3.042504,0.8750988,-0.1823366,-0.4738038,1.29768,0.2263197,-0.4691221,1.299625,0.02760215,0.2880978,1.358435,-0.2284775,-0.4600616,1.299149,0.2688614,-0.4585837,1.287081,0.01306859,-0.1501405,1.392444,0.01488147,-0.4561786,1.374199,-0.1509848,0.01985391,1.37156,-0.06350762,-0.4454859,1.340899,-0.1929025,-0.232302,1.362192,0.2346703,-0.2255326,1.372646,NA,NA,NotTracked,NotTracked,
-1.024414,0.2734375,0.08984375,1.063477,0.3432617,-0.152832,4,29,39,22,2,1,-2,2,-3,-7,12,11,7,2,0,3,1.6875,1.6875,1.6875,-35.375,-35.375,-35.375,6.475209,7.002625,6.146739,7.461981,3.05103,0.8726668,-0.1825018,-0.4714553,1.297774,0.2271114,-0.4687161,1.299557,0.02773561,0.2880508,1.35883,-0.2282228,-0.4619321,1.294845,0.2506554,-0.4798887,1.258616,0.01333422,-0.1501406,1.39282,0.01504138,-0.4562367,1.374474,-0.1506996,0.01996389,1.371624,-0.06332526,-0.4455291,1.341321,-0.1926226,-0.2320927,1.362522,0.2358352,-0.2247318,1.372791,NA,NA,NotTracked,NotTracked,
-1.17627,0.2128906,0.1108398,1.113281,0.3066406,0.1020508,-2,-8,-8,-4,2,0,-1,-1,5,29,29,10,3,3,5,5,0.5625,0.5625,0.5625,-18.75,-18.75,-18.75,6.419266,6.945904,6.09305,7.209797,3.11879,1.072101,-0.1745147,-0.4607071,1.282068,0.2215918,-0.458266,1.287216,0.02781249,0.2880963,1.359084,-0.2109741,-0.4594102,1.224286,0.2681094,-0.4462752,1.288667,0.01354251,-0.1501281,1.392968,0.01520186,-0.4562231,1.374702,-0.1504057,0.02008524,1.372177,-0.06314679,-0.4455158,1.34169,-0.1924762,-0.2312852,1.363931,0.2391156,-0.221315,1.375091,NA,NA,NotTracked,NotTracked,
-1.105957,0.2456055,0.328125,0.9360352,0.6196289,0.3027344,-2,-5,-14,-4,-2,9,3,-2,19,-4,12,38,-27,-4,6,9,27.375,27.375,27.375,-3.0625,-3.0625,-3.0625,6.313145,6.853273,5.952647,6.970547,3.304572,1.337758,-0.1589198,-0.4268984,1.251739,0.2033732,-0.4280005,1.257668,0.02781045,0.288092,1.359089,-0.16883,-0.4271722,1.20375,0.2331665,-0.4181311,1.228263,0.01396688,-0.1499263,1.392965,0.01574058,-0.4560375,1.374747,-0.1501915,0.02053511,1.374129,-0.06273115,-0.4454149,1.341835,-0.194571,-0.223418,1.371598,0.2444504,-0.2111911,1.381378,NA,NA,NotTracked,NotTracked,
-0.7734375,0.362793,0.6914063,0.6689453,0.7519531,0.4018555,-15,-11,6,13,16,9,-1,1,-26,-45,-81,-22,-8,-5,-4,-9,-42.5,-42.5,-42.5,35.25,35.25,35.25,6.120049,6.371319,5.829776,6.798359,3.686807,1.558504,-0.1250599,-0.3761303,1.224541,0.1618847,-0.3837661,1.232471,0.02776023,0.2881051,1.359038,-0.1564354,-0.368431,1.163,0.1806471,-0.3600388,1.174121,0.01424636,-0.1497201,1.393032,0.01619873,-0.4556097,1.374797,-0.1501391,0.02117384,1.376232,-0.06231388,-0.4451769,1.342217,-0.1964325,-0.2054203,1.380371,0.2475382,-0.1943959,1.38711,NA,NA,Unknown,Unknown,
-0.5732422,0.7026367,0.6518555,0.7329102,0.8945313,0.3740234,-5,-24,-18,-4,-26,-13,-4,-2,1,18,2,13,9,2,6,4,29.875,29.875,29.875,-2.6875,-2.6875,-2.6875,6.124903,6.009511,5.791018,6.756039,4.030396,1.684479,-0.1027544,-0.2920573,1.179453,0.1356473,-0.2975137,1.202,0.0276084,0.2881086,1.359053,-0.1387052,-0.2839193,1.128895,0.1274011,-0.3563676,1.229944,0.01430471,-0.1496044,1.393009,0.01605111,-0.4552281,1.374818,-0.1499433,0.02140461,1.3774,-0.06233422,-0.4448065,1.342509,-0.1953127,-0.18622,1.380604,0.248092,-0.1791269,1.381262,NA,NA,Unknown,Unknown,
-0.4667969,0.6601563,0.6801758,-0.01025391,0.7421875,0.387207,-11,-9,-70,-49,-16,-1,-4,-7,1,-8,-4,2,7,15,9,4,-13.75,-13.75,-13.75,28.8125,28.8125,28.8125,6.098071,5.756323,5.7506,6.722257,4.430148,1.803773,-0.09052346,-0.1995951,1.142042,0.10925,-0.1923384,1.188508,0.02715561,0.2880488,1.359309,-0.1117876,-0.1758304,1.095267,0.08537929,-0.2410842,1.224,0.01415805,-0.1491059,1.393579,0.01534203,-0.4539135,1.375429,-0.1496398,0.02225799,1.378112,-0.06304422,-0.4433659,1.343791,-0.2408252,-0.1712983,1.35092,0.2619051,-0.1656995,1.369554,NA,NA,Unknown,Unknown,
-0.1875,0.4941406,0.6933594,-0.2026367,0.7978516,0.2895508,23,3,29,10,-7,-4,10,4,3,3,-3,7,0,4,29,-20,37.5,37.5,37.5,63.5,63.5,63.5,6.099586,5.323164,5.664201,6.796525,4.961385,1.942342,-0.0810504,-0.1018717,1.149309,0.1019739,-0.1049204,1.198016,0.02621845,0.2884239,1.359921,-0.1019316,-0.1115291,1.102483,0.07667739,-0.161415,1.229796,0.01400595,-0.1485801,1.394337,0.01476663,-0.453143,1.375877,-0.1490138,0.02281277,1.378964,-0.06354382,-0.4424747,1.344441,-0.2420125,-0.1752246,1.337607,0.3001385,-0.1504346,1.333526,NA,NA,NotTracked,NotTracked,
0.0625,0.6450195,0.6044922,-0.2070313,0.7563477,0.4077148,40,0,-4,-4,-7,1,4,-29,-18,-18,-18,-14,-8,-2,-20,-15,24.25,24.25,24.25,69.4375,69.4375,69.4375,6.206409,4.772118,5.561851,6.905736,5.191891,2.020512,-0.08068412,-0.04555734,1.151185,0.1129044,-0.07046004,1.198204,0.02492193,0.2886961,1.3619,-0.1041822,-0.0285994,1.103632,0.07560239,-0.1090336,1.231469,0.0137849,-0.1481585,1.395065,0.01448784,-0.4528599,1.375993,-0.1488956,0.02377463,1.379665,-0.06392719,-0.4420567,1.344638,-0.2313613,-0.1728796,1.315966,0.2902346,-0.1509159,1.329235,NA,NA,NotTracked,Unknown,
0.1103516,0.5126953,0.5786133,-0.06835938,0.8393555,0.4121094,32,2,3,9,29,55,12,73,-4,0,-11,-6,-3,-2,-7,-1,13.8125,13.8125,13.8125,41.1875,41.1875,41.1875,6.217912,4.667156,5.539255,7.016181,5.271439,2.06809,-0.0775422,-0.02700311,1.164128,0.09995709,-0.04508984,1.188276,0.02338641,0.2892914,1.364527,-0.1000132,-0.006020837,1.109458,0.06670115,-0.08173177,1.23136,0.01351539,-0.1478118,1.39601,0.01432816,-0.4527761,1.376023,-0.1491017,0.02526144,1.380674,-0.06418798,-0.4419168,1.344764,-0.2277035,-0.171186,1.308273,0.3088755,-0.1369917,1.310305,NA,NA,NotTracked,NotTracked,
0.1430664,0.487793,0.6254883,-0.137207,0.9360352,0.3554688,-14,-17,-15,3,23,46,6,-14,-2,-6,-5,-3,-3,0,7,8,22.4375,22.4375,22.4375,26.75,26.75,26.75,6.23495,4.583666,5.515614,7.046935,5.27807,2.085706,-0.07364859,-0.02577474,1.166798,0.06343366,-0.01288635,1.157494,0.02201478,0.2893871,1.367086,-0.09471937,-0.001974911,1.110778,0.03365628,-0.01538791,1.20925,0.0131002,-0.147685,1.396823,0.01409502,-0.4528115,1.375819,-0.1490598,0.02547044,1.380672,-0.06448372,-0.4419685,1.344536,-0.2274582,-0.1706869,1.307903,0.2952017,-0.1370727,1.297423,NA,NA,NotTracked,NotTracked,
0.2426758,0.6401367,0.6264648,-0.3178711,1.070313,0.199707,30,0,-6,-4,-2,-2,-3,0,-8,-23,-8,-12,-5,-3,-22,4,-0.6875,-0.6875,-0.6875,38.75,38.75,38.75,6.334006,4.466515,5.403705,7.116119,5.282754,2.139505,-0.07055696,-0.03046123,1.165429,0.07752997,-0.01828035,1.160085,0.02120339,0.2897497,1.368616,-0.09309503,-0.007575656,1.110781,0.04167937,-0.03498265,1.201857,0.01291344,-0.1476611,1.397046,0.01389301,-0.4529551,1.375585,-0.1491428,0.02601337,1.381067,-0.06472858,-0.4421395,1.344364,-0.226218,-0.1705002,1.305439,0.2929607,-0.136714,1.294841,NA,NA,NotTracked,NotTracked,
0.2919922,0.7158203,0.675293,-0.4101563,1.164063,0.1796875,7,17,29,1,-17,-4,0,4,16,6,7,6,4,0,-12,-2,-13,-13,-13,35.25,35.25,35.25,6.31874,4.529881,5.393391,7.190071,5.358769,2.193836,-0.06792603,-0.03640461,1.166832,0.09493829,-0.01615161,1.189884,0.02053777,0.2902042,1.36979,-0.09030823,-0.009433299,1.113583,0.08015399,-0.06424218,1.229352,0.01253464,-0.1474795,1.397287,0.01323952,-0.4529079,1.375226,-0.1494213,0.02721124,1.382126,-0.06543072,-0.4420833,1.344464,-0.226761,-0.1703736,1.30668,0.2953678,-0.1313911,1.288157,NA,NA,NotTracked,NotTracked,
0.2915039,0.6933594,0.6816406,-0.4716797,0.8466797,0.1005859,1,2,-14,-7,-9,-3,5,3,-1,-5,-7,-4,-2,11,37,32,-8.4375,-8.4375,-8.4375,56.875,56.875,56.875,6.300447,4.567757,5.396223,7.34525,5.659589,2.286167,-0.06545716,-0.04336378,1.171225,0.09511679,0.02823984,1.19969,0.01924889,0.2905792,1.370798,-0.083555,-0.01419778,1.120048,0.08208776,0.002118345,1.249464,0.0124608,-0.1475454,1.397102,0.01288867,-0.4533337,1.374701,-0.1496472,0.02735852,1.382344,-0.06595598,-0.4426822,1.345312,-0.2275322,-0.1696156,1.309286,0.3018617,-0.1094551,1.255823,NA,NA,NotTracked,NotTracked,
0.2700195,0.7089844,0.6899414,-0.4921875,0.5029297,-0.125,11,-7,-12,-6,-5,-5,-3,-4,-9,0,0,1,2,8,36,6,-7.9375,-7.9375,-7.9375,116.8125,116.8125,116.8125,6.29787,4.588165,5.372058,7.483951,5.900786,2.220085,-0.06080183,-0.04413874,1.180311,0.09950271,0.0878858,1.156315,0.01796609,0.291255,1.371184,-0.0805894,-0.01449294,1.129947,0.08540837,0.07271166,1.179111,0.01227989,-0.1477951,1.396676,0.01201383,-0.4542042,1.374024,-0.1496727,0.02730971,1.382342,-0.06732956,-0.4435704,1.347187,-0.2266166,-0.1709601,1.312141,0.296257,-0.08662106,1.217407,NA,NA,NotTracked,Unknown,
0.3061523,0.7241211,0.6430664,-0.2636719,0.6074219,0.0004882813,-7,-9,-3,-6,-1,1,1,-7,0,0,-3,-7,2,17,12,-32,-10.4375,-10.4375,-10.4375,76.6875,76.6875,76.6875,6.291226,4.569689,5.336799,7.531642,5.836249,1.985473,-0.05469338,-0.0431038,1.187305,0.1122414,0.09047786,1.097866,0.01739751,0.2920143,1.371156,-0.07652377,-0.006732534,1.1326,0.0864139,0.08135544,1.120889,0.01119499,-0.1468973,1.394722,0.01145143,-0.4545248,1.373513,-0.1496665,0.02728913,1.382351,-0.06800718,-0.4436937,1.34771,-0.2378964,-0.1751612,1.339079,0.2966519,-0.08734903,1.212128,NA,NA,Closed,Lasso,
0.269043,0.7070313,0.6381836,-0.1293945,0.7036133,-0.002441406,-12,-13,-10,-11,-12,-5,3,-19,-6,-7,-27,-10,23,18,-9,-3,-3.4375,-3.4375,-3.4375,-79.5625,-79.5625,-79.5625,6.287107,4.541191,5.315377,7.398841,5.486217,1.771011,-0.0520395,-0.04179326,1.189868,0.1539168,0.02178746,1.024063,0.01726105,0.2920125,1.371343,-0.07617601,-0.005103189,1.13495,0.1118106,0.04239653,1.016333,0.01074655,-0.1477579,1.395141,0.01133753,-0.4563115,1.373186,-0.1486837,0.02649888,1.381414,-0.06804158,-0.4456586,1.347735,-0.2405894,-0.1730307,1.344109,0.2903729,-0.08219509,1.201702,NA,NA,Closed,Unknown,
0.2910156,0.7236328,0.6333008,1.150391,0.8618164,0.2597656,8,9,11,6,2,-1,2,5,4,8,13,-3,-10,11,18,19,-1.75,-1.75,-1.75,95.5625,95.5625,95.5625,6.28782,4.537235,5.315382,7.417722,4.934413,1.569324,-0.05335512,-0.04415492,1.187274,0.1753017,-0.08139374,0.9823915,0.01753546,0.2920645,1.371679,-0.0782503,-0.01007109,1.13203,0.1513605,-0.05362983,0.969,0.01050698,-0.1474543,1.39568,0.01140875,-0.4555041,1.373078,-0.1487187,0.02644554,1.381394,-0.06776577,-0.4446931,1.346811,-0.2296548,-0.1706144,1.32418,0.2953025,-0.07604555,1.21539,NA,NA,Closed,Unknown,
0.2714844,0.7246094,0.6220703,0.4208984,1.33252,0.2011719,12,11,14,-3,-2,3,2,6,12,-20,-36,11,10,-13,-17,-16,-0.125,-0.125,-0.125,0.4375,0.4375,0.4375,6.288899,4.538042,5.318001,7.49351,4.639053,1.654843,-0.05672237,-0.04594412,1.181472,0.1796534,-0.161835,1.023219,0.01750866,0.2920893,1.371692,-0.08305065,-0.01356486,1.124333,0.1536216,-0.1411343,1.024909,0.01043012,-0.1472421,1.395834,0.01135793,-0.4545806,1.372816,-0.1487027,0.02641879,1.381319,-0.06766378,-0.4433287,1.34546,-0.2286374,-0.1709513,1.323136,0.3065746,-0.09634164,1.244229,NA,NA,Closed,Unknown,
0.2568359,0.7861328,0.3349609,0.2949219,1.46582,0.3579102,0,1,0,4,2,-3,0,5,25,58,48,6,15,4,15,0,4.6875,4.6875,4.6875,-67.125,-67.125,-67.125,6.32416,4.615829,5.38034,7.355013,4.49631,1.832158,-0.06027217,-0.05239623,1.176431,0.1573912,-0.1944702,1.095282,0.01729891,0.2920554,1.371241,-0.08734816,-0.02413412,1.117318,0.1310067,-0.1743168,1.086778,0.010404,-0.1471329,1.395733,0.01124916,-0.4539577,1.372453,-0.1487227,0.02632019,1.381149,-0.0676894,-0.4425877,1.34448,-0.2293494,-0.1700197,1.32212,0.3283364,-0.09988372,1.27267,NA,NA,Closed,Unknown,
0.1738281,0.6972656,0.7075195,-0.3129883,1.232422,0.1918945,-1,6,9,0,-2,3,0,5,-3,2,7,17,8,0,20,0,5.25,5.25,5.25,-111.125,-111.125,-111.125,6.322868,4.674997,5.428388,7.056821,4.620855,2.058596,-0.06378113,-0.05987494,1.174541,0.1290203,-0.1664859,1.163654,0.01715638,0.2919051,1.37028,-0.09060253,-0.06922596,1.120351,0.08916032,-0.1709084,1.207333,0.01038939,-0.1469928,1.395453,0.0110578,-0.4533564,1.372153,-0.1487906,0.02626131,1.381097,-0.06771161,-0.4422004,1.344233,-0.2295879,-0.1732114,1.322723,0.3400653,-0.1183956,1.301556,NA,NA,Closed,Unknown,
0.1831055,0.6811523,0.7270508,-0.402832,1.007813,0.01025391,-1,4,9,7,3,-1,0,-3,-1,-12,-13,0,1,-2,-1,14,-6.125,-6.125,-6.125,-42.75,-42.75,-42.75,6.311265,4.713864,5.431184,6.931586,4.927924,2.131997,-0.06252122,-0.06663781,1.173106,0.07421876,-0.1040991,1.215509,0.01744478,0.2915562,1.367511,-0.05492339,-0.01793231,1.231769,0.06919518,-0.1773503,1.219063,0.01077283,-0.1470186,1.394653,0.01099542,-0.4531455,1.371741,-0.148854,0.02594921,1.380778,-0.06764925,-0.4420381,1.343804,-0.2320237,-0.1681754,1.316188,0.3064075,-0.1336738,1.31133,NA,NA,Closed,NotTracked,
0.1918945,0.6899414,0.7358398,-0.2939453,0.9824219,0.1889648,-5,-4,-2,-4,2,-3,-3,-5,-2,-28,-12,-2,-4,-1,4,-8,-5.8125,-5.8125,-5.8125,20.75,20.75,20.75,6.305865,4.721722,5.429099,6.950226,5.274906,2.114326,-0.05890686,-0.06650049,1.175781,0.07178301,-0.06632087,1.214614,0.01844901,0.2910452,1.364648,-0.04515196,-0.01944951,1.221857,0.05285756,-0.1386425,1.215323,0.01102518,-0.1471086,1.393833,0.01091687,-0.4530721,1.371218,-0.1489374,0.02578039,1.380649,-0.06773806,-0.4420269,1.342968,-0.2328966,-0.1706065,1.316846,0.3028144,-0.136565,1.310432,NA,NA,NotTracked,NotTracked,
0.1738281,0.7124023,0.7075195,-0.09082031,0.7895508,0.2856445,-1,-3,-3,0,0,0,-5,-5,-3,-6,-6,7,2,-10,-4,-22,-8.4375,-8.4375,-8.4375,18.3125,18.3125,18.3125,6.283863,4.73068,5.402123,6.965183,5.521563,1.999835,-0.05539742,-0.06828223,1.178716,0.05126033,-0.01614879,1.199068,0.01884487,0.290751,1.363362,-0.0523991,-0.01744841,1.226786,0.03135573,-0.01154219,1.23532,0.0113613,-0.1473583,1.393544,0.01089571,-0.4531968,1.371035,-0.1489506,0.02572332,1.380562,-0.06778883,-0.4422192,1.342888,-0.2310737,-0.1743752,1.322686,0.296744,-0.1390165,1.304062,NA,NA,NotTracked,NotTracked,
0.1552734,0.7099609,0.699707,-0.09179688,0.8085938,0.3134766,-9,6,13,1,-1,1,7,15,-23,29,19,12,-6,14,9,-2,-5.4375,-5.4375,-5.4375,15.1875,15.1875,15.1875,6.27901,4.700775,5.362139,6.960988,5.491981,1.916283,-0.05392307,-0.06506331,1.182551,0.04009327,-0.01017219,1.181239,0.01912297,0.2905509,1.362634,-0.02525964,-0.1075619,1.220648,0.02696693,-0.01522267,1.233897,0.01197186,-0.1476864,1.393566,0.01094517,-0.4533005,1.370961,-0.1489636,0.02569334,1.380542,-0.06774221,-0.4424691,1.343118,-0.2301182,-0.1754394,1.321741,0.2908587,-0.1409112,1.297667,NA,NA,NotTracked,NotTracked,
0.1713867,0.7026367,0.6669922,-0.06835938,0.9550781,0.4321289,-1,-8,-12,0,0,1,-4,-2,-2,-32,-25,-3,-3,-3,11,7,-0.125,-0.125,-0.125,2.75,2.75,2.75,6.277705,4.667554,5.347126,6.956177,5.341291,1.903513,-0.07135741,-0.05370202,1.158153,0.05268785,-0.01271723,1.156112,0.01952866,0.2903028,1.362204,-0.04013709,-0.07122393,1.1696,0.001748491,-0.03097619,1.148125,0.01224348,-0.1477306,1.393332,0.01108709,-0.4532976,1.370851,-0.1489543,0.02559875,1.380459,-0.06759422,-0.4425308,1.343001,-0.2292611,-0.1755582,1.322058,0.2826779,-0.1425808,1.29041,NA,NA,NotTracked,NotTracked,
0.1889648,0.7075195,0.6757813,-0.3398438,1.03418,0.3398438,1,-2,-1,-4,2,-1,-2,-2,8,11,20,8,-1,-7,-6,-6,4,4,4,-15,-15,-15,6.281449,4.65489,5.346584,6.946617,5.277724,1.940071,-0.05335743,-0.06081541,1.181022,0.09856181,-0.04069941,1.174073,0.01987982,0.2900347,1.362092,-0.05476953,-0.003546845,1.2296,0.06743409,-0.02431037,1.223778,0.01227972,-0.1477675,1.393273,0.01117701,-0.453341,1.370699,-0.1488159,0.0255256,1.380334,-0.06747175,-0.4426376,1.342575,-0.2289157,-0.1673741,1.318061,0.2810904,-0.142506,1.288283,NA,NA,NotTracked,NotTracked,
0.1713867,0.722168,0.7075195,-0.2763672,0.890625,0.2939453,3,1,-1,0,-1,-3,-7,-4,1,-13,-13,-10,-7,-8,-34,26,8.125,8.125,8.125,-2.8125,-2.8125,-2.8125,6.294843,4.662785,5.360668,6.938132,5.284546,1.957608,-0.05242766,-0.06082083,1.180423,0.04902855,-0.03373935,1.179913,0.02043865,0.2897884,1.361982,-0.009676273,-0.08245777,1.2201,0.02636868,-0.05280254,1.223484,0.01247517,-0.1477537,1.393107,0.01140457,-0.4532397,1.370417,-0.1487489,0.02549446,1.380292,-0.0671806,-0.4425392,1.341933,-0.2272582,-0.1702323,1.317374,0.2817449,-0.1424326,1.289698,NA,NA,NotTracked,NotTracked,
0.1713867,0.722168,0.7075195,-0.2050781,0.9008789,0.3574219,-5,1,0,-9,-6,-1,6,1,-2,9,10,22,6,11,2,-7,8.125,8.125,8.125,0.5,0.5,0.5,6.294843,4.662785,5.360668,6.93769,5.277513,1.952649,-0.05238346,-0.06047722,1.180354,0.06838527,-0.03274572,1.171423,0.02114748,0.2896792,1.362062,-0.01120032,-0.08486834,1.220152,0.04613611,-0.03483696,1.217667,0.01286471,-0.1477632,1.392978,0.01174918,-0.453172,1.370179,-0.1486304,0.02546953,1.380275,-0.06678214,-0.4424727,1.341416,-0.2272756,-0.1704377,1.318347,0.2830834,-0.1424193,1.291691,NA,NA,NotTracked,NotTracked,
0.2124023,0.6977539,0.6831055,-0.1811523,0.9423828,0.3618164,-9,-4,3,-1,-1,-2,0,1,2,16,13,25,4,-3,-17,-2,-0.5625,-0.5625,-0.5625,-3.0625,-3.0625,-3.0625,6.292413,4.671342,5.357097,6.933688,5.27315,1.934922,-0.05224913,-0.06190338,1.181692,0.06677038,-0.03381765,1.172591,0.02236837,0.2893886,1.362383,-0.02339011,-0.1056589,1.221944,0.04911561,-0.04415353,1.221315,0.01328294,-0.1477199,1.392923,0.01204926,-0.453041,1.370007,-0.1485269,0.02544546,1.380295,-0.06640311,-0.4423378,1.340949,-0.227285,-0.1700281,1.318711,0.2818666,-0.1425261,1.290858,NA,NA,NotTracked,NotTracked,
0.1855469,0.7236328,0.7001953,-0.2163086,0.9072266,0.3466797,-5,-10,-12,-4,-4,-2,-2,2,-12,-27,-23,-12,0,-3,-1,2,-1.375,-1.375,-1.375,-1.25,-1.25,-1.25,6.29333,4.678941,5.354019,6.923745,5.269795,1.923429,-0.06797872,-0.05404178,1.15735,0.005244287,-0.03369989,1.161898,0.02332295,0.2890237,1.362898,-0.03432756,-0.0699973,1.167143,0.02645136,-0.04610782,1.1868,0.01377691,-0.1477428,1.392959,0.01244201,-0.4529902,1.369858,-0.1483775,0.02534488,1.3803,-0.06598201,-0.4423133,1.340543,-0.2272364,-0.1698722,1.318641,0.2820453,-0.142902,1.291945,NA,NA,NotTracked,NotTracked,
0.1791992,0.7016602,0.6811523,-0.1860352,0.9077148,0.3725586,-7,-3,-1,2,-3,-1,7,12,8,22,24,-5,2,-11,-23,-11,-4.5,-4.5,-4.5,-2.5,-2.5,-2.5,6.288063,4.68009,5.349853,6.916859,5.258143,1.909973,-0.06746701,-0.05506724,1.158184,0.06558786,-0.03361324,1.167501,0.02434259,0.2888114,1.363066,-0.04087849,-0.07557645,1.168455,0.06289311,-0.01750441,1.15879,0.01425652,-0.1477724,1.392912,0.01281629,-0.4529122,1.369795,-0.1481813,0.02525298,1.380262,-0.06562123,-0.4422763,1.340345,-0.2273611,-0.1685392,1.318703,0.2815757,-0.1432171,1.291957,NA,NA,NotTracked,NotTracked,
0.1816406,0.706543,0.6728516,-0.1069336,0.8764648,0.4033203,-2,0,1,0,1,-1,3,-1,-4,-6,-3,-2,0,1,19,5,-0.8125,-0.8125,-0.8125,-10.3125,-10.3125,-10.3125,6.287829,4.680297,5.349936,6.897488,5.22108,1.890001,-0.06724226,-0.05851672,1.154415,0.008578121,-0.03858626,1.160312,0.02527516,0.2886928,1.363147,-0.03821371,-0.07215895,1.163607,0.02005174,-0.05524398,1.1757,0.01474642,-0.1476524,1.392976,0.01330272,-0.4526582,1.369795,-0.1480331,0.02519576,1.380266,-0.06511971,-0.4420745,1.340076,-0.2270488,-0.1686724,1.31817,0.2817169,-0.1435749,1.292945,NA,NA,NotTracked,NotTracked,
0.04296875,0.7158203,0.6660156,-0.04589844,0.7553711,0.3964844,2,0,1,1,-1,0,0,1,-2,-1,-4,-1,1,-6,-3,-4,-5.625,-5.625,-5.625,-25.4375,-25.4375,-25.4375,6.277699,4.742789,5.351871,6.852964,5.149281,1.873847,-0.04789348,-0.07048398,1.184289,0.08994767,-0.0564509,1.171456,0.02600012,0.2887381,1.363286,-0.01755787,-0.1182435,1.223345,0.06661833,-0.05479854,1.21775,0.01522763,-0.1475432,1.393096,0.01356875,-0.4525112,1.369905,-0.1478137,0.02509233,1.380226,-0.064882,-0.4419392,1.340093,-0.2261344,-0.1733109,1.327702,0.2810175,-0.1451991,1.29591,NA,NA,NotTracked,NotTracked,
0.06445313,0.6333008,0.6245117,0.01464844,0.7749023,0.4355469,-3,-2,0,-2,-4,-2,-1,-10,-9,-3,-3,-1,0,1,9,-6,-27.375,-27.375,-27.375,-32.875,-32.875,-32.875,6.244281,4.848827,5.372072,6.799024,4.991109,1.865889,-0.04129123,-0.1039179,1.194417,0.1137901,-0.0895763,1.192309,0.02662817,0.2889004,1.363356,0.001875979,-0.1612186,1.219285,0.1045847,-0.03717447,1.23348,0.01605068,-0.1471936,1.393289,0.01404953,-0.452042,1.370249,-0.1475715,0.02482346,1.380181,-0.06435744,-0.4414857,1.340342,-0.2295508,-0.1734414,1.328649,0.3195705,-0.1576351,1.330731,NA,NA,NotTracked,NotTracked,
-0.02978516,0.5087891,0.5996094,-0.08496094,0.828125,0.4262695,6,1,-1,-3,-1,1,-2,-14,-5,-11,-10,-6,-2,-1,-4,-19,-17.125,-17.125,-17.125,-28.5625,-28.5625,-28.5625,6.206606,5.06513,5.420386,6.709068,4.641092,1.87439,-0.06001691,-0.1651144,1.177111,0.1057072,-0.1455111,1.186288,0.02746799,0.2890838,1.36355,-0.03620234,-0.215463,1.209235,0.0778031,-0.1970996,1.223536,0.01636032,-0.1469748,1.393399,0.0141095,-0.4515207,1.370656,-0.1473034,0.02476753,1.380214,-0.0641237,-0.4408086,1.340597,-0.241407,-0.163003,1.330294,0.3119425,-0.1521447,1.327049,NA,NA,NotTracked,NotTracked,
-0.3081055,0.4423828,0.5844727,0.2416992,0.7626953,0.4067383,1,5,12,6,0,1,5,21,-4,-1,0,-5,-2,-1,8,-12,-5.1875,-5.1875,-5.1875,-26,-26,-26,6.215379,5.51052,5.542968,6.679053,4.282135,1.845325,-0.07989316,-0.2547998,1.174972,0.1047868,-0.2247455,1.189731,0.0281048,0.2892851,1.363867,-0.03970092,-0.2373043,1.222048,0.06519689,-0.2542321,1.216517,0.01680337,-0.1466909,1.393469,0.01450074,-0.4511074,1.371049,-0.1470725,0.02472016,1.380198,-0.063642,-0.4404109,1.340925,-0.2631544,-0.1488713,1.403767,0.3193042,-0.1463105,1.372906,NA,NA,NotTracked,NotTracked,
-0.4853516,0.5664063,0.6655273,0.828125,0.7207031,0.2978516,-10,-16,6,3,1,1,4,8,9,-3,-2,2,-1,-2,-16,41,4.375,4.375,4.375,0.1875,0.1875,0.1875,6.248768,5.985532,5.668208,6.740904,3.905924,1.76858,-0.1113355,-0.3365432,1.210336,0.1254925,-0.3150331,1.209275,0.02950707,0.2902347,1.364224,-0.1672551,-0.3759875,1.21425,0.1111958,-0.3712398,1.228714,0.0175761,-0.1465687,1.393194,0.01557211,-0.451315,1.371215,-0.1472444,0.02460549,1.37916,-0.06223313,-0.4409424,1.340902,-0.2020968,-0.1775991,1.373354,0.2476086,-0.1757021,1.365599,NA,NA,Unknown,Unknown,
-0.4970703,0.7641602,0.5102539,0.6591797,0.7236328,0.2978516,-4,-2,-6,-7,-4,-4,2,3,5,20,15,10,2,0,6,-7,-19.0625,-19.0625,-19.0625,-41.0625,-41.0625,-41.0625,6.279336,6.325538,5.760705,6.793204,3.45792,1.595658,-0.1419271,-0.4123517,1.240937,0.1462039,-0.3843536,1.237548,0.0303982,0.2908724,1.364456,-0.1016077,-0.4587929,1.26475,0.09418592,-0.3531193,1.242389,0.0176904,-0.146591,1.392894,0.01563694,-0.4515044,1.371243,-0.147247,0.02432146,1.37913,-0.06228642,-0.4411425,1.340713,-0.1996848,-0.1887401,1.375193,0.247122,-0.1817844,1.370492,NA,NA,Closed,Unknown,
