ALX,ALY,ALZ,ARX,ARY,ARZ,EMG0L,EMG1L,EMG2L,EMG3L,EMG4L,EMG5L,EMG6L,EMG7L,EMG0R,EMG1R,EMG2R,EMG3R,EMG4R,EMG5R,EMG6R,EMG7R,GLX,GLY,GLZ,GRX,GRY,GRZ,ORL,OPL,OYL,ORR,OPR,OYR,LHNX,LHNY,LHNZ,RHNX,RHNY,RHNZ,HX,HY,HZ,LTX,LTY,LTZ,RTX,RTY,RTZ,SpineMidX,SpineMidY,SpineMidZ,SpineBaseX,SpineBaseY,SpineBaseZ,ShoulderLeftX,ShoulderLeftY,ShoulderLeftZ,ShoulderRightX,ShoulderRightY,ShoulderRightZ,ElbowLeftX,ElbowLeftY,ElbowLeftZ,ElbowRightX,ElbowRightY,ElbowRightZ,Myo_Pose_left,Myo_Pose_Right,Kinect_pose_left,Kinect_pose_right
-0.9692383,0.2172852,0.1801758,0.9291992,0.2973633,0.03125,0,0,-1,-1,0,-2,-2,-2,2,3,1,-2,-2,0,2,0,0,0,0,-1.6875,-1.6875,-1.6875,6.364316,7.026993,7.230134,7.461472,2.990489,5.077481,-0.1823691,-0.4701456,1.27668,0.2004623,-0.4630161,1.293718,0.007239511,0.2966523,1.363256,-0.1340271,-0.4397955,1.25509,0.1581181,-0.4195572,1.269072,0.001905688,-0.1488727,1.377832,0.003543357,-0.4550784,1.362573,-0.1720146,0.01619537,1.355196,-0.07494844,-0.445199,1.329186,-0.1989753,-0.2302891,1.340682,0.2178315,-0.2275639,1.366157,NA,NA,NotTracked,NotTracked,
-0.9614258,0.2182617,0.1826172,0.9316406,0.3037109,0.006835938,0,-1,-1,-2,1,-3,-3,-3,-3,-14,-9,-4,-2,-4,-1,-2,-6.5625,-6.5625,-6.5625,-1.625,-1.625,-1.625,6.360013,7.025574,7.233826,7.458099,2.993881,5.078878,-0.1829675,-0.4695677,1.277056,0.1991131,-0.4629455,1.293602,0.006274629,0.2963516,1.363014,-0.1345951,-0.4277019,1.254295,0.1592576,-0.4255909,1.269937,0.0009568256,-0.1490494,1.377999,0.002886828,-0.4551539,1.362325,-0.1728265,0.01617813,1.355462,-0.07558767,-0.4453486,1.328938,-0.1999203,-0.2305994,1.340679,0.2172981,-0.2276722,1.366435,NA,NA,NotTracked,NotTracked,
-0.9736328,0.2211914,0.1870117,0.953125,0.300293,0.06054688,-1,0,-1,-1,-2,-3,-2,-2,-1,0,-1,0,-1,-1,0,-2,-4.625,-4.625,-4.625,5.75,5.75,5.75,6.355072,7.023867,7.240228,7.405173,3.005056,5.128223,-0.184004,-0.4695527,1.278044,0.198505,-0.4619859,1.292286,0.005366743,0.2960466,1.362887,-0.135689,-0.4423791,1.255959,0.1591291,-0.4255875,1.269969,0.0002691003,-0.1491414,1.37812,0.002485735,-0.4551806,1.362205,-0.1733433,0.01604399,1.355452,-0.07595612,-0.4453946,1.328813,-0.200845,-0.2307574,1.340556,0.2167499,-0.2274598,1.36645,NA,NA,NotTracked,NotTracked,
-0.9672852,0.222168,0.1943359,0.8847656,0.3300781,0.07519531,-3,-2,0,-1,-2,-3,-1,-3,-2,-2,-1,-2,0,0,-1,0,-0.3125,-0.3125,-0.3125,17.25,17.25,17.25,6.354871,7.021012,7.243659,7.378759,3.014714,5.181321,-0.1847635,-0.4684267,1.276872,0.1971237,-0.4605833,1.28915,0.004419314,0.2957031,1.362902,-0.1356556,-0.4302744,1.254622,0.1578107,-0.4217306,1.269463,-0.0005152592,-0.1492737,1.378266,0.001930543,-0.4552469,1.361964,-0.1738076,0.01601131,1.355543,-0.07649453,-0.4454844,1.328611,-0.2013972,-0.2311172,1.340579,0.2164252,-0.2268197,1.366395,NA,NA,NotTracked,NotTracked,
-0.9672852,0.2299805,0.1826172,0.890625,0.3051758,0.03271484,-2,-2,-2,0,-2,0,0,-1,-3,-5,-6,-2,-3,-4,-2,-5,0.5,0.5,0.5,-1.9375,-1.9375,-1.9375,6.365981,7.019687,7.252697,7.385013,3.019475,5.194157,-0.186262,-0.4687182,1.277772,0.1961177,-0.4587736,1.288182,0.003898834,0.2954614,1.362803,-0.1361144,-0.4305166,1.254489,0.1534019,-0.4352826,1.26584,-0.001248053,-0.1493981,1.378358,0.001278862,-0.455341,1.36176,-0.174248,0.0159567,1.355665,-0.0771564,-0.4456345,1.328379,-0.2019188,-0.2315377,1.340664,0.2160447,-0.2263748,1.366119,NA,NA,NotTracked,NotTracked,
-0.9658203,0.2192383,0.190918,1.074219,0.3530273,-0.09326172,1,-1,-1,-1,-1,0,0,-1,-9,12,-10,5,4,2,0,-3,-0.0625,-0.0625,-0.0625,-35.75,-35.75,-35.75,6.371558,7.01835,7.259652,7.362645,3.027597,5.184191,-0.1858611,-0.4698595,1.278116,0.1948872,-0.4586736,1.287652,0.003355132,0.295314,1.362757,-0.1374251,-0.4386895,1.256218,0.1552979,-0.425597,1.267705,-0.001817921,-0.149397,1.378515,0.0008577945,-0.4552823,1.361729,-0.1746579,0.01600018,1.355827,-0.07755771,-0.4455511,1.328345,-0.2027728,-0.2313459,1.34066,0.21528,-0.2257141,1.36582,NA,NA,NotTracked,NotTracked,
-0.9731445,0.2265625,0.1806641,1.269043,0.3676758,0.1357422,-3,0,-2,0,-2,0,8,0,-2,-4,-9,-7,-3,2,-2,1,-6.4375,-6.4375,-6.4375,-37.75,-37.75,-37.75,6.376954,7.014417,7.271199,7.104733,3.101275,5.33726,-0.1862341,-0.4696394,1.278238,0.1871439,-0.4509946,1.27498,0.002980473,0.2952201,1.36278,-0.1369286,-0.4310003,1.25553,0.1483145,-0.4215582,1.264132,-0.002351179,-0.1494558,1.378632,0.0002419635,-0.4553441,1.361655,-0.1750707,0.01560778,1.355832,-0.07813854,-0.4455779,1.32834,-0.2033336,-0.2313452,1.340795,0.2148264,-0.2239261,1.366392,NA,NA,NotTracked,NotTracked,
-0.965332,0.2333984,0.1723633,0.7714844,1.072266,0.3046875,0,-3,-2,0,0,-1,-3,0,33,40,32,18,5,2,5,13,-14.25,-14.25,-14.25,121.375,121.375,121.375,6.374833,7.006357,7.288961,6.85069,3.41111,5.832825,-0.1864078,-0.4695932,1.277467,0.1559313,-0.4179809,1.237747,0.002681745,0.2951266,1.362843,-0.1380332,-0.4229602,1.255531,0.123292,-0.4047711,1.244975,-0.003560051,-0.1494817,1.378572,-0.002681255,-0.4554221,1.360977,-0.1754504,0.0153245,1.355956,-0.08108477,-0.445285,1.327889,-0.2037043,-0.2312539,1.340913,0.2179397,-0.2106629,1.368409,NA,NA,NotTracked,NotTracked,
-0.9301758,0.206543,0.2158203,0.4272461,1.062988,0.4853516,-1,-1,1,-2,-1,-1,0,0,-27,-32,-21,-25,-17,-12,-16,-27,5.25,5.25,5.25,150.6875,150.6875,150.6875,6.34054,7.009087,7.265013,6.812489,3.800383,6.180767,-0.1865313,-0.4702052,1.278666,0.08594506,-0.3548751,1.213288,0.002505759,0.2950597,1.36297,-0.137257,-0.4293484,1.255493,0.1202451,-0.4142195,1.2399,-0.005000016,-0.1495026,1.378797,-0.005868187,-0.4553975,1.36076,-0.1756001,0.01518854,1.355984,-0.08408841,-0.4449172,1.327954,-0.204049,-0.2308304,1.341248,0.2275129,-0.1841405,1.356493,NA,NA,NotTracked,Unknown,
-0.9726563,0.2026367,0.2075195,0.1489258,0.9677734,0.690918,-2,-2,-2,-1,-3,-1,-2,-2,43,10,5,-4,-3,-1,9,52,27.25,27.25,27.25,176.625,176.625,176.625,6.338842,7.020984,7.2321,6.969547,4.350647,6.568266,-0.1862822,-0.472848,1.278682,0.02131647,-0.2502491,1.173985,0.002330058,0.2950686,1.363598,-0.1370111,-0.4459844,1.257053,0.02228357,-0.3102504,1.201773,-0.005436528,-0.1493292,1.379472,-0.00600878,-0.4551736,1.361076,-0.1756457,0.01499683,1.356015,-0.08406687,-0.4447365,1.328397,-0.2042071,-0.230663,1.341383,0.2347988,-0.1611681,1.307319,NA,NA,NotTracked,Unknown,
-1.004883,0.2275391,0.1801758,0.2495117,0.9228516,0.6210938,1,1,0,-1,-1,0,-2,-1,-26,-9,-6,-14,-3,-5,-4,-63,27.625,27.625,27.625,153.875,153.875,153.875,6.375315,7.02761,7.2191,7.174346,4.648106,6.801904,-0.1866876,-0.4720107,1.279617,-0.02757839,-0.1628107,1.14956,0.002344406,0.2949444,1.364523,-0.1380837,-0.4486451,1.25885,-0.05902624,-0.2084782,1.1845,-0.006062474,-0.1481154,1.381305,-0.00662621,-0.4524291,1.362165,-0.175286,0.01594307,1.356506,-0.08415614,-0.442241,1.330007,-0.2042095,-0.2305002,1.341383,0.2349062,-0.1340277,1.24617,NA,NA,NotTracked,Unknown,
-0.9633789,0.2001953,0.1542969,0.1269531,0.8808594,0.4707031,-1,-1,-2,-1,-2,1,-1,-1,-58,0,0,-5,5,1,-14,-8,2.1875,2.1875,2.1875,137.5625,137.5625,137.5625,6.400526,7.019333,7.223091,7.363699,4.856539,6.987688,-0.1842964,-0.4717098,1.279333,-0.09651463,-0.08632165,1.124776,0.002663684,0.2947342,1.365754,-0.1383631,-0.4333861,1.259374,-0.1366843,-0.1282235,1.1642,-0.005931457,-0.1473054,1.383262,-0.006064025,-0.4511012,1.363098,-0.1750326,0.0161809,1.357091,-0.08310664,-0.4407802,1.332454,-0.203567,-0.2352514,1.34105,0.1814753,-0.1078437,1.192371,NA,NA,NotTracked,Lasso,
-0.940918,0.21875,0.1845703,0.2714844,0.7749023,0.2319336,-2,0,-1,-1,0,1,-2,-2,41,24,19,13,15,14,27,-2,0.375,0.375,0.375,85.0625,85.0625,85.0625,6.378891,7.016654,7.200217,7.554948,4.968015,7.174688,-0.1831039,-0.4725002,1.282281,-0.1370945,-0.03528419,1.115602,0.002872946,0.2945502,1.36649,-0.1373191,-0.4380379,1.259563,-0.1818036,-0.06689727,1.126417,-0.005416058,-0.146433,1.38458,-0.005349859,-0.4499252,1.363943,-0.1719298,0.02341996,1.35817,-0.08222363,-0.4396367,1.334767,-0.2028147,-0.2356823,1.341754,0.1745808,-0.08525779,1.173446,NA,NA,NotTracked,Unknown,
-0.9663086,0.2685547,0.1601563,0.1987305,0.8105469,0.1269531,-2,-1,0,-2,-1,-2,-3,-4,82,21,11,5,-38,5,26,21,-7.4375,-7.4375,-7.4375,56.25,56.25,56.25,6.390735,7.031205,7.21727,7.638673,5.009001,7.258071,-0.1827815,-0.4731412,1.28701,-0.1957614,-4.416937E-05,1.124931,0.003350325,0.2943886,1.367147,-0.1372439,-0.4269031,1.261978,-0.2171642,-0.06916155,1.144454,-0.005354682,-0.1458622,1.385549,-0.005619144,-0.4495888,1.364628,-0.1699812,0.02587931,1.358654,-0.08302853,-0.4394065,1.338203,-0.2018202,-0.2352803,1.343238,0.1493169,-0.05465278,1.155127,NA,NA,NotTracked,Open,
-0.9663086,0.2304688,0.1616211,0.2138672,0.8393555,-0.2504883,-3,-2,-1,-2,0,0,1,-4,6,-6,-13,-15,-22,-9,-7,7,-14.125,-14.125,-14.125,-29.5625,-29.5625,-29.5625,6.408778,7.04556,7.260838,7.642251,5.091742,7.321895,-0.1826881,-0.4720079,1.289536,-0.2097766,0.02832648,1.133234,0.003929737,0.2943249,1.367673,-0.1367802,-0.4358667,1.263117,-0.2245745,-0.0328831,1.161875,-0.005235763,-0.145717,1.385954,-0.005751164,-0.4498527,1.364941,-0.1691631,0.02246917,1.35752,-0.08356483,-0.4408145,1.341499,-0.2010863,-0.2331934,1.344841,0.104627,-0.02551421,1.147836,NA,NA,NotTracked,Unknown,
-0.9536133,0.2294922,0.1962891,0.2895508,0.8168945,-0.2451172,-1,-2,-2,0,-2,0,2,-2,-17,14,11,7,16,14,4,-28,3.875,3.875,3.875,-23.125,-23.125,-23.125,6.425424,7.054984,7.280097,7.621256,5.146236,7.337153,-0.182816,-0.4726755,1.290986,-0.2105682,0.05915745,1.138709,0.004597484,0.294185,1.368336,-0.1366037,-0.4315763,1.262433,-0.2394421,-0.00277557,1.167176,-0.005124332,-0.145829,1.386257,-0.005994152,-0.4511348,1.365334,-0.1699848,0.01826089,1.356883,-0.08425754,-0.4427974,1.343335,-0.1996093,-0.2251084,1.347691,0.09229139,-0.01807782,1.144738,NA,NA,NotTracked,Unknown,
-0.9677734,0.2397461,0.1894531,0.1904297,0.7998047,-0.1850586,-2,0,-1,0,-2,2,3,3,5,-9,-3,-13,-32,-8,-6,26,6.3125,6.3125,6.3125,10.8125,10.8125,10.8125,6.431388,7.056813,7.282618,7.639138,5.138064,7.327779,-0.1826905,-0.4726584,1.290415,-0.2421098,0.08154795,1.150323,0.00549162,0.2941575,1.369015,-0.1340569,-0.4699275,1.267308,-0.2486063,0.03704992,1.148167,-0.004968153,-0.1459401,1.386612,-0.006050567,-0.4519914,1.365753,-0.1708429,0.01440869,1.355983,-0.08444016,-0.4438076,1.343938,-0.1983027,-0.222667,1.348889,0.09017964,-0.02075054,1.137739,NA,NA,NotTracked,Unknown,
-0.9624023,0.2324219,0.1157227,0.0625,0.9306641,-0.03857422,0,-3,-1,-2,0,-2,0,0,-1,-1,-5,-12,-62,-1,9,9,8,8,8,6.1875,6.1875,6.1875,6.519616,7.052987,7.333539,7.660233,5.037795,7.26135,-0.182454,-0.4731538,1.290404,-0.2230368,0.06969427,1.15396,0.006851296,0.2939877,1.369563,-0.1357091,-0.4313932,1.264204,-0.2261392,0.02578905,1.142148,-0.004473694,-0.1461653,1.386904,-0.005379409,-0.4528936,1.365934,-0.1706712,0.005754869,1.352421,-0.08379154,-0.4448142,1.343814,-0.1982387,-0.2226151,1.348932,0.1041911,-0.0258821,1.137232,NA,NA,NotTracked,Open,
-0.9628906,0.2275391,0.1455078,0.1625977,0.9765625,0.05078125,0,-2,-1,-1,1,-1,-1,0,-29,-21,-4,-16,-35,-10,-7,-22,-0.0625,-0.0625,-0.0625,-6.5,-6.5,-6.5,6.529627,7.056318,7.334061,7.647635,4.959262,7.154237,-0.1826635,-0.4730112,1.289664,-0.1768562,0.04035076,1.15036,0.007908198,0.2938114,1.369857,-0.1355181,-0.4308025,1.26293,-0.1461151,-0.01788798,1.15825,-0.003827182,-0.1466072,1.387242,-0.004280635,-0.4542909,1.366092,-0.1689571,0.0004161464,1.348559,-0.08252977,-0.4464448,1.342393,-0.1979426,-0.2229218,1.348886,0.159333,-0.04411482,1.141917,NA,NA,NotTracked,Open,
-0.9838867,0.2055664,0.1494141,0.1171875,1.052734,0.1225586,-1,-1,-1,0,-3,-1,-1,-2,-23,20,31,23,7,6,12,7,6.875,6.875,6.875,-43,-43,-43,6.515676,7.06415,7.313028,7.591928,4.886719,7.002406,-0.183806,-0.4728881,1.289758,-0.07490912,0.00365987,1.135135,0.00865419,0.2937203,1.370182,-0.1342445,-0.4648937,1.265549,-0.07286809,-0.04774432,1.186333,-0.003316939,-0.1471056,1.387665,-0.003619277,-0.4549411,1.366313,-0.1674111,0.0006282965,1.346235,-0.0818031,-0.4469732,1.341493,-0.1981596,-0.224594,1.348671,0.1966844,-0.05579695,1.156267,NA,NA,Unknown,Unknown,
-0.9750977,0.2207031,0.1303711,-0.01953125,1.096191,0.2949219,1,0,0,1,-1,1,2,-1,30,-10,-18,-46,-85,-14,15,15,-0.375,-0.375,-0.375,-36.5,-36.5,-36.5,6.525054,7.057973,7.315994,7.539181,4.825642,6.796966,-0.1843196,-0.4724427,1.288216,0.007354346,-0.01945511,1.129164,0.008770284,0.293703,1.370228,-0.1363096,-0.4294192,1.261231,-0.02434801,-0.05525213,1.1726,-0.003114746,-0.147413,1.387883,-0.0035478,-0.4550087,1.366376,-0.1675001,0.002723674,1.347341,-0.08166888,-0.4469573,1.341092,-0.1984685,-0.2254397,1.348548,0.2685617,-0.06079926,1.196206,NA,NA,Unknown,Unknown,
-0.980957,0.2026367,0.1411133,-0.2338867,1.165039,0.4736328,-1,-1,-1,-3,-3,0,-2,0,53,3,-3,-30,-58,-8,-6,18,-6.9375,-6.9375,-6.9375,-61.625,-61.625,-61.625,6.535832,7.051712,7.334999,7.44173,4.809706,6.402144,-0.1857597,-0.4728206,1.288445,0.06101117,-0.02557623,1.137634,0.008802418,0.29365,1.370184,-0.1357273,-0.4643449,1.264171,0.01180333,-0.05863759,1.166,-0.003202683,-0.1475714,1.387985,-0.003771015,-0.4550541,1.366472,-0.1674221,0.003382573,1.348175,-0.08195502,-0.4468602,1.340778,-0.1988853,-0.2261485,1.348414,0.2969465,-0.06642493,1.229799,NA,NA,NotTracked,Unknown,
-0.9887695,0.2167969,0.1381836,-0.300293,1.06543,0.3754883,-1,-3,-2,-3,1,-1,0,0,-9,-15,-21,-18,32,10,-7,-19,-22.25,-22.25,-22.25,-29.5,-29.5,-29.5,6.54239,7.047132,7.369038,7.403346,4.874678,6.012078,-0.1866923,-0.4725357,1.287967,0.1099222,-0.008697878,1.141755,0.008527394,0.2934515,1.36948,-0.1370484,-0.4421258,1.260349,0.08173434,-0.04280601,1.165455,-0.003296044,-0.1476435,1.38786,-0.004130267,-0.4549009,1.366397,-0.1680553,0.003761241,1.349484,-0.0823169,-0.4465756,1.340649,-0.1994921,-0.2338068,1.348249,0.3097562,-0.07009061,1.25672,NA,NA,NotTracked,Unknown,
-0.9501953,0.2119141,0.1865234,-0.2924805,0.9736328,0.34375,0,-1,0,0,5,6,2,0,59,33,-1,11,-15,4,22,60,-25.5,-25.5,-25.5,34.375,34.375,34.375,6.529549,7.045065,7.403111,7.437118,4.975888,5.635554,-0.1879632,-0.4730025,1.290239,0.1444483,0.0203516,1.140531,0.008295124,0.2931225,1.367718,-0.1388922,-0.4316569,1.260156,0.1295795,-0.0006456304,1.128,-0.003346029,-0.1476203,1.387435,-0.004948887,-0.4544796,1.366277,-0.1669832,0.009055571,1.353153,-0.08316904,-0.4458266,1.340341,-0.2005311,-0.2324374,1.348952,0.3254178,-0.08323185,1.309681,NA,NA,NotTracked,Unknown,
-0.9589844,0.2431641,0.1801758,-0.3212891,0.9443359,0.1689453,1,0,-1,-2,-2,-5,0,-2,-86,-32,-7,-20,-48,-19,-40,-83,-15.625,-15.625,-15.625,37.875,37.875,37.875,6.53197,7.049803,7.426114,7.503369,5.077409,5.304944,-0.1901716,-0.4719868,1.292507,0.2353368,0.005677937,1.161925,0.009086883,0.2931468,1.3659,-0.1399358,-0.4376088,1.261851,0.1975572,-0.01997396,1.165091,-0.003362147,-0.1476039,1.386913,-0.005511214,-0.4542089,1.366113,-0.1660062,0.01130035,1.354605,-0.08383981,-0.4451713,1.339641,-0.2014005,-0.2316669,1.349975,0.3203978,-0.07855974,1.306897,NA,NA,NotTracked,Unknown,
-0.9609375,0.25,0.1518555,-0.3818359,0.9145508,0.1577148,1,-1,-1,0,-1,0,0,-2,-57,-28,2,65,21,1,1,-6,0.3125,0.3125,0.3125,31.75,31.75,31.75,6.562317,7.058784,7.477817,7.525541,5.136779,5.202686,-0.191245,-0.4709354,1.292978,0.2544308,0.00984364,1.173355,0.0100615,0.2929927,1.364262,-0.1391032,-0.4465095,1.262522,0.2390104,-0.01645587,1.161914,-0.003248615,-0.147609,1.386327,-0.00594811,-0.4539968,1.365942,-0.1655128,0.01201673,1.355011,-0.08428747,-0.444631,1.338973,-0.2016837,-0.231473,1.3503,0.3236758,-0.07845224,1.335738,NA,NA,NotTracked,Unknown,
-0.9560547,0.2285156,0.1782227,-0.2431641,0.9375,0.09033203,-1,-2,-2,-1,-1,1,-1,3,-59,8,-4,-7,-4,-3,17,-44,9.75,9.75,9.75,6.4375,6.4375,6.4375,6.56729,7.056545,7.473512,7.540779,5.163867,5.167536,-0.1911737,-0.4703895,1.290508,0.263129,0.008169999,1.179434,0.01136208,0.2928592,1.362969,-0.1395033,-0.4552393,1.263305,0.2328575,-0.01930803,1.177667,-0.002957948,-0.1476294,1.385799,-0.006137905,-0.4538039,1.36561,-0.1648795,0.01259373,1.354918,-0.08446263,-0.4440772,1.337926,-0.2018033,-0.2312994,1.350314,0.3249994,-0.07736792,1.351428,NA,NA,NotTracked,Open,
-0.9741211,0.2202148,0.1235352,-0.1655273,0.9741211,0.04541016,-1,-1,0,0,-3,0,-4,-1,-29,-10,7,45,25,5,28,10,21.75,21.75,21.75,-2.75,-2.75,-2.75,6.581493,7.051785,7.441556,7.536232,5.17445,5.166483,-0.1904207,-0.4700377,1.287563,0.263215,0.007888548,1.181341,0.01240041,0.2927067,1.362376,-0.1404681,-0.4611141,1.264396,0.2204221,-0.01362927,1.1714,-0.002436159,-0.1475874,1.385357,-0.00596288,-0.4536166,1.365391,-0.1646899,0.01161827,1.354207,-0.08405662,-0.4437535,1.337112,-0.2017524,-0.2310381,1.350103,0.350457,-0.1088406,1.404219,NA,NA,NotTracked,Unknown,
-0.96875,0.2036133,0.1162109,-0.1279297,0.9863281,0.02197266,-1,-2,-1,-2,-3,-1,-2,1,4,-19,-14,-16,-3,6,14,14,13.75,13.75,13.75,0.875,0.875,0.875,6.582337,7.048997,7.412877,7.530077,5.182452,5.170651,-0.1889878,-0.4692608,1.28608,0.2583354,0.009712622,1.181163,0.0132781,0.2925277,1.361844,-0.139634,-0.4654981,1.263884,0.2359404,-0.01781078,1.170755,-0.002069277,-0.1475748,1.385103,-0.005809186,-0.4534559,1.365191,-0.1640254,0.0122308,1.354303,-0.08374722,-0.4433772,1.336401,-0.2014874,-0.2305503,1.349468,0.3551793,-0.1079966,1.391916,NA,NA,NotTracked,Unknown,
-0.9741211,0.2080078,0.1191406,-0.1489258,0.9970703,0.04248047,-1,-1,-1,-1,0,4,2,1,-7,-12,-17,-38,-42,-22,-4,-20,-0.375,-0.375,-0.375,-1.25,-1.25,-1.25,6.573792,7.051105,7.396545,7.521802,5.187309,5.168567,-0.188619,-0.4690777,1.28661,0.2608852,0.00946582,1.183501,0.01387855,0.2924642,1.361833,-0.1405979,-0.4443343,1.263132,0.2355347,-0.01792282,1.172268,-0.001664286,-0.1475877,1.384885,-0.005524561,-0.4533187,1.365012,-0.1631002,0.01317596,1.354754,-0.08333471,-0.4431058,1.33594,-0.2009636,-0.2302099,1.349033,0.361518,-0.107536,1.380776,NA,NA,NotTracked,Unknown,
-0.9799805,0.2265625,0.1206055,-0.1411133,0.9770508,0.0546875,-1,-3,-1,-1,0,-3,0,2,15,-8,-6,-23,-30,-11,-7,13,-8.6875,-8.6875,-8.6875,-4.0625,-4.0625,-4.0625,6.567434,7.057114,7.398298,7.507445,5.195905,5.15991,-0.1882219,-0.4697272,1.289236,0.2615536,0.009538897,1.184448,0.01439015,0.2923456,1.361912,-0.1402963,-0.4387596,1.263,0.2279644,-0.01563734,1.171191,-0.001271964,-0.1476218,1.384884,-0.005397189,-0.4532517,1.36498,-0.1625581,0.01368035,1.355324,-0.08318573,-0.4429935,1.335868,-0.2006808,-0.2300247,1.349028,0.3618124,-0.1070489,1.381197,NA,NA,NotTracked,Unknown,
-0.9736328,0.2270508,0.1420898,-0.1411133,0.96875,0.06298828,0,0,-1,0,-4,-2,-1,-5,-4,6,3,0,7,-1,-10,1,-16.4375,-16.4375,-16.4375,-4.875,-4.875,-4.875,6.561054,7.057578,7.417875,7.493742,5.203034,5.148182,-0.188645,-0.4696528,1.289987,0.260143,0.008989933,1.185269,0.01505975,0.2923715,1.362157,-0.1414709,-0.4256992,1.263436,0.2413564,-0.01967938,1.176391,-0.001062202,-0.1476255,1.384916,-0.005246322,-0.4531499,1.364983,-0.161671,0.01436097,1.355832,-0.08300923,-0.442838,1.335831,-0.2003419,-0.2295377,1.349259,0.3614268,-0.1302297,1.421179,NA,NA,NotTracked,Unknown,
-0.9702148,0.2304688,0.1591797,-0.1308594,0.949707,0.09667969,1,-1,-1,-1,-2,-2,-1,-2,1,7,8,-9,5,2,-9,8,-7.0625,-7.0625,-7.0625,-8.625,-8.625,-8.625,6.558539,7.055548,7.434034,7.473232,5.198699,5.131885,-0.1886109,-0.4700686,1.291315,0.2621851,0.006327857,1.186417,0.01578353,0.2921822,1.362419,-0.1407182,-0.4278668,1.2644,0.2187485,-0.0154299,1.172417,-0.0004593151,-0.1476977,1.38509,-0.00496849,-0.4530833,1.365088,-0.1611025,0.0146135,1.356444,-0.08273186,-0.4427401,1.335909,-0.200023,-0.2293441,1.349733,0.3518079,-0.1132858,1.389459,NA,NA,NotTracked,Unknown,
-0.9643555,0.2373047,0.1450195,-0.08789063,0.9389648,0.1245117,-2,-1,0,-1,-2,-1,-1,-3,6,-8,-2,-5,-6,-10,-2,15,7.0625,7.0625,7.0625,-21,-21,-21,6.584692,7.050895,7.451737,7.424394,5.178432,5.098719,-0.1884436,-0.4704873,1.291399,0.2543104,0.003414545,1.185247,0.01646941,0.2920535,1.362553,-0.1396187,-0.4603489,1.266818,0.2027333,-0.0142228,1.1688,4.338821E-05,-0.1477406,1.385307,-0.004660992,-0.4530117,1.365213,-0.1606743,0.01484692,1.356792,-0.08242469,-0.4426659,1.335972,-0.1997917,-0.229268,1.35007,0.3516723,-0.1137321,1.388631,NA,NA,NotTracked,Unknown,
-0.9697266,0.2407227,0.1313477,-0.02832031,0.8139648,0.1826172,0,-1,-1,-1,-1,-1,-2,-3,-4,-11,-9,-12,-2,7,25,-10,2.6875,2.6875,2.6875,-23.0625,-23.0625,-23.0625,6.606204,7.049636,7.463211,7.374239,5.118381,5.071543,-0.1881365,-0.4695633,1.290868,0.2593043,-0.01464545,1.184635,0.01731855,0.2920002,1.362797,-0.1406543,-0.4241457,1.263781,0.1868078,-0.02208719,1.173375,0.0004939824,-0.1477647,1.385437,-0.00434538,-0.4530107,1.365355,-0.1600507,0.01502169,1.357212,-0.08211157,-0.4426635,1.336126,-0.1996979,-0.2290217,1.350398,0.3516616,-0.1166181,1.389921,NA,NA,NotTracked,Unknown,
-0.9663086,0.2265625,0.1303711,0.152832,0.7641602,0.3408203,3,0,0,0,1,-1,-8,-14,-6,-4,-5,-9,-10,-2,12,-2,-2.625,-2.625,-2.625,-61.875,-61.875,-61.875,6.609343,7.04967,7.468933,7.236392,4.841439,5.077506,-0.1879906,-0.4696752,1.292287,0.2655619,-0.04893853,1.181121,0.01780231,0.2920044,1.363121,-0.1400182,-0.4347673,1.266482,0.2099144,-0.04327952,1.1797,0.0009089538,-0.1478104,1.385733,-0.004094071,-0.4530635,1.365556,-0.1607147,0.0130087,1.357083,-0.08182283,-0.4427539,1.336395,-0.1993895,-0.2288618,1.350974,0.3252526,-0.1122938,1.376623,NA,NA,NotTracked,Unknown,
-0.9726563,0.2236328,0.140625,0.1054688,0.7807617,0.2041016,-1,-1,0,-1,-1,-2,-1,1,-3,-4,-2,-3,3,-4,-15,6,-5.625,-5.625,-5.625,-53.625,-53.625,-53.625,6.601758,7.050364,7.468954,7.131552,4.554379,5.109839,-0.1873059,-0.4699686,1.292721,0.266765,-0.1131319,1.173619,0.01799783,0.2919087,1.36331,-0.1393883,-0.4320701,1.266128,0.2296924,-0.1257657,1.174125,0.00130656,-0.1477641,1.385999,-0.003875384,-0.4529328,1.365772,-0.1600823,0.01386745,1.358635,-0.08151671,-0.4424582,1.336816,-0.1990889,-0.2284981,1.351424,0.3306234,-0.1334816,1.390619,NA,NA,NotTracked,Closed,
-0.9663086,0.2338867,0.1420898,0.2138672,0.7133789,0.2412109,0,-1,-1,-2,-2,0,-2,1,10,15,16,7,1,2,1,25,-16.5625,-16.5625,-16.5625,-37.5625,-37.5625,-37.5625,6.573823,7.049904,7.469989,7.054317,4.1772,5.142832,-0.1873683,-0.4704877,1.293756,0.2602177,-0.1988593,1.191744,0.01809792,0.2917981,1.363484,-0.1388596,-0.44948,1.26826,0.2206346,-0.2065006,1.187833,0.001847958,-0.14785,1.386298,-0.003697181,-0.4530179,1.365936,-0.1607428,0.01230768,1.358901,-0.08129702,-0.4425245,1.337055,-0.1986927,-0.2286084,1.352212,0.3285322,-0.08636736,1.427848,NA,NA,NotTracked,Closed,
-0.9677734,0.2299805,0.1601563,0.6005859,0.5947266,0.3676758,-2,0,0,-2,-2,-1,-2,0,-2,0,2,-3,-3,-5,-3,-6,-17.25,-17.25,-17.25,14,14,14,6.546194,7.047293,7.469421,7.056068,3.774921,5.153702,-0.1867868,-0.4700979,1.293434,0.2535145,-0.2984908,1.223209,0.01809206,0.2917245,1.363544,-0.1397707,-0.4257542,1.266629,0.2183274,-0.3215575,1.211125,0.002175106,-0.1479421,1.386477,-0.003535441,-0.4531387,1.366087,-0.1601722,0.01306917,1.36029,-0.08116949,-0.4426143,1.337166,-0.1981346,-0.2291108,1.353179,0.2790855,-0.152785,1.42516,NA,NA,NotTracked,Closed,
-0.9545898,0.2436523,0.1533203,1.604004,0.7021484,0.1166992,-2,0,-1,-1,-1,-1,0,2,2,-12,-4,-2,-1,0,12,8,-10.4375,-10.4375,-10.4375,-13.5,-13.5,-13.5,6.522038,7.042004,7.465185,7.224151,3.308574,5.008206,-0.1855724,-0.4701523,1.293272,0.2315314,-0.3957478,1.28183,0.01802289,0.2916017,1.363639,-0.1396777,-0.4249017,1.266763,0.1994881,-0.4359871,1.322651,0.002670023,-0.1482752,1.38682,-0.00292358,-0.4536254,1.366467,-0.1609376,0.01170536,1.360402,-0.08068786,-0.4430231,1.337401,-0.197517,-0.2292966,1.35397,0.2703899,-0.1718027,1.422351,NA,NA,NotTracked,NotTracked,
-0.9814453,0.2304688,0.1547852,1.07373,0.4760742,0.1992188,-1,0,0,-1,-3,-2,-3,0,4,-4,-4,-2,-1,-1,-2,-8,7.625,7.625,7.625,-30.1875,-30.1875,-30.1875,6.526893,7.035087,7.470668,7.344601,3.062183,4.808446,-0.1853894,-0.4696507,1.293204,0.2364324,-0.4414286,1.310633,0.01816117,0.2913246,1.363925,-0.1393154,-0.4339199,1.26732,0.2047032,-0.4318415,1.327535,0.003550411,-0.148736,1.387448,-0.001915559,-0.4542882,1.366957,-0.1603221,0.01223578,1.361573,-0.07990461,-0.4434825,1.337491,-0.1972544,-0.2296253,1.354498,0.2557769,-0.2003835,1.414426,NA,NA,NotTracked,NotTracked,
-0.9707031,0.2426758,0.1582031,1.210449,0.1616211,-0.2138672,-2,-1,-2,-2,-2,-3,-4,-2,-5,-4,-3,-4,-2,-4,3,11,7.4375,7.4375,7.4375,-21.4375,-21.4375,-21.4375,6.557577,7.030147,7.487333,7.623233,2.908075,4.479943,-0.1853857,-0.4693849,1.293003,0.2283074,-0.4669634,1.334458,0.01855916,0.2910547,1.364299,-0.1389979,-0.4293662,1.26724,0.1832937,-0.4396886,1.297029,0.005076915,-0.149399,1.388136,-1.788452E-06,-0.4553581,1.36778,-0.1597054,0.01230537,1.362222,-0.07816669,-0.444454,1.33782,-0.197036,-0.2299588,1.354665,0.2378032,-0.2270028,1.401338,NA,NA,NotTracked,NotTracked,
-1.008301,0.2529297,0.1245117,0.9975586,0.3066406,-0.1889648,-2,-2,0,-2,-1,1,0,-1,-2,0,0,-1,2,2,-5,-21,5.8125,5.8125,5.8125,42.9375,42.9375,42.9375,6.599391,7.035933,7.496762,7.821742,2.874581,4.295045,-0.1847602,-0.4670717,1.293337,0.2205955,-0.4756509,1.337339,0.01951919,0.2907044,1.36489,-0.1380352,-0.4232431,1.267098,0.1810289,-0.4468923,1.295833,0.007249315,-0.1501885,1.389054,0.003652937,-0.4566784,1.368786,-0.160909,0.009529039,1.360137,-0.07453816,-0.4460208,1.337958,-0.1967681,-0.2301359,1.354796,0.2292162,-0.2357356,1.395709,NA,NA,NotTracked,NotTracked,
-1.009766,0.2700195,0.1118164,0.8579102,0.3120117,0.01220703,-1,-2,-2,-2,-1,-1,-2,-1,-3,-4,-2,1,0,0,0,-10,-6,-6,-6,19.0625,19.0625,19.0625,6.603311,7.03708,7.503827,7.684797,2.899956,4.463988,-0.1844307,-0.4667497,1.29356,0.2147867,-0.4742599,1.330739,0.02077563,0.2903265,1.364911,-0.137845,-0.4201953,1.267128,0.1806138,-0.4297242,1.293913,0.008461189,-0.1503093,1.389286,0.004903653,-0.4566109,1.369098,-0.1586287,0.01151345,1.360653,-0.07332267,-0.4458585,1.337848,-0.1965257,-0.2298064,1.354942,0.2267029,-0.2354888,1.394038,NA,NA,NotTracked,NotTracked,
-0.9438477,0.2631836,0.1743164,0.9453125,0.2177734,0.04394531,-1,0,0,1,-1,-1,-1,-1,-1,-4,-3,-2,1,-1,-3,-1,8.5625,8.5625,8.5625,37.375,37.375,37.375,6.527378,7.054193,7.444668,7.755572,2.9111,4.442214,-0.1848261,-0.4672157,1.294448,0.2165724,-0.4733848,1.328398,0.02162123,0.2899834,1.364795,-0.1370045,-0.4519633,1.268821,0.1800385,-0.4379762,1.294096,0.009167369,-0.1503776,1.389428,0.005855733,-0.456407,1.369432,-0.1579789,0.01222237,1.360758,-0.07237978,-0.445613,1.337752,-0.1964273,-0.2297437,1.354935,0.2255794,-0.2351355,1.392259,NA,NA,NotTracked,NotTracked,
