ALX,ALY,ALZ,ARX,ARY,ARZ,EMG0L,EMG1L,EMG2L,EMG3L,EMG4L,EMG5L,EMG6L,EMG7L,EMG0R,EMG1R,EMG2R,EMG3R,EMG4R,EMG5R,EMG6R,EMG7R,GLX,GLY,GLZ,GRX,GRY,GRZ,ORL,OPL,OYL,ORR,OPR,OYR,LHNX,LHNY,LHNZ,RHNX,RHNY,RHNZ,HX,HY,HZ,LTX,LTY,LTZ,RTX,RTY,RTZ,SpineMidX,SpineMidY,SpineMidZ,SpineBaseX,SpineBaseY,SpineBaseZ,ShoulderLeftX,ShoulderLeftY,ShoulderLeftZ,ShoulderRightX,ShoulderRightY,ShoulderRightZ,ElbowLeftX,ElbowLeftY,ElbowLeftZ,ElbowRightX,ElbowRightY,ElbowRightZ,Myo_Pose_left,Myo_Pose_Right,Kinect_pose_left,Kinect_pose_right
-0.9760742,0.2158203,0.137207,0.9243164,0.293457,0.04199219,-2,-2,1,-1,-2,-3,0,-4,-5,-2,4,0,-1,-4,-4,-8,-1.3125,-1.3125,-1.3125,-1.125,-1.125,-1.125,6.536344,7.076955,9.284647,7.432267,2.980434,1.443433,-0.1928652,-0.4708656,1.302456,0.2189396,-0.4564328,1.295457,0.02013028,0.2882026,1.349291,-0.1436387,-0.4465479,1.271406,0.1776123,-0.417658,1.270194,0.01261645,-0.1509874,1.378315,0.01233135,-0.4566891,1.359538,-0.1573557,0.01614622,1.360434,-0.0664216,-0.4466117,1.327133,-0.1953583,-0.2375073,1.359838,0.2307218,-0.2279076,1.365814,NA,NA,NotTracked,NotTracked,
-0.9682617,0.2094727,0.1391602,0.9379883,0.2875977,0.03125,6,-2,-2,-2,1,-2,-14,-33,-5,0,-1,-1,-1,-3,-3,-7,1.5625,1.5625,1.5625,-3.875,-3.875,-3.875,6.530854,7.075392,9.278674,7.430426,2.982638,1.439434,-0.1925682,-0.4706376,1.301651,0.2188243,-0.4561597,1.29468,0.01987122,0.2881833,1.349445,-0.162054,-0.4966602,1.31505,0.1779033,-0.4305934,1.270342,0.01242291,-0.1510514,1.378355,0.01226164,-0.4567512,1.359545,-0.1573912,0.01611677,1.360256,-0.06650895,-0.4466989,1.327103,-0.1954637,-0.2374756,1.35982,0.2305035,-0.2279762,1.365876,NA,NA,NotTracked,NotTracked,
-0.9716797,0.2207031,0.137207,0.921875,0.2910156,0.04785156,-1,-1,0,1,1,0,-9,3,-1,-2,-1,-2,-3,-3,5,0,1.125,1.125,1.125,-0.0625,-0.0625,-0.0625,6.53091,7.073692,9.276613,7.418487,2.983876,1.448247,-0.1922983,-0.4707242,1.300251,0.2187016,-0.455435,1.293598,0.01970883,0.2882138,1.349437,-0.1619127,-0.4969864,1.313971,0.1769865,-0.4357056,1.269539,0.01232909,-0.1510496,1.378315,0.01216017,-0.456774,1.359498,-0.1575295,0.01612358,1.360164,-0.06660609,-0.4467147,1.327062,-0.1955795,-0.2375732,1.359686,0.2303026,-0.2278519,1.365871,NA,NA,NotTracked,NotTracked,
-0.965332,0.2207031,0.1479492,0.9296875,0.2910156,0.05322266,2,-2,-2,1,-2,-2,3,2,5,2,4,2,0,2,8,10,-0.5625,-0.5625,-0.5625,1.9375,1.9375,1.9375,6.529916,7.070093,9.272511,7.405876,2.984774,1.462077,-0.1928005,-0.4705552,1.301119,0.2181893,-0.4555188,1.294233,0.0195054,0.2882343,1.349625,-0.1436174,-0.429762,1.268895,0.175967,-0.4312496,1.26921,0.01210781,-0.1510593,1.378337,0.01190221,-0.4568241,1.359467,-0.157638,0.01613807,1.36015,-0.06686996,-0.4467641,1.326984,-0.1956604,-0.2376777,1.359611,0.2301746,-0.2277336,1.365979,NA,NA,NotTracked,NotTracked,
-0.9736328,0.2075195,0.1274414,0.9316406,0.2895508,0.04003906,1,-1,-2,-3,-1,-1,0,5,-3,1,1,-3,-1,-1,2,2,1.125,1.125,1.125,-0.5625,-0.5625,-0.5625,6.534579,7.071218,9.277555,7.40071,2.984832,1.466483,-0.1925149,-0.4708288,1.301143,0.2176969,-0.4555347,1.294152,0.01933275,0.2882732,1.34967,-0.1437074,-0.4457167,1.271916,0.1759755,-0.4311512,1.269305,0.01190996,-0.1510876,1.378398,0.01178226,-0.4568723,1.359462,-0.1577933,0.01603264,1.360216,-0.06698632,-0.4468171,1.326954,-0.1957512,-0.2378757,1.359531,0.229912,-0.2277876,1.366138,NA,NA,NotTracked,NotTracked,
-0.9755859,0.2075195,0.1289063,0.9560547,0.3256836,0.004394531,-8,-2,-7,-9,-1,-4,3,1,-4,-7,8,-5,-5,-1,-2,-4,-2.75,-2.75,-2.75,-5.125,-5.125,-5.125,6.539518,7.073512,9.284334,7.387417,2.986502,1.477225,-0.1937384,-0.469367,1.301417,0.2171388,-0.4546547,1.293504,0.01916947,0.2883177,1.349746,-0.1623627,-0.4976228,1.316381,0.1757454,-0.4302818,1.268747,0.01182463,-0.1511105,1.378407,0.01170971,-0.4569051,1.359445,-0.1579109,0.01600737,1.36022,-0.06706452,-0.446863,1.32693,-0.1957713,-0.2379082,1.359464,0.2297991,-0.2279873,1.366099,NA,NA,NotTracked,NotTracked,
-1.050293,0.2836914,-0.04736328,1.062012,0.3798828,0.1005859,-6,-15,-12,8,-3,-3,-9,-11,-1,3,-5,-9,-5,-1,3,3,2.1875,2.1875,2.1875,-13.75,-13.75,-13.75,6.546269,7.066332,9.288758,7.164803,3.048275,1.649383,-0.1912854,-0.4693005,1.297989,0.2146096,-0.4508905,1.289302,0.01909467,0.2883501,1.349775,-0.1613449,-0.4985831,1.314796,0.1743387,-0.4625803,1.268254,0.011682,-0.1511622,1.378407,0.01159816,-0.4569805,1.359403,-0.1580551,0.01594252,1.360176,-0.06717999,-0.4469443,1.326874,-0.1959091,-0.2378523,1.359515,0.2298265,-0.2278429,1.366259,NA,NA,NotTracked,NotTracked,
-1.146973,0.2553711,0.1948242,0.9750977,0.5537109,0.2709961,-2,-4,13,8,17,-2,-4,2,1,6,0,-7,0,0,1,0,12.5625,12.5625,12.5625,36.625,36.625,36.625,6.360252,6.98055,9.092673,6.956837,3.212155,1.91196,-0.183567,-0.4545713,1.277816,0.205393,-0.4392614,1.268655,0.01899488,0.2883385,1.349777,-0.1496913,-0.493686,1.288238,0.1641911,-0.454805,1.256179,0.01160414,-0.1511805,1.378216,0.01149109,-0.4569829,1.35913,-0.1598368,0.01589223,1.363429,-0.06726515,-0.4469541,1.32675,-0.1968575,-0.2375021,1.360028,0.2316121,-0.2227392,1.367944,NA,NA,NotTracked,NotTracked,
-0.9521484,0.4614258,0.5678711,0.769043,0.6269531,0.3183594,4,-1,5,-2,-11,-4,-3,1,-6,6,-1,-9,28,3,4,-33,89.0625,89.0625,89.0625,71.6875,71.6875,71.6875,6.218538,6.674281,8.775828,6.837244,3.469339,2.152541,-0.1699491,-0.4189355,1.235521,0.190207,-0.4092583,1.23321,0.01895211,0.2883343,1.349789,-0.1335914,-0.4174291,1.25355,0.1514948,-0.4311404,1.2365,0.01158146,-0.1511863,1.378094,0.01150099,-0.4569576,1.358747,-0.159992,0.01601273,1.36353,-0.06729707,-0.4469563,1.326484,-0.2027051,-0.2263971,1.359136,0.235432,-0.2102202,1.368089,NA,NA,NotTracked,NotTracked,
-0.6650391,0.7060547,0.4848633,0.5424805,0.8632813,0.3129883,-5,16,35,14,8,2,18,5,-4,-15,4,-4,-5,0,-2,-28,121.9375,121.9375,121.9375,112.5625,112.5625,112.5625,6.29682,6.355374,8.6337,6.90231,3.905354,2.409642,-0.1413079,-0.371259,1.194948,0.1573239,-0.3668772,1.194841,0.01889168,0.2883468,1.349901,-0.0925931,-0.3761057,1.241225,0.1173807,-0.4020476,1.22916,0.01156027,-0.1511604,1.37802,0.01153486,-0.4567971,1.358193,-0.1601835,0.01621593,1.36371,-0.06730392,-0.4469141,1.326209,-0.2125521,-0.1958902,1.351075,0.241658,-0.1896924,1.360579,NA,NA,Closed,Closed,
-0.5571289,0.6889648,0.5014648,0.5268555,0.8813477,0.3969727,8,-3,3,1,7,1,6,1,-14,-31,-31,-13,-10,-5,-8,-5,120.125,120.125,120.125,91.3125,91.3125,91.3125,6.449989,5.89537,8.496461,6.983081,4.225919,2.553545,-0.1350285,-0.2967322,1.125085,0.1398349,-0.2933498,1.142281,0.01876571,0.2882884,1.350303,-0.1057819,-0.2799864,1.096444,0.1011248,-0.3080828,1.212067,0.01152114,-0.1511128,1.378073,0.01146408,-0.4565998,1.357775,-0.1603436,0.01636732,1.363752,-0.06729011,-0.4467906,1.325935,-0.2217345,-0.1836953,1.332892,0.2461042,-0.1729828,1.344279,NA,NA,Closed,Closed,
-0.5473633,0.7255859,0.6098633,0.3920898,0.8647461,0.3540039,4,11,18,11,7,2,-2,3,-2,-4,-10,1,-2,5,5,13,89.25,89.25,89.25,81.6875,81.6875,81.6875,6.581366,5.546769,8.415144,7.078998,4.542038,2.665411,-0.1155533,-0.2140619,1.091066,0.1151936,-0.2171646,1.105725,0.01844965,0.2883147,1.351142,-0.09764951,-0.1911938,1.0925,0.06909017,-0.2204583,1.193857,0.01141049,-0.150897,1.378419,0.01134836,-0.45626,1.357715,-0.1606051,0.01661023,1.364494,-0.06735962,-0.4464636,1.326029,-0.2382193,-0.1711186,1.296399,0.2607539,-0.1624034,1.321743,NA,NA,Unknown,Unknown,
-0.2211914,0.7490234,0.5131836,0.1743164,0.7592773,0.2875977,6,0,-9,-5,-3,2,5,11,-5,-21,-18,-16,-9,-3,-8,-2,80.0625,80.0625,80.0625,39.0625,39.0625,39.0625,6.696082,5.203644,8.322614,7.168268,4.915042,2.79671,-0.09375083,-0.1326405,1.079458,0.09509726,-0.1447962,1.097257,0.01819777,0.288395,1.352211,-0.1110145,-0.121741,1.044696,0.06168195,-0.165713,1.129177,0.01096016,-0.1500304,1.379368,0.01088791,-0.4547597,1.358247,-0.1602595,0.01788554,1.364627,-0.06772096,-0.4447355,1.326659,-0.2665806,-0.1434492,1.268154,0.2726975,-0.1488365,1.29873,NA,NA,Closed,NotTracked,
0.005859375,0.7431641,0.440918,0.05810547,0.7387695,0.2592773,8,9,-5,-2,-1,-6,-19,-9,8,-2,-4,-2,-4,1,11,6,50.5,50.5,50.5,17.625,17.625,17.625,6.829076,4.824457,8.18791,7.205406,5.114093,2.862147,-0.08070537,-0.0724174,1.080623,0.08437096,-0.08923658,1.101128,0.01773781,0.2885712,1.353187,-0.1044293,-0.06412582,1.048556,0.06695385,-0.1094694,1.184429,0.01082621,-0.1495685,1.380083,0.01074656,-0.4540433,1.358658,-0.1575715,0.02260627,1.359633,-0.06782863,-0.4439734,1.327262,-0.2617633,-0.1390892,1.260957,0.2766744,-0.1430599,1.290808,NA,NA,NotTracked,NotTracked,
0.07763672,0.6655273,0.378418,-0.05712891,0.7353516,0.2211914,-7,1,3,-1,-4,-5,-1,-5,3,19,18,5,-3,-4,10,10,15.0625,15.0625,15.0625,-5.25,-5.25,-5.25,6.876907,4.651138,8.118563,7.201725,5.201488,2.884542,-0.07589526,-0.04275235,1.08488,0.08228192,-0.0667774,1.107401,0.01727789,0.2887692,1.354084,-0.09947918,-0.03727952,1.053056,0.05936468,-0.08426053,1.170429,0.01071849,-0.1492891,1.380595,0.01074642,-0.4537197,1.358877,-0.1586656,0.02296212,1.361666,-0.06781413,-0.4437084,1.327464,-0.2856674,-0.1364894,1.274419,0.2737635,-0.1422217,1.282583,NA,NA,NotTracked,NotTracked,
0.1201172,0.6523438,0.3725586,-0.03710938,0.7416992,0.1855469,-6,-11,-6,-6,-16,-2,-5,-16,0,1,-6,-2,-10,-1,-10,-1,-8.5,-8.5,-8.5,-23.8125,-23.8125,-23.8125,6.86298,4.618842,8.115686,7.167214,5.152359,2.840345,-0.07412631,-0.05106406,1.080218,0.0837608,-0.07641368,1.106407,0.01695315,0.2889475,1.354485,-0.08899746,-0.06086722,1.039636,0.07831357,-0.07037995,1.197375,0.01070391,-0.1492026,1.380745,0.01072495,-0.453677,1.35889,-0.1591465,0.02300852,1.362366,-0.0678523,-0.4436555,1.327486,-0.2863668,-0.1361289,1.273952,0.2821603,-0.1424076,1.263958,NA,NA,NotTracked,NotTracked,
0.01171875,0.7519531,0.3730469,0.03320313,0.8657227,0.2695313,-8,-8,-4,3,8,-2,-13,-27,-1,-8,-1,-6,-6,1,12,-15,-41.5625,-41.5625,-41.5625,-53.3125,-53.3125,-53.3125,6.775818,4.80994,8.197398,7.060104,4.912278,2.729604,-0.08023292,-0.09593836,1.074837,0.08958523,-0.1181613,1.099679,0.01675563,0.2889477,1.354906,-0.102195,-0.1038916,1.0348,0.06752799,-0.108246,1.181125,0.01061988,-0.1491115,1.380835,0.01052132,-0.4534354,1.35887,-0.1580229,0.02441242,1.35982,-0.06805743,-0.4433614,1.327538,-0.2591585,-0.1326281,1.249476,0.3222166,-0.1562625,1.309631,NA,NA,NotTracked,NotTracked,
-0.09472656,0.7998047,0.4570313,0.1958008,0.8818359,0.3378906,3,14,34,29,15,14,31,8,-13,0,-8,-15,-3,-4,11,-41,-41,-41,-41,-42.0625,-42.0625,-42.0625,6.697902,5.077528,8.268018,6.994847,4.656292,2.627859,-0.09569273,-0.1660752,1.075507,0.1067031,-0.1792735,1.098817,0.01662838,0.288941,1.354992,-0.1197151,-0.1731483,1.0257,0.07274663,-0.1742953,1.183857,0.01053128,-0.1490524,1.3808,0.0102702,-0.4532651,1.358647,-0.157234,0.02360843,1.358225,-0.06831941,-0.4430887,1.327246,-0.2646384,-0.1391556,1.265877,0.3183422,-0.1529309,1.317742,NA,NA,NotTracked,Closed,
-0.2392578,0.7695313,0.4741211,0.3544922,0.9033203,0.3183594,-49,-27,-17,-14,-6,-6,-14,-99,-23,-12,3,0,-9,-3,-3,-60,-33.3125,-33.3125,-33.3125,-21.5,-21.5,-21.5,6.645752,5.399779,8.339093,6.962224,4.268288,2.48936,-0.1142609,-0.2431061,1.09165,0.1289546,-0.2486469,1.110327,0.01652127,0.2889607,1.354777,-0.137896,-0.2513675,1.040417,0.08892444,-0.2413015,1.204556,0.01044771,-0.1490536,1.380507,0.01013848,-0.4533372,1.358103,-0.1587311,0.02120967,1.359872,-0.06839959,-0.4431574,1.326816,-0.2925763,-0.1383662,1.324787,0.3023286,-0.1500232,1.324339,NA,NA,Closed,Closed,
-0.3808594,0.8735352,0.4916992,0.6523438,0.8530273,0.3081055,-6,-13,-22,-6,3,-4,2,-2,6,2,-2,2,0,-8,-15,36,-33.75,-33.75,-33.75,-33.875,-33.875,-33.875,6.602486,5.714258,8.390624,6.972598,3.983292,2.38128,-0.1370764,-0.3148829,1.117307,0.1509284,-0.3198794,1.114826,0.01640243,0.2890286,1.354516,-0.1592629,-0.321864,1.075619,0.1205085,-0.3249687,1.114875,0.01031586,-0.1492817,1.379491,0.01022481,-0.4540504,1.356295,-0.1601031,0.01977536,1.36162,-0.06825873,-0.4439907,1.325234,-0.2810109,-0.1501093,1.328179,0.2436104,-0.172792,1.336291,NA,NA,Closed,Closed,
-0.8071289,0.6938477,0.5175781,0.6762695,0.809082,0.3076172,2,-2,0,-7,-11,-2,8,-20,8,1,-21,-5,-3,-1,-15,20,-47.1875,-47.1875,-47.1875,-27.375,-27.375,-27.375,6.542662,6.130017,8.476472,6.986001,3.725228,2.283238,-0.1527474,-0.3720547,1.165721,0.1657904,-0.37493,1.162059,0.01636196,0.2890557,1.354092,-0.1080111,-0.3623405,1.24379,0.11889,-0.3832706,1.226548,0.01029892,-0.1495621,1.378482,0.01074046,-0.4546822,1.355148,-0.1613577,0.01825571,1.360298,-0.06782085,-0.444874,1.323995,-0.2311568,-0.1784674,1.323462,0.2437645,-0.1753237,1.339904,NA,NA,Closed,Closed,
-0.9091797,0.6000977,0.4013672,0.8735352,0.6831055,0.2294922,7,5,-4,3,5,-2,-10,-6,-6,-6,-3,-2,-3,-6,-9,-11,-58.4375,-58.4375,-58.4375,-37.6875,-37.6875,-37.6875,6.512797,6.385846,8.553292,7.037204,3.50307,2.117887,-0.1615032,-0.4112173,1.205994,0.1759171,-0.4100561,1.201834,0.01641349,0.2890227,1.35306,-0.117387,-0.403189,1.245737,0.1316153,-0.4257884,1.235222,0.01009889,-0.1499311,1.377288,0.01076753,-0.4551247,1.354315,-0.162351,0.01710603,1.361495,-0.06794636,-0.4453631,1.323017,-0.225879,-0.182752,1.329133,0.2433593,-0.1826592,1.344866,NA,NA,Closed,Closed,
-0.90625,0.5463867,0.3759766,0.8657227,0.5869141,0.2045898,22,23,23,8,2,-5,0,25,-2,-1,-3,-1,5,4,7,-4,-60.6875,-60.6875,-60.6875,-27.25,-27.25,-27.25,6.485458,6.589036,8.66464,7.053625,3.423924,2.023472,-0.1893019,-0.4240982,1.204155,0.186135,-0.422071,1.225611,0.01637165,0.2890257,1.35216,-0.151355,-0.4297697,1.17615,0.1456162,-0.4630642,1.242581,0.009971271,-0.1502772,1.37637,0.01074515,-0.4557416,1.353787,-0.1624234,0.01643439,1.360236,-0.06805914,-0.4459355,1.32223,-0.2221691,-0.1941742,1.333895,0.2416795,-0.193585,1.349868,NA,NA,Unknown,Unknown,
-0.8666992,0.5048828,0.3330078,0.7797852,0.5874023,0.2114258,-12,3,2,0,-8,0,9,-23,-3,0,-1,-1,1,-2,1,-10,-35.1875,-35.1875,-35.1875,-11.4375,-11.4375,-11.4375,6.470591,6.656005,8.725164,7.064901,3.398119,1.975755,-0.1937977,-0.4315617,1.216566,0.2140833,-0.4187163,1.215103,0.01642015,0.2889246,1.350869,-0.1551161,-0.4388988,1.19413,0.1749135,-0.4032063,1.254273,0.009643083,-0.1506278,1.375399,0.01037184,-0.4562403,1.353154,-0.1620038,0.0161562,1.35887,-0.06854343,-0.4463449,1.321311,-0.2189898,-0.2015356,1.337342,0.2409913,-0.1975357,1.353276,NA,NA,Unknown,Closed,
-0.8374023,0.4277344,0.3344727,0.7304688,0.5224609,0.1982422,-3,-6,-6,-4,-6,-2,-11,-12,-6,3,6,0,0,1,2,-4,-12,-12,-12,-16.125,-16.125,-16.125,6.45459,6.690098,8.753225,7.060245,3.390852,1.94615,-0.1950785,-0.4337799,1.225391,0.2156827,-0.4216811,1.219755,0.01645514,0.2888763,1.35026,-0.1574068,-0.4363033,1.200889,0.1810403,-0.418301,1.1947,0.009673594,-0.1509063,1.37483,0.01045932,-0.4566734,1.352796,-0.1619518,0.01586502,1.358456,-0.06850336,-0.4468133,1.320791,-0.216512,-0.206522,1.340042,0.2404281,-0.2001022,1.355811,NA,NA,Closed,NotTracked,
-0.8349609,0.4550781,0.2905273,0.8720703,0.5136719,0.1791992,5,1,-8,-4,-4,-2,-9,6,3,-4,-11,-1,-1,1,-1,7,-18.75,-18.75,-18.75,-7.8125,-7.8125,-7.8125,6.457943,6.703323,8.773272,7.055334,3.383677,1.916207,-0.1948967,-0.4373695,1.228578,0.2152892,-0.4252189,1.221923,0.01653771,0.2889707,1.349908,-0.1555538,-0.435946,1.212565,0.1767294,-0.4004731,1.261968,0.009652997,-0.1510398,1.37452,0.0104703,-0.4569743,1.352542,-0.1618593,0.01568591,1.358136,-0.06851015,-0.4471248,1.320384,-0.2130401,-0.2129761,1.341773,0.2389642,-0.2028198,1.357082,NA,NA,Unknown,NotTracked,
-0.9111328,0.4008789,0.2558594,0.8520508,0.5253906,0.1616211,2,-3,-2,1,-3,-5,-6,1,-2,7,-6,-7,-1,-3,1,-26,-19,-19,-19,-9.9375,-9.9375,-9.9375,6.431412,6.722126,8.810969,7.04868,3.388089,1.904329,-0.1932546,-0.4386114,1.228364,0.213981,-0.4242067,1.222806,0.0165708,0.2890134,1.34973,-0.1555655,-0.4364686,1.210975,0.1778646,-0.4054709,1.261773,0.009590838,-0.151141,1.374249,0.01042642,-0.4571814,1.352302,-0.1617067,0.01556825,1.357808,-0.06856667,-0.4473521,1.320029,-0.2096138,-0.2168687,1.342517,0.2372003,-0.205782,1.357926,NA,NA,Unknown,NotTracked,
-0.9223633,0.3793945,0.2666016,0.8413086,0.5053711,0.1489258,4,6,1,3,6,1,2,-5,-6,-1,-1,-8,-8,-2,0,-33,-1,-1,-1,5.9375,5.9375,5.9375,6.430557,6.719886,8.81971,7.051607,3.391516,1.892762,-0.1918811,-0.4379395,1.227356,0.2134448,-0.4239146,1.221642,0.01660335,0.2890356,1.349367,-0.1560755,-0.4355591,1.206064,0.1779042,-0.4054973,1.26182,0.00946807,-0.1513347,1.373934,0.01040948,-0.4575274,1.352099,-0.1616366,0.015045,1.357117,-0.0685916,-0.4476642,1.319794,-0.2074336,-0.2199053,1.342581,0.2357307,-0.2076801,1.358035,NA,NA,Unknown,NotTracked,
-0.8886719,0.3754883,0.2929688,0.8139648,0.4746094,0.1376953,3,1,2,0,0,-4,-10,6,-4,-7,-11,-10,-4,-3,-5,-46,1.125,1.125,1.125,6.0625,6.0625,6.0625,6.432813,6.707105,8.816838,7.062338,3.38836,1.890357,-0.1917772,-0.4373946,1.225645,0.2142331,-0.424012,1.220396,0.01648808,0.2889781,1.34901,-0.1565444,-0.4415152,1.197815,0.1764096,-0.4022248,1.262972,0.009419427,-0.1514236,1.373735,0.01041038,-0.4576294,1.351989,-0.1616013,0.01494725,1.356751,-0.06859595,-0.4477401,1.319734,-0.2066827,-0.2205548,1.342499,0.2348525,-0.2085792,1.357763,NA,NA,Unknown,NotTracked,
-0.8706055,0.378418,0.2817383,0.859375,0.4829102,0.1650391,-6,2,4,1,-2,1,4,-3,-6,-1,4,1,0,1,0,3,0.6875,0.6875,0.6875,6.5,6.5,6.5,6.432729,6.702975,8.815615,7.0833,3.379012,1.881346,-0.1918336,-0.4367847,1.223712,0.2150485,-0.4244898,1.220201,0.01643718,0.2889033,1.348817,-0.1520555,-0.4080931,1.262,0.1775041,-0.404687,1.261395,0.009326732,-0.1515162,1.373575,0.01037794,-0.4577749,1.351879,-0.1617383,0.01474279,1.35629,-0.06862696,-0.4478661,1.319647,-0.2059746,-0.2213396,1.342238,0.2345543,-0.2087635,1.357424,NA,NA,Unknown,NotTracked,
-0.8935547,0.3632813,0.2836914,0.8178711,0.4985352,0.1669922,-1,-1,5,4,-4,4,5,26,-9,-10,-10,-5,-4,0,-5,-28,1.0625,1.0625,1.0625,-2.4375,-2.4375,-2.4375,6.441229,6.707761,8.818139,7.094638,3.370821,1.876194,-0.1918091,-0.4377258,1.223887,0.2160981,-0.4250406,1.220515,0.01633174,0.2889346,1.348645,-0.1524054,-0.4061293,1.264875,0.1776444,-0.4050484,1.261731,0.009274618,-0.1515614,1.373465,0.01044834,-0.4578549,1.351772,-0.1617224,0.01459853,1.355947,-0.0685274,-0.4479783,1.319422,-0.2055969,-0.2218774,1.341902,0.2345557,-0.2087865,1.357029,NA,NA,Unknown,NotTracked,
-0.8935547,0.355957,0.2797852,0.8344727,0.4833984,0.1772461,-2,-1,-2,-2,1,0,5,-7,1,16,0,1,0,0,1,12,-3.6875,-3.6875,-3.6875,0.6875,0.6875,0.6875,6.446055,6.713972,8.827557,7.089718,3.363804,1.871821,-0.1929552,-0.4387869,1.224591,0.2167553,-0.4259391,1.220062,0.01608561,0.2888955,1.348346,-0.1520828,-0.4066116,1.262666,0.1778859,-0.4054228,1.261672,0.009176688,-0.1516439,1.373295,0.01043743,-0.4579319,1.351684,-0.1617416,0.01452738,1.355691,-0.06854365,-0.4480439,1.319358,-0.2053876,-0.2221778,1.34153,0.2345064,-0.2088159,1.356721,NA,NA,Unknown,NotTracked,
-0.8842773,0.3735352,0.2875977,0.8212891,0.4882813,0.1459961,-6,1,-5,-1,7,2,-1,-8,-2,-4,-5,-3,-1,-1,-2,-15,-1.6875,-1.6875,-1.6875,-5.8125,-5.8125,-5.8125,6.448798,6.718055,8.832445,7.089367,3.356186,1.863261,-0.1942929,-0.4407534,1.224562,0.216772,-0.4261328,1.222717,0.0159674,0.2888992,1.348246,-0.1561413,-0.4365387,1.210702,0.1778336,-0.4050477,1.26187,0.009105433,-0.1517431,1.373074,0.01047834,-0.4580986,1.351571,-0.1618943,0.01441906,1.355577,-0.06849182,-0.44825,1.31923,-0.2053377,-0.2224127,1.341328,0.2344762,-0.2091186,1.356449,NA,NA,Closed,NotTracked,
-0.894043,0.3691406,0.2758789,0.8237305,0.4936523,0.1518555,-4,-2,-1,-3,-4,-5,-1,-8,5,-3,-3,-3,1,1,4,20,-3.5625,-3.5625,-3.5625,-3.8125,-3.8125,-3.8125,6.451512,6.732233,8.850173,7.091762,3.347201,1.852051,-0.1953102,-0.4402645,1.22749,0.2180415,-0.4282085,1.22392,0.01574763,0.2888557,1.347835,-0.1532359,-0.410123,1.263468,0.1778034,-0.4058575,1.26163,0.009044454,-0.1517801,1.372992,0.01045189,-0.4581444,1.351542,-0.1620463,0.01424519,1.355398,-0.0685273,-0.4483026,1.319194,-0.2052046,-0.2229089,1.341081,0.2341955,-0.209408,1.356321,NA,NA,Unknown,NotTracked,
-0.8862305,0.3720703,0.2695313,0.8417969,0.4780273,0.1464844,-4,0,-1,-1,2,-3,-3,-8,2,2,-3,-3,0,0,4,3,-21.0625,-21.0625,-21.0625,-8.9375,-8.9375,-8.9375,6.445567,6.747605,8.877954,7.101734,3.324076,1.812168,-0.1966301,-0.442468,1.229333,0.2174156,-0.4304215,1.226299,0.01552895,0.2888418,1.347556,-0.1443119,-0.4002355,1.257889,0.1781977,-0.4048434,1.2625,0.008930177,-0.1519214,1.372715,0.01039477,-0.4583228,1.351392,-0.162144,0.01416848,1.35518,-0.06858014,-0.4484497,1.319078,-0.2050138,-0.2236134,1.340832,0.2336414,-0.2100018,1.356005,NA,NA,Unknown,NotTracked,
-0.894043,0.3691406,0.2744141,0.8369141,0.4560547,0.1196289,-2,-2,-3,-1,-3,-1,-1,-7,-2,-11,-4,-3,-4,1,1,7,-26.5,-26.5,-26.5,-17.0625,-17.0625,-17.0625,6.439039,6.766856,8.914041,7.118867,3.291704,1.768667,-0.199558,-0.446279,1.234546,0.2172726,-0.4355667,1.232705,0.01529055,0.2887695,1.347312,-0.1566761,-0.411,1.268125,0.1802273,-0.4062222,1.266228,0.008796452,-0.1519904,1.372585,0.01037599,-0.4583702,1.351384,-0.1621987,0.01396265,1.354922,-0.0685992,-0.4484875,1.319054,-0.2050847,-0.2240116,1.340585,0.2328826,-0.2108813,1.355319,NA,NA,Unknown,NotTracked,
-0.9057617,0.2871094,0.2426758,0.8623047,0.3618164,0.1313477,-4,0,-5,-3,-2,-4,-9,-8,1,2,-1,-3,-1,-1,3,-19,-44.5625,-44.5625,-44.5625,-13.125,-13.125,-13.125,6.408373,6.816639,8.985173,7.140488,3.236471,1.708838,-0.1996455,-0.4508999,1.243001,0.2175974,-0.4408168,1.243839,0.01513847,0.2887576,1.3471,-0.1447482,-0.4068696,1.258556,0.1802128,-0.4126703,1.266064,0.008735623,-0.15202,1.372537,0.01036943,-0.4584197,1.351377,-0.1622529,0.01392726,1.354726,-0.06859019,-0.448537,1.319017,-0.2050252,-0.2247612,1.340516,0.2313102,-0.2132901,1.354491,NA,NA,Unknown,NotTracked,
-0.9360352,0.2177734,0.21875,0.9311523,0.3886719,0.06298828,7,5,3,1,-1,1,0,3,-1,-2,-2,-2,1,-1,1,3,-27.6875,-27.6875,-27.6875,-11.125,-11.125,-11.125,6.405618,6.85819,9.022113,7.232971,3.158492,1.582373,-0.2003594,-0.4548362,1.253478,0.2192587,-0.4455337,1.25439,0.01494971,0.2887103,1.346628,-0.154151,-0.4182053,1.269965,0.1860363,-0.4290981,1.273584,0.008709538,-0.1520556,1.372457,0.01044502,-0.4585055,1.351363,-0.1621032,0.01405792,1.354381,-0.0684962,-0.4486523,1.318994,-0.2048794,-0.2253321,1.340526,0.2299433,-0.21535,1.353715,NA,NA,NotTracked,NotTracked,
-0.9741211,0.253418,0.2006836,0.9296875,0.3422852,0.05810547,9,7,2,2,0,0,-3,10,1,-9,-2,0,1,0,3,-5,-11.875,-11.875,-11.875,-14.375,-14.375,-14.375,6.454374,6.944643,9.107881,7.282917,3.110942,1.497936,-0.1991029,-0.4591457,1.26446,0.2195896,-0.449738,1.265003,0.01483645,0.288644,1.346311,-0.1574427,-0.4237317,1.274535,0.1864347,-0.4362543,1.274228,0.008602988,-0.1520587,1.372312,0.01043755,-0.4585051,1.351344,-0.1620661,0.0139658,1.353783,-0.06850098,-0.4486547,1.31896,-0.2042854,-0.2265602,1.340926,0.2290392,-0.2175546,1.353222,NA,NA,NotTracked,NotTracked,
-0.9658203,0.277832,0.171875,0.9160156,0.3686523,0.08105469,-7,-5,-1,0,-2,-3,-10,-10,-3,6,1,2,-2,0,3,-15,-23.125,-23.125,-23.125,0.8125,0.8125,0.8125,6.461144,6.987171,9.151467,7.354415,3.069347,1.423886,-0.1981054,-0.464019,1.27026,0.2206808,-0.4540367,1.27169,0.01464695,0.2885262,1.345907,-0.1714558,-0.4436933,1.294849,0.192549,-0.4574891,1.285089,0.00847471,-0.1521458,1.372061,0.01036085,-0.4585839,1.351299,-0.1618686,0.01390216,1.353127,-0.06859738,-0.4487383,1.318868,-0.2032065,-0.2305183,1.342279,0.2282642,-0.2209047,1.353402,NA,NA,NotTracked,NotTracked,
-0.9819336,0.2788086,0.1958008,0.9130859,0.3569336,0.06054688,9,0,-2,0,-1,0,7,9,-1,-1,-1,1,-2,-2,0,-14,-25.75,-25.75,-25.75,-3.5625,-3.5625,-3.5625,6.446405,7.009214,9.181141,7.381339,3.052445,1.38922,-0.1966866,-0.4654424,1.276562,0.2205644,-0.4560049,1.27676,0.01453858,0.2885064,1.3456,-0.1752226,-0.4491427,1.302944,0.1938678,-0.4579468,1.289877,0.008445055,-0.152154,1.371937,0.01041158,-0.4585799,1.351278,-0.1618727,0.01394002,1.353053,-0.06853681,-0.4487377,1.318763,-0.2025707,-0.2322097,1.343975,0.227804,-0.2222976,1.354476,NA,NA,NotTracked,NotTracked,
-0.9716797,0.2597656,0.1787109,0.9052734,0.3071289,0.05664063,-2,-4,-1,-1,1,-2,-2,-5,0,-1,-2,0,-1,-1,1,3,-22,-22,-22,-5.4375,-5.4375,-5.4375,6.414466,7.020813,9.188199,7.387556,3.034245,1.366856,-0.1949578,-0.4681287,1.281739,0.2205008,-0.4578867,1.2826,0.01445517,0.2884735,1.345319,-0.1448811,-0.4391695,1.261169,0.1921344,-0.4707904,1.290814,0.008342773,-0.1521765,1.371868,0.01039597,-0.4585952,1.351275,-0.1618732,0.01393821,1.353039,-0.06856307,-0.44876,1.318717,-0.201966,-0.2343729,1.34628,0.2273166,-0.2238027,1.355677,NA,NA,NotTracked,NotTracked,
-0.9584961,0.2270508,0.2016602,0.9418945,0.3066406,0.01464844,1,4,5,1,-3,-3,-6,-3,0,0,0,0,-1,0,3,8,2.5625,2.5625,2.5625,-7.375,-7.375,-7.375,6.385304,7.028013,9.16885,7.432169,3.011966,1.31735,-0.1937468,-0.4669024,1.28439,0.2201079,-0.4601104,1.285681,0.01426206,0.2884038,1.344866,-0.1443515,-0.4353265,1.260307,0.1898044,-0.4832545,1.288914,0.008204103,-0.1522045,1.371723,0.0103315,-0.4586133,1.351244,-0.1620089,0.01403218,1.352898,-0.06862577,-0.4487762,1.31868,-0.2014742,-0.2350514,1.347589,0.2267839,-0.2259481,1.356373,NA,NA,NotTracked,NotTracked,
-0.9633789,0.2192383,0.184082,0.9379883,0.324707,0.002441406,-1,-2,-2,1,2,-2,0,-4,-1,5,2,0,-1,-2,-1,-6,4,4,4,2.1875,2.1875,2.1875,6.387891,7.042786,9.155993,7.476075,2.993856,1.274087,-0.1921304,-0.4682424,1.286679,0.2206356,-0.4615837,1.288845,0.01418821,0.288339,1.344609,-0.1450598,-0.436989,1.260978,0.1905561,-0.4858122,1.291793,0.008151876,-0.1522233,1.371631,0.0103643,-0.4586425,1.351253,-0.1620438,0.01400286,1.352732,-0.06859908,-0.4487973,1.318676,-0.2010626,-0.2360125,1.348514,0.2263258,-0.2273789,1.357305,NA,NA,NotTracked,NotTracked,
-0.9921875,0.2387695,0.1274414,0.9306641,0.3012695,0.02929688,-5,-2,-1,-3,-3,0,0,-3,2,-3,-2,0,-2,1,-1,1,8.125,8.125,8.125,2.25,2.25,2.25,6.423477,7.052794,9.17456,7.489644,2.989552,1.262165,-0.1918774,-0.4695515,1.288347,0.220857,-0.462361,1.292071,0.01406232,0.2882986,1.344441,-0.143836,-0.4439464,1.262411,0.1908215,-0.488415,1.293782,0.008160061,-0.1522375,1.371627,0.01050341,-0.4586787,1.351417,-0.1621358,0.01409031,1.352746,-0.06845332,-0.4488583,1.318807,-0.2006927,-0.2364894,1.348996,0.226003,-0.2281424,1.35806,NA,NA,NotTracked,NotTracked,
