ALX,ALY,ALZ,ARX,ARY,ARZ,EMG0L,EMG1L,EMG2L,EMG3L,EMG4L,EMG5L,EMG6L,EMG7L,EMG0R,EMG1R,EMG2R,EMG3R,EMG4R,EMG5R,EMG6R,EMG7R,GLX,GLY,GLZ,GRX,GRY,GRZ,ORL,OPL,OYL,ORR,OPR,OYR,LHNX,LHNY,LHNZ,RHNX,RHNY,RHNZ,HX,HY,HZ,LTX,LTY,LTZ,RTX,RTY,RTZ,SpineMidX,SpineMidY,SpineMidZ,SpineBaseX,SpineBaseY,SpineBaseZ,ShoulderLeftX,ShoulderLeftY,ShoulderLeftZ,ShoulderRightX,ShoulderRightY,ShoulderRightZ,ElbowLeftX,ElbowLeftY,ElbowLeftZ,ElbowRightX,ElbowRightY,ElbowRightZ,Myo_Pose_left,Myo_Pose_Right,Kinect_pose_left,Kinect_pose_right
-0.9663086,0.2114258,0.1699219,0.9287109,0.2851563,0.04541016,-1,-2,-1,0,-2,-1,1,-1,-4,-2,0,1,1,-2,-1,-1,-2.125,-2.125,-2.125,0.0625,0.0625,0.0625,6.363516,7.036773,5.285687,7.269957,2.969391,6.573585,-0.03195951,-0.4846829,1.319218,0.3706896,-0.506258,1.326569,0.1630695,0.2892277,1.391,-0.07155073,-0.4804175,1.319175,0.4090127,-0.505296,1.322326,0.1561685,-0.1470024,1.416744,0.1590341,-0.4501067,1.3965,-0.006253774,0.01892064,1.408507,0.08041698,-0.4403055,1.369668,-0.04301165,-0.2331878,1.38145,0.3779279,-0.2323281,1.39832,NA,NA,NotTracked,NotTracked,
-0.9707031,0.2172852,0.1733398,0.9345703,0.2856445,0.04443359,0,-1,-1,0,0,-2,0,-2,5,-1,-1,-2,0,-1,0,-3,-4.4375,-4.4375,-4.4375,1.6875,1.6875,1.6875,6.36309,7.037433,5.291545,7.270166,2.969398,6.575627,-0.0327556,-0.4841607,1.318401,0.3704835,-0.5052687,1.325048,0.1634342,0.2889063,1.390402,-0.07283437,-0.4812408,1.320598,0.4092329,-0.5053735,1.322274,0.1562833,-0.1470861,1.416334,0.159051,-0.450131,1.396199,-0.004738214,0.01978871,1.410647,0.08043751,-0.4403011,1.369334,-0.0430041,-0.233094,1.381243,0.3779757,-0.2323402,1.397858,NA,NA,NotTracked,NotTracked,
-0.9658203,0.2119141,0.1850586,0.9296875,0.2763672,0.04345703,0,-1,-1,0,0,-2,-3,-2,-11,-2,-1,-1,0,0,1,-1,-2.4375,-2.4375,-2.4375,0.3125,0.3125,0.3125,6.364569,7.037611,5.29914,7.270166,2.969398,6.575627,-0.03302595,-0.4851089,1.319278,0.3700444,-0.5052891,1.32504,0.1636065,0.2888138,1.390184,-0.07408834,-0.4886385,1.317972,0.4091718,-0.5060484,1.32207,0.1563248,-0.1471237,1.416198,0.1591325,-0.4501688,1.396044,-0.005390001,0.01936123,1.409275,0.0805075,-0.4403302,1.369207,-0.04297907,-0.2331499,1.381147,0.3780066,-0.2323038,1.397607,NA,NA,NotTracked,NotTracked,
-0.9672852,0.2119141,0.1713867,0.9365234,0.2797852,0.04443359,-1,-2,-1,-2,-1,-2,-1,-1,-5,-1,-3,-1,-2,0,-1,-2,-0.5,-0.5,-0.5,0.9375,0.9375,0.9375,6.368999,7.037541,5.304606,7.269307,2.969684,6.575366,-0.03312303,-0.4841269,1.318678,0.3703595,-0.5058622,1.324096,0.1637682,0.2888682,1.389479,-0.07292981,-0.4798753,1.322239,0.4122976,-0.5135595,1.323192,0.1564871,-0.1471811,1.415764,0.1593893,-0.450251,1.395582,-0.007708778,0.01803906,1.405299,0.08074835,-0.4404637,1.368781,-0.04302955,-0.2331958,1.380879,0.3778952,-0.2322371,1.396945,NA,NA,NotTracked,NotTracked,
-0.9682617,0.2133789,0.1738281,0.9267578,0.2841797,0.03857422,-1,-1,-2,0,-2,0,-1,0,-5,-3,1,-2,0,-1,0,-2,2.0625,2.0625,2.0625,1.375,1.375,1.375,6.371767,7.037438,5.30424,7.269548,2.968154,6.579057,-0.0330497,-0.4836935,1.317859,0.3698131,-0.5055026,1.322973,0.1637856,0.2888299,1.389042,-0.07350332,-0.4818536,1.323161,0.4106243,-0.5091766,1.322109,0.1565019,-0.1471509,1.415358,0.1593015,-0.4502352,1.395223,-0.008726513,0.01768202,1.403465,0.08065498,-0.4404728,1.368409,-0.04302142,-0.2332909,1.380559,0.3779011,-0.2322617,1.396203,NA,NA,NotTracked,NotTracked,
-0.9672852,0.2172852,0.1767578,0.9306641,0.2788086,0.04003906,-1,-2,0,-2,-1,0,-3,1,-7,0,-2,0,0,-2,0,-2,-0.5625,-0.5625,-0.5625,-0.0625,-0.0625,-0.0625,6.373708,7.036834,5.305067,7.270002,2.96804,6.579312,-0.03328332,-0.4838162,1.31774,0.3697262,-0.505578,1.3223,0.1639328,0.2887262,1.388618,-0.07386331,-0.4844772,1.322647,0.4096813,-0.5116829,1.320597,0.1565211,-0.1472922,1.414628,0.1590849,-0.4504039,1.394632,-0.009143147,0.0175202,1.402154,0.08041813,-0.4406258,1.367802,-0.04301243,-0.2334497,1.380125,0.3778076,-0.2324753,1.395487,NA,NA,NotTracked,NotTracked,
-0.9643555,0.215332,0.1699219,0.9335938,0.2807617,0.03955078,0,-1,-1,-2,0,-2,-1,-2,6,-1,-2,-2,0,-2,-2,-4,-4,-4,-4,0.3125,0.3125,0.3125,6.377691,7.035181,5.313649,7.269073,2.968463,6.579366,-0.03382935,-0.4831766,1.316976,0.369541,-0.5047949,1.32113,0.163962,0.2884808,1.38798,-0.07293292,-0.4812097,1.321302,0.4090583,-0.5082611,1.319739,0.1564094,-0.1473821,1.414212,0.1589669,-0.4505476,1.394062,-0.009837496,0.01703811,1.40084,0.08026613,-0.4407811,1.367159,-0.04318934,-0.2333947,1.379731,0.3776724,-0.23245,1.394863,NA,NA,NotTracked,NotTracked,
-0.9643555,0.2202148,0.171875,0.9404297,0.2797852,0.04052734,-3,-1,-1,-2,-1,-2,0,0,-7,-4,-2,-2,-3,-3,-2,1,-1.8125,-1.8125,-1.8125,-1.3125,-1.3125,-1.3125,6.380676,7.035189,5.319854,7.269551,2.968117,6.578511,-0.03388754,-0.4841291,1.31737,0.3696586,-0.5051365,1.321797,0.1639877,0.2884934,1.387525,-0.07322802,-0.4807061,1.322391,0.4090051,-0.5066412,1.319891,0.1564553,-0.1474039,1.413875,0.1591984,-0.4506115,1.393672,-0.01016164,0.01671907,1.40005,0.0804587,-0.4408679,1.366821,-0.04330298,-0.2336672,1.379351,0.3776121,-0.2327059,1.39412,NA,NA,NotTracked,NotTracked,
-0.9663086,0.2089844,0.1777344,0.9741211,0.3261719,-0.1220703,-1,-1,-1,0,-3,0,-1,-1,8,37,15,5,2,2,3,8,1.5,1.5,1.5,-14.8125,-14.8125,-14.8125,6.378816,7.036055,5.316954,7.287626,2.973553,6.550428,-0.03486865,-0.4828727,1.314661,0.369305,-0.5052599,1.320089,0.1639252,0.2884848,1.386767,-0.07472742,-0.485904,1.320122,0.4099741,-0.5059396,1.321661,0.1562326,-0.1473856,1.413331,0.1589544,-0.4505774,1.393208,-0.01046534,0.01664315,1.398923,0.08025309,-0.4408645,1.366504,-0.0435033,-0.2339147,1.378929,0.3775585,-0.2323428,1.393261,NA,NA,NotTracked,NotTracked,
-0.980957,0.2304688,0.1567383,1.20459,0.3549805,-0.04394531,-1,-2,-2,0,0,-1,0,0,6,55,22,-3,0,-2,-1,-4,-3.3125,-3.3125,-3.3125,-51.625,-51.625,-51.625,6.390109,7.031246,5.329033,7.203743,3.095888,6.486506,-0.03508012,-0.4823605,1.314882,0.3675685,-0.5008728,1.311576,0.1636932,0.2884167,1.386601,-0.07476061,-0.4687506,1.3195,0.4077966,-0.5022048,1.30644,0.156029,-0.1474179,1.41287,0.1586721,-0.4505959,1.392788,-0.01103879,0.016458,1.398529,0.08000401,-0.440888,1.366236,-0.04351844,-0.2341752,1.378268,0.3782911,-0.2306728,1.392761,NA,NA,NotTracked,NotTracked,
-0.9594727,0.2348633,0.1694336,1.034668,0.7021484,0.1582031,-2,-2,-2,-2,-2,0,-1,-2,6,-30,-50,-10,-9,2,2,2,-12.625,-12.625,-12.625,61.875,61.875,61.875,6.388683,7.020571,5.34587,7.064608,3.325452,6.694779,-0.03511708,-0.4855586,1.31254,0.3615285,-0.4748195,1.270981,0.1634056,0.2884335,1.386366,-0.07481387,-0.4862581,1.319223,0.3958354,-0.4801884,1.257214,0.1557026,-0.1474696,1.412424,0.1582379,-0.4507224,1.392123,-0.01178951,0.01638589,1.397995,0.07950843,-0.4409624,1.365517,-0.04373965,-0.2340369,1.377881,0.3860703,-0.219717,1.394716,NA,NA,NotTracked,NotTracked,
-0.9384766,0.2211914,0.2070313,0.8911133,1.065918,0.3120117,0,-1,-1,-2,-1,-3,-4,1,4,-17,4,5,6,-3,4,8,3.1875,3.1875,3.1875,77.625,77.625,77.625,6.366241,7.014171,5.334508,7.096327,3.700931,6.839158,-0.03470862,-0.498834,1.30822,0.3438204,-0.4086702,1.207703,0.1632151,0.2883663,1.386278,-0.0755933,-0.4862602,1.319276,0.3452884,-0.3791499,1.171719,0.1548002,-0.1474989,1.411879,0.1563565,-0.4507221,1.390856,-0.01233942,0.0162587,1.397607,0.07752522,-0.4406964,1.364059,-0.04443381,-0.2334322,1.377398,0.400261,-0.1969541,1.394851,NA,NA,NotTracked,Unknown,
-0.9541016,0.2182617,0.1987305,0.3134766,0.9228516,0.3330078,-2,-2,-1,-1,-2,-2,0,0,17,4,-1,13,-3,6,3,4,17.1875,17.1875,17.1875,66.3125,66.3125,66.3125,6.370612,7.019487,5.315117,7.115533,4.319356,7.00581,-0.03584063,-0.4991494,1.309283,0.3227586,-0.2776802,1.152982,0.1631146,0.288323,1.386324,-0.07733767,-0.4884149,1.317826,0.2831429,-0.2556874,1.1185,0.153998,-0.1472342,1.411605,0.1543894,-0.4500553,1.389972,-0.01250038,0.01642903,1.397278,0.07544199,-0.4396513,1.363181,-0.04463894,-0.2332379,1.376742,0.4223691,-0.1670875,1.386259,NA,NA,NotTracked,Unknown,
-0.9868164,0.2167969,0.171875,-0.1005859,0.9731445,0.1972656,0,-2,-2,-3,-1,0,-1,-1,-8,-7,-1,1,-3,-7,0,-3,14,14,14,131.125,131.125,131.125,6.394025,7.026196,5.311113,7.262017,4.837552,7.127909,-0.03646169,-0.4983394,1.30636,0.3115191,-0.134583,1.13375,0.1629738,0.2883603,1.386419,-0.07712304,-0.4843816,1.315007,0.327247,-0.1175279,1.114723,0.1529291,-0.146705,1.411468,0.1524909,-0.4489672,1.389261,-0.0127514,0.01659686,1.396689,0.07368533,-0.4384928,1.362674,-0.04492221,-0.2328976,1.375969,0.4718103,-0.1297991,1.370427,NA,NA,NotTracked,Unknown,
-0.9731445,0.2250977,0.1762695,-0.1923828,0.9443359,0.1689453,-1,-2,-1,-1,0,-2,-2,-3,25,8,9,9,4,4,13,21,-1.8125,-1.8125,-1.8125,121.4375,121.4375,121.4375,6.404815,7.019859,5.31636,7.481392,5.314933,7.273632,-0.03709059,-0.4982562,1.304393,0.2886806,0.008440626,1.146564,0.1628153,0.2884098,1.386678,-0.07745125,-0.4814936,1.309602,0.23698,0.01828462,1.1915,0.1515964,-0.1465433,1.41159,0.1513201,-0.448856,1.388923,-0.01245389,0.01656548,1.396001,0.07244451,-0.4385969,1.362755,-0.04527606,-0.2325659,1.375372,0.4932585,-0.1252194,1.330702,NA,NA,NotTracked,Unknown,
-0.9599609,0.2172852,0.190918,-0.3540039,0.7490234,0.05419922,0,0,0,-1,-2,-2,-1,-1,25,-4,-8,-7,3,5,10,31,-2.1875,-2.1875,-2.1875,102.875,102.875,102.875,6.393961,7.008481,5.311178,7.818714,5.795655,7.566566,-0.03627028,-0.4979735,1.3042,0.263744,0.1178695,1.183162,0.1625938,0.2886922,1.387568,-0.07715392,-0.4859719,1.313495,0.2278788,0.1093184,1.2215,0.1503244,-0.1468544,1.411436,0.1489488,-0.4502708,1.387712,-0.01233286,0.01702266,1.396179,0.06932195,-0.4392562,1.362358,-0.04563072,-0.2305283,1.374927,0.5048375,-0.07526632,1.301289,NA,NA,NotTracked,Unknown,
-0.9633789,0.2387695,0.1943359,-0.4008789,0.6401367,-0.09326172,-1,0,-1,0,-1,-1,-1,2,3,13,9,-1,-5,-6,-4,13,2.625,2.625,2.625,76.1875,76.1875,76.1875,6.3845,7.000956,5.298302,8.108749,6.015288,7.836343,-0.03549904,-0.4941222,1.302938,0.2933881,0.144173,1.226414,0.1623246,0.2883873,1.387972,-0.07694542,-0.4895577,1.314057,0.2656226,0.1272567,1.278364,0.1506746,-0.1448899,1.411464,0.1474874,-0.4450234,1.386221,-0.005886554,0.0198283,1.40311,0.0671027,-0.433709,1.361242,-0.04566338,-0.2231176,1.374273,0.5053351,-0.05497834,1.285846,NA,NA,NotTracked,Unknown,
-0.9589844,0.2358398,0.184082,-0.4018555,0.5419922,-0.2416992,-1,-1,0,-2,-2,-1,-2,-1,7,-7,-8,-7,-16,-8,0,6,-12.3125,-12.3125,-12.3125,44,44,44,6.401425,6.989385,5.33556,8.319436,6.100606,8.048453,-0.03621763,-0.4896348,1.303889,0.2140034,0.2184107,1.267785,0.1622626,0.2873018,1.388801,-0.07677694,-0.4846086,1.312001,0.1676191,0.1894369,1.280145,0.1515384,-0.1423312,1.412051,0.1476081,-0.4393826,1.385585,-0.001781131,0.02192903,1.407605,0.06707391,-0.4286667,1.361082,-0.04545363,-0.218751,1.373993,0.5012582,-0.02262347,1.261548,NA,NA,NotTracked,Unknown,
-0.9609375,0.2329102,0.1958008,-0.4243164,0.6098633,-0.3691406,-2,0,-1,-2,-1,-2,-1,0,-5,-1,-2,-4,-3,2,-4,-28,-7.6875,-7.6875,-7.6875,16.4375,16.4375,16.4375,6.40648,6.985474,5.357715,8.433028,6.080632,8.146416,-0.03650699,-0.4897842,1.302888,0.2649001,0.1871115,1.257789,0.1627573,0.2865926,1.389492,-0.07695462,-0.4860026,1.313533,0.2446173,0.1581831,1.301917,0.1520759,-0.1408538,1.41228,0.1475476,-0.436764,1.385015,-0.0004004881,0.02262176,1.409262,0.06694704,-0.4260361,1.360643,-0.04537632,-0.2169706,1.374123,0.4970259,0.0002110434,1.247237,NA,NA,NotTracked,Unknown,
-0.9663086,0.2421875,0.1826172,-0.4033203,0.612793,-0.4165039,-2,-1,-1,0,-1,-1,-1,0,-37,-4,0,0,0,3,1,-9,-5.875,-5.875,-5.875,26.5625,26.5625,26.5625,6.416601,6.983348,5.378077,8.452517,6.061609,8.123189,-0.03724379,-0.4876764,1.304067,0.2661501,0.1891451,1.257157,0.1632306,0.2860246,1.390332,-0.07798868,-0.4795468,1.314562,0.2498576,0.1596241,1.304307,0.1524037,-0.1400571,1.412476,0.1475553,-0.4357336,1.38484,0.000405653,0.02290757,1.41026,0.06693958,-0.4251013,1.360616,-0.04512914,-0.2154946,1.374552,0.4967571,0.00871891,1.244996,NA,NA,NotTracked,Unknown,
-0.9560547,0.2431641,0.1821289,-0.5703125,0.6435547,-0.4267578,-2,0,-1,-1,0,-2,-2,-1,-2,1,1,-1,-3,-3,3,-13,-5.875,-5.875,-5.875,35,35,35,6.418043,6.98208,5.385902,8.443714,6.1117,8.027243,-0.03721032,-0.4881221,1.303703,0.2751148,0.1915787,1.26805,0.1639166,0.2851929,1.39142,-0.07705021,-0.4863484,1.309933,0.2554331,0.1640122,1.314444,0.1528087,-0.139582,1.412598,0.147746,-0.4352389,1.38467,0.001170309,0.02302561,1.410897,0.06711056,-0.4246874,1.360487,-0.04509193,-0.2148684,1.374707,0.49843,0.01116755,1.246334,NA,NA,NotTracked,Open,
-0.9536133,0.2416992,0.1806641,-0.7290039,0.6074219,-0.4238281,0,-4,-1,0,-2,-2,0,0,7,2,1,1,-8,-5,4,18,-7.9375,-7.9375,-7.9375,61.625,61.625,61.625,6.414032,6.979566,5.394052,8.410499,6.224093,7.848573,-0.03709181,-0.4882095,1.303956,0.2937686,0.2069628,1.271159,0.1644836,0.2848763,1.392157,-0.07724899,-0.4811347,1.313743,0.281985,0.1763298,1.316706,0.1530326,-0.1391824,1.412594,0.1477419,-0.4348088,1.384344,0.001627145,0.02334905,1.411575,0.06704829,-0.4242517,1.359895,-0.04501571,-0.2148697,1.374915,0.505398,0.01211417,1.25581,NA,NA,NotTracked,Unknown,
-0.949707,0.2573242,0.1982422,-0.8642578,0.4921875,-0.2670898,1,-1,-1,0,0,1,-1,-1,3,1,1,13,32,13,5,4,-10.125,-10.125,-10.125,94.25,94.25,94.25,6.401083,6.978491,5.412316,8.297909,6.400901,7.456333,-0.03727657,-0.4896579,1.305075,0.325434,0.244519,1.264142,0.1643104,0.285412,1.392851,-0.07556699,-0.486185,1.306837,0.3162414,0.1914806,1.274429,0.1533901,-0.1389042,1.412483,0.1480329,-0.4346338,1.384248,-0.0004556395,0.02382531,1.4097,0.06757717,-0.4241112,1.359552,-0.04454231,-0.216966,1.375551,0.5171462,0.01063566,1.272457,NA,NA,NotTracked,Unknown,
-0.9448242,0.2539063,0.1948242,-0.8935547,0.5131836,-0.1435547,-1,-1,0,1,-3,0,-1,-1,-5,-10,6,1,-9,-19,-20,-21,-9.0625,-9.0625,-9.0625,63.625,63.625,63.625,6.398544,6.980092,5.414787,8.178085,6.465109,7.146378,-0.03764568,-0.4922872,1.307893,0.37334,0.2537041,1.252684,0.1642231,0.2862394,1.393726,-0.07695835,-0.4855598,1.311489,0.3670368,0.2592472,1.299667,0.1531248,-0.1391651,1.412447,0.1481398,-0.4360866,1.38443,-0.0005061033,0.02377351,1.411267,0.06804074,-0.4257365,1.360181,-0.04402927,-0.2225645,1.376931,0.5259953,0.005906757,1.294416,NA,NA,NotTracked,Unknown,
-0.9555664,0.2490234,0.2099609,-0.3911133,0.5151367,-0.01464844,0,0,-3,-2,-2,-1,-1,-1,14,-5,-7,0,-3,-19,-15,8,-8.375,-8.375,-8.375,28.25,28.25,28.25,6.388081,6.986917,5.41958,8.068292,6.473516,6.909014,-0.03888846,-0.4945778,1.308361,0.3980459,0.2557846,1.254037,0.1641506,0.2868586,1.393865,-0.07875318,-0.4911677,1.310167,0.3796294,0.2536907,1.278895,0.1527401,-0.1397142,1.41222,0.1481043,-0.4383299,1.384346,-0.0003870389,0.02364471,1.411836,0.06831336,-0.4278285,1.36066,-0.0440719,-0.2242245,1.377152,0.522269,-0.03478584,1.311384,NA,NA,NotTracked,Unknown,
-0.9638672,0.237793,0.2060547,-0.887207,0.4589844,-0.1064453,-2,-1,-2,-2,0,-1,0,0,12,6,2,-2,-8,12,-7,15,-2.6875,-2.6875,-2.6875,8.4375,8.4375,8.4375,6.402336,6.999212,5.451074,8.04575,6.484201,6.861613,-0.0399191,-0.4950869,1.309229,0.4085883,0.2554247,1.254924,0.1641721,0.2870301,1.393958,-0.07739253,-0.4856909,1.311101,0.3697002,0.2380674,1.2776,0.1526008,-0.1402466,1.411994,0.1482126,-0.4398157,1.384353,-0.0003154416,0.02353282,1.412206,0.06864016,-0.4293985,1.360884,-0.04389436,-0.2257403,1.377184,0.5233911,-0.03553338,1.313055,NA,NA,NotTracked,Unknown,
-0.9560547,0.2348633,0.1928711,-0.8754883,0.4726563,-0.1777344,-2,-1,-3,-1,-1,-3,0,-2,12,24,15,1,-10,-2,-3,1,8.25,8.25,8.25,-6.8125,-6.8125,-6.8125,6.420994,7.004757,5.4591,8.050865,6.492148,6.876151,-0.04012385,-0.4953115,1.309538,0.4094711,0.2542273,1.254705,0.1644516,0.287222,1.393987,-0.08010103,-0.4919876,1.31037,0.3803304,0.2263334,1.294111,0.1526185,-0.1404803,1.41192,0.1484284,-0.4404522,1.384409,-0.0002131195,0.02346583,1.412556,0.06903373,-0.4300576,1.361115,-0.04389308,-0.2261614,1.377201,0.5270507,-0.03775869,1.315621,NA,NA,NotTracked,Open,
-0.9648438,0.2368164,0.1806641,-0.8500977,0.5102539,-0.1962891,-1,-1,0,-1,-2,-1,-1,0,9,19,13,3,12,15,-37,63,13,13,13,-10.25,-10.25,-10.25,6.429305,7.004702,5.447455,8.054838,6.485636,6.909328,-0.03866964,-0.4944006,1.307907,0.4064973,0.2527544,1.252921,0.1650963,0.2874795,1.393864,-0.08033813,-0.483236,1.319667,0.3682052,0.2343286,1.287287,0.1526777,-0.1406705,1.411896,0.1486761,-0.4408592,1.384491,6.662021E-05,0.0234501,1.412733,0.06942325,-0.4305408,1.361196,-0.04377946,-0.2264136,1.377171,0.5285199,-0.03900173,1.316837,NA,NA,NotTracked,Unknown,
-0.9682617,0.2304688,0.1704102,-0.8251953,0.5185547,-0.2050781,-1,-1,0,0,-1,-1,0,-2,0,-2,0,-10,-26,6,31,-6,11,11,11,-12.125,-12.125,-12.125,6.434675,7.002111,5.438865,8.057571,6.474113,6.936893,-0.03667682,-0.4931923,1.305524,0.4034782,0.2492827,1.250734,0.165792,0.2877951,1.393743,-0.07643883,-0.491635,1.30452,0.3637293,0.2304662,1.2822,0.1527268,-0.1409498,1.411857,0.1488893,-0.4416451,1.384525,0.0003121159,0.02349448,1.41291,0.06968299,-0.4313037,1.361201,-0.04360774,-0.2265474,1.377091,0.5281278,-0.03952292,1.317376,NA,NA,NotTracked,Unknown,
-0.9614258,0.2421875,0.1655273,-0.8120117,0.5375977,-0.21875,-1,-1,-2,-2,-3,0,0,-2,3,12,8,1,4,1,-14,15,7.3125,7.3125,7.3125,-5.1875,-5.1875,-5.1875,6.440398,6.990165,5.422182,8.066916,6.461849,6.96139,-0.03562824,-0.4925061,1.303879,0.4003921,0.2475473,1.246895,0.1668778,0.2880163,1.393588,-0.07719167,-0.4876637,1.3116,0.3859334,0.2227425,1.294,0.1530381,-0.1411944,1.411732,0.149445,-0.4421194,1.3845,-0.0009158599,0.0219905,1.408115,0.0701865,-0.4317318,1.361121,-0.04331629,-0.2265159,1.376963,0.5277649,-0.03993164,1.317337,NA,NA,NotTracked,Unknown,
-0.9521484,0.2421875,0.1748047,-0.8051758,0.5429688,-0.2270508,-1,-2,-1,-1,-1,-1,-1,-1,6,7,13,-4,-12,-5,-1,-1,4,4,4,-6.25,-6.25,-6.25,6.438607,6.981511,5.411415,8.067429,6.449682,6.98325,-0.03272544,-0.4944201,1.302097,0.3979635,0.2445874,1.244731,0.1680623,0.2881007,1.393896,-0.07478616,-0.4859389,1.31309,0.3637965,0.2169248,1.280875,0.1535437,-0.1414819,1.411733,0.1497767,-0.4424009,1.384591,6.765857E-05,0.02225764,1.409927,0.07054909,-0.4320516,1.361312,-0.04271387,-0.226773,1.3768,0.5275227,-0.04035011,1.317109,NA,NA,NotTracked,Unknown,
-0.9521484,0.2475586,0.1757813,-0.7944336,0.550293,-0.2133789,0,0,-1,-1,-2,-1,0,-2,-33,-16,-8,8,5,-2,3,-31,-6,-6,-6,-5.375,-5.375,-5.375,6.432038,6.98242,5.406162,8.068447,6.442003,6.994422,-0.03241766,-0.4941641,1.302754,0.3969243,0.243653,1.242838,0.1687889,0.2880847,1.393878,-0.07402552,-0.4837917,1.31825,0.3646245,0.2203251,1.277031,0.1538136,-0.1416175,1.411676,0.1500879,-0.4425447,1.384644,0.0007554078,0.02237953,1.410757,0.07084386,-0.4321628,1.361335,-0.04216147,-0.2269256,1.376814,0.5271361,-0.0411498,1.316893,NA,NA,NotTracked,Unknown,
-0.9580078,0.2514648,0.1782227,-0.7412109,0.5610352,-0.1967773,-1,-1,1,-2,-1,-1,-2,0,-17,-5,-4,-4,-7,-7,-11,-31,-9.3125,-9.3125,-9.3125,-10.3125,-10.3125,-10.3125,6.429771,6.983964,5.40906,8.056871,6.428918,6.997272,-0.03246245,-0.494855,1.305916,0.3961208,0.2431835,1.242653,0.1693317,0.2882077,1.393813,-0.07385195,-0.4860721,1.313755,0.3677565,0.2161472,1.292983,0.1544643,-0.1417899,1.411649,0.1505058,-0.4427268,1.384779,0.001340319,0.02259548,1.411533,0.07129075,-0.4323441,1.361525,-0.0418173,-0.2268824,1.376929,0.5269951,-0.04142492,1.316518,NA,NA,NotTracked,Unknown,
-0.9570313,0.2456055,0.1811523,-0.5473633,0.5390625,-0.1357422,-2,-2,-1,-1,-1,-1,1,-2,5,-4,-4,-4,-3,-1,-1,2,-12.125,-12.125,-12.125,-27.6875,-27.6875,-27.6875,6.421711,6.991995,5.420434,8.002998,6.349513,6.987333,-0.03264435,-0.4959271,1.307665,0.3943233,0.2364807,1.238548,0.1703537,0.2882904,1.393533,-0.07341197,-0.4864236,1.314319,0.3601533,0.2192731,1.282454,0.1549107,-0.1419296,1.411562,0.1508664,-0.4428943,1.38491,0.001852122,0.02274878,1.412091,0.07164407,-0.4324783,1.361664,-0.04145928,-0.2268028,1.377045,0.526812,-0.04198412,1.316062,NA,NA,NotTracked,Unknown,
-0.9580078,0.237793,0.1757813,-0.418457,0.5761719,-0.08154297,0,-1,0,-1,-3,-1,0,0,6,2,3,0,2,1,-2,5,-5.3125,-5.3125,-5.3125,-35,-35,-35,6.419643,7.010737,5.439816,7.913841,6.184053,6.940148,-0.03421298,-0.4951125,1.310818,0.3910563,0.215355,1.227365,0.1711351,0.2883569,1.393336,-0.07346295,-0.48527,1.312129,0.3506474,0.2197421,1.243055,0.15543,-0.1419369,1.411515,0.1511037,-0.4427952,1.384992,0.002307616,0.02308195,1.412755,0.07189141,-0.4323984,1.361785,-0.04083335,-0.2268068,1.377422,0.5258413,-0.04668659,1.318819,NA,NA,NotTracked,Open,
-0.96875,0.2246094,0.1796875,-0.3886719,0.7158203,0.03808594,1,-1,-1,-1,-2,-1,-2,0,-5,0,0,-1,1,-2,-4,1,-8.4375,-8.4375,-8.4375,-76.5,-76.5,-76.5,6.417025,7.016391,5.449757,7.778492,5.876798,6.878829,-0.03356902,-0.4953183,1.311037,0.3870236,0.166072,1.205338,0.1719659,0.2884431,1.393158,-0.07393174,-0.4853734,1.31257,0.3509946,0.1681937,1.2518,0.1561139,-0.1421313,1.411619,0.1515707,-0.442942,1.385138,0.001308459,0.02128446,1.407433,0.07246783,-0.4327095,1.361918,-0.03996907,-0.2270375,1.377769,0.5222301,-0.07051289,1.339743,NA,NA,NotTracked,Open,
-0.9741211,0.2260742,0.1904297,-0.2324219,0.855957,0.1416016,-3,-1,-1,-1,-1,-2,-1,-1,-4,3,2,-1,-3,-3,18,-11,-7.5,-7.5,-7.5,-121.1875,-121.1875,-121.1875,6.412871,7.01601,5.449933,7.494514,5.251343,6.819277,-0.0329665,-0.4950037,1.311022,0.3915311,0.07987154,1.177088,0.1722415,0.2885055,1.392926,-0.07322564,-0.4854341,1.314724,0.3488173,0.1046007,1.2298,0.1573014,-0.1423069,1.411569,0.1528203,-0.4430022,1.385412,0.001429976,0.02086691,1.406057,0.07388113,-0.4327786,1.362216,-0.03934381,-0.227263,1.378037,0.5176936,-0.1189951,1.390844,NA,NA,NotTracked,Unknown,
-0.9663086,0.2275391,0.1879883,0.005859375,0.8789063,0.203125,-1,-1,-2,0,-1,-1,1,0,-7,0,2,-2,0,0,-8,7,-8.9375,-8.9375,-8.9375,-104.8125,-104.8125,-104.8125,6.392953,7.003655,5.451841,7.307308,4.731312,6.810738,-0.03157604,-0.4962757,1.310487,0.3992849,-0.04389492,1.159477,0.1725689,0.2885038,1.392807,-0.06968682,-0.4841716,1.312985,0.3534181,-0.0341039,1.131938,0.1577079,-0.1426682,1.411506,0.1532944,-0.4438663,1.385493,0.001259057,0.02077184,1.405405,0.07433309,-0.4335537,1.362259,-0.03875022,-0.2276137,1.378638,0.4703057,-0.130435,1.415251,NA,NA,NotTracked,Unknown,
-0.9404297,0.2407227,0.2011719,0.04394531,1.022461,-0.04150391,-2,-1,-2,0,-1,-1,-1,-1,-5,10,12,-2,1,5,1,18,-2.625,-2.625,-2.625,-90.1875,-90.1875,-90.1875,6.363474,6.995427,5.435341,7.141988,4.26345,6.8229,-0.02926839,-0.4967455,1.312404,0.3980315,-0.1718338,1.154751,0.1730427,0.2884779,1.392614,-0.06885938,-0.4852683,1.321658,0.3529093,-0.169202,1.116588,0.15821,-0.1430349,1.411513,0.1538289,-0.444423,1.38564,0.001330679,0.02057104,1.404907,0.07492052,-0.4342002,1.362366,-0.03771663,-0.2282192,1.379619,0.4906187,-0.1114773,1.409951,NA,NA,NotTracked,Unknown,
-0.9511719,0.2387695,0.2055664,0.690918,0.7529297,0.03759766,0,-2,0,-1,-2,-2,-1,-1,-8,-16,-7,-6,-4,-5,-4,-11,2.4375,2.4375,2.4375,-67.25,-67.25,-67.25,6.343776,6.998267,5.412907,7.027525,3.698024,6.804608,-0.02757231,-0.4968471,1.312842,0.3972003,-0.2981866,1.187463,0.1734258,0.2884907,1.392528,-0.06674384,-0.4856656,1.324929,0.3989676,-0.2570882,1.1422,0.1589571,-0.1435779,1.411501,0.1548127,-0.4453112,1.385832,0.001587751,0.02033827,1.40448,0.07586499,-0.4350274,1.362396,-0.03708098,-0.2286081,1.380195,0.4662526,-0.1348386,1.41496,NA,NA,NotTracked,Lasso,
-0.9824219,0.2353516,0.1889648,1.058594,0.7568359,0.1508789,0,1,-1,-1,0,1,0,0,-3,-4,-5,-7,-3,2,9,0,6.375,6.375,6.375,0.75,0.75,0.75,6.352341,7.004058,5.407702,7.099447,3.32979,6.68322,-0.02731317,-0.4969099,1.314454,0.3948397,-0.4034317,1.240396,0.1741989,0.2884097,1.392421,-0.06724989,-0.485838,1.321015,0.4185847,-0.3798841,1.206833,0.1603539,-0.1442872,1.411841,0.1572177,-0.4466819,1.386727,0.001806086,0.01972745,1.4042,0.07816774,-0.4362558,1.362789,-0.03630903,-0.2290626,1.380575,0.4265485,-0.1831883,1.421997,NA,NA,NotTracked,NotTracked,
-0.9824219,0.2353516,0.1889648,1.244141,0.5366211,0.1064453,-1,-2,0,-1,0,0,0,-1,-1,20,-2,-3,-1,-2,-5,9,6.375,6.375,6.375,-74.625,-74.625,-74.625,6.352341,7.004058,5.407702,7.261549,3.035835,6.388654,-0.02570439,-0.4972167,1.314778,0.4005498,-0.4761375,1.292427,0.1753273,0.2883148,1.39252,-0.06586746,-0.4932398,1.321915,0.425951,-0.4538923,1.254894,0.1629894,-0.1453461,1.412358,0.1620457,-0.4487326,1.387721,0.002148391,0.01937532,1.404003,0.08309455,-0.4386703,1.363194,-0.03562062,-0.2294474,1.380779,0.4112888,-0.2164397,1.417829,NA,NA,NotTracked,NotTracked,
-0.9907227,0.2412109,0.184082,1.232422,0.2270508,-0.387207,-1,-1,-1,0,-1,0,-4,-1,-7,2,-1,0,-2,-17,-2,-19,21.6875,21.6875,21.6875,-83.875,-83.875,-83.875,6.405943,7.012276,5.41007,7.626997,2.845946,5.866734,-0.02550683,-0.4957327,1.313871,0.4031375,-0.5123041,1.337048,0.1779227,0.2881667,1.392805,-0.06791961,-0.485221,1.321541,0.4311848,-0.4970611,1.300643,0.1669644,-0.1462637,1.412954,0.1688256,-0.4501215,1.388631,0.004195131,0.01988418,1.406245,0.08992007,-0.4404121,1.36301,-0.03481349,-0.2298187,1.380884,0.3997124,-0.2375721,1.41227,NA,NA,NotTracked,NotTracked,
-0.9619141,0.2382813,0.1425781,0.9838867,0.2714844,-0.09521484,-1,0,-1,-1,0,0,0,-1,6,1,-2,-1,-2,1,4,6,9.3125,9.3125,9.3125,2.8125,2.8125,2.8125,6.469453,7.009343,5.442168,7.971477,2.77211,5.462112,-0.02455041,-0.4948753,1.312715,0.3998832,-0.5243669,1.35837,0.1803837,0.2881122,1.392744,-0.06646349,-0.4858509,1.321469,0.4279859,-0.5069427,1.328944,0.1701718,-0.1468052,1.413315,0.1722015,-0.4506692,1.389362,0.004947341,0.01960183,1.405214,0.0931638,-0.4410041,1.363116,-0.03403286,-0.2298333,1.380955,0.3952467,-0.2438457,1.411775,NA,NA,NotTracked,NotTracked,
-0.9394531,0.230957,0.1713867,0.9545898,0.2773438,-0.0234375,0,-1,-2,-2,-1,1,0,0,7,0,-2,0,0,0,1,1,3.4375,3.4375,3.4375,94.8125,94.8125,94.8125,6.493837,7.003864,5.461032,7.988559,2.769606,5.553559,-0.02250686,-0.4945397,1.312494,0.3964645,-0.522853,1.367722,0.1827991,0.2881992,1.393081,-0.0622125,-0.4902146,1.315106,0.4250073,-0.5043979,1.34673,0.1721461,-0.1469288,1.413696,0.1738149,-0.4509223,1.390027,0.005919806,0.01949324,1.404394,0.09469981,-0.4412998,1.363451,-0.0331751,-0.2294427,1.381321,0.3941141,-0.2458292,1.413411,NA,NA,NotTracked,NotTracked,
