ALX,ALY,ALZ,ARX,ARY,ARZ,EMG0L,EMG1L,EMG2L,EMG3L,EMG4L,EMG5L,EMG6L,EMG7L,EMG0R,EMG1R,EMG2R,EMG3R,EMG4R,EMG5R,EMG6R,EMG7R,GLX,GLY,GLZ,GRX,GRY,GRZ,ORL,OPL,OYL,ORR,OPR,OYR,LHNX,LHNY,LHNZ,RHNX,RHNY,RHNZ,HX,HY,HZ,LTX,LTY,LTZ,RTX,RTY,RTZ,SpineMidX,SpineMidY,SpineMidZ,SpineBaseX,SpineBaseY,SpineBaseZ,ShoulderLeftX,ShoulderLeftY,ShoulderLeftZ,ShoulderRightX,ShoulderRightY,ShoulderRightZ,ElbowLeftX,ElbowLeftY,ElbowLeftZ,ElbowRightX,ElbowRightY,ElbowRightZ,Myo_Pose_left,Myo_Pose_Right,Kinect_pose_left,Kinect_pose_right
-0.9516602,0.2739258,0.1704102,0.9277344,0.3422852,-0.0004882813,-7,-5,-2,-1,0,0,-2,-1,0,-1,1,-1,-9,-18,12,3,2.875,2.875,2.875,-0.4375,-0.4375,-0.4375,6.440103,6.978348,6.527549,7.537603,3.024825,5.570003,-0.02720569,-0.4980581,1.328873,0.3697405,-0.4947562,1.311326,0.1833844,0.2674033,1.384734,-0.06634605,-0.48313,1.341754,0.3232915,-0.4683881,1.308,0.1571418,-0.1495946,1.430097,0.1606365,-0.4497057,1.403286,-0.003568615,0.02356246,1.420148,0.08218399,-0.4402212,1.3756,-0.04461307,-0.2264293,1.399209,0.3764195,-0.227728,1.387485,NA,NA,NotTracked,NotTracked,
-0.9423828,0.2529297,0.1884766,0.890625,0.2919922,-0.01123047,-2,-2,-2,-2,-2,-1,1,-1,-2,-1,-2,0,0,-3,-9,-5,7.125,7.125,7.125,9,9,9,6.477616,6.970482,6.556036,7.550962,3.022594,5.564861,-0.02705316,-0.4969232,1.327243,0.3719812,-0.4945928,1.310921,0.1833778,0.2648488,1.38196,-0.06410646,-0.4920396,1.334195,0.3272966,-0.4729001,1.307668,0.158864,-0.1508747,1.430155,0.1617916,-0.4505759,1.403218,-0.003691179,0.02286698,1.420328,0.08335441,-0.4411612,1.375887,-0.04324526,-0.2272318,1.399019,0.377735,-0.2275444,1.386835,NA,NA,NotTracked,NotTracked,
-0.9379883,0.2412109,0.199707,0.9360352,0.3212891,-0.001464844,-11,-4,-2,-1,-2,0,-1,-1,2,1,-1,-1,6,10,5,-2,16.125,16.125,16.125,16.125,16.125,16.125,6.491318,6.968302,6.548018,7.571474,3.01866,5.569243,-0.02631762,-0.4892184,1.327635,0.373501,-0.4940117,1.31019,0.1828552,0.2632941,1.380941,-0.06233163,-0.487326,1.3165,0.3288585,-0.4752516,1.309658,0.1603974,-0.1519149,1.430242,0.1625248,-0.4510846,1.403307,-0.003762241,0.0223784,1.42039,0.08411398,-0.4417365,1.376141,-0.04192373,-0.2277491,1.398767,0.3792705,-0.2271087,1.385906,NA,NA,NotTracked,NotTracked,
-0.9580078,0.2441406,0.1777344,0.9091797,0.2944336,-0.02001953,0,0,-1,1,1,0,-2,-1,-1,-1,-1,0,4,7,-2,5,18.5625,18.5625,18.5625,-1.75,-1.75,-1.75,6.475171,6.97297,6.489515,7.562266,3.018411,5.586491,-0.02274142,-0.4882683,1.326377,0.3741399,-0.4938757,1.309379,0.1828382,0.2626231,1.380036,-0.06091611,-0.4913701,1.330444,0.3330761,-0.4697736,1.316225,0.1618327,-0.1528406,1.430137,0.1635963,-0.4518729,1.403379,-0.002312837,0.02090402,1.420059,0.08510686,-0.4425868,1.376384,-0.04053822,-0.2279314,1.398092,0.3800885,-0.2269348,1.385254,NA,NA,NotTracked,NotTracked,
-0.9677734,0.2709961,0.1479492,0.9213867,0.2954102,0,-3,-3,-1,0,-1,0,2,-1,0,0,-2,0,-3,-4,-31,-12,9.9375,9.9375,9.9375,-17.3125,-17.3125,-17.3125,6.46752,6.974227,6.442175,7.51216,3.021159,5.607699,-0.02021086,-0.4878883,1.327464,0.3739819,-0.4937687,1.308945,0.183052,0.2624504,1.379566,-0.05912466,-0.484695,1.332183,0.3321573,-0.4821561,1.308303,0.1629595,-0.1532392,1.430271,0.1648607,-0.4522144,1.403585,-0.001121056,0.0206015,1.420488,0.08633443,-0.4429309,1.376756,-0.03943193,-0.2275495,1.397641,0.3805152,-0.2270183,1.385094,NA,NA,NotTracked,NotTracked,
-0.9575195,0.2685547,0.1660156,0.9321289,0.3037109,0.008789063,-3,-1,0,-2,0,-1,-2,-2,0,0,-1,-1,-2,2,10,5,-9.6875,-9.6875,-9.6875,-10.9375,-10.9375,-10.9375,6.473694,6.967032,6.454193,7.475031,3.01833,5.623569,-0.01962486,-0.4873962,1.325361,0.3735633,-0.4942545,1.308976,0.1832525,0.2623148,1.379357,-0.05963055,-0.4684219,1.344187,0.3328024,-0.4926314,1.310006,0.1636271,-0.1533564,1.430332,0.1656391,-0.452249,1.403637,-0.001389373,0.02052625,1.420594,0.08712006,-0.4429933,1.376833,-0.03835421,-0.2269259,1.397399,0.3811514,-0.227037,1.3852,NA,NA,NotTracked,NotTracked,
-0.9492188,0.2475586,0.199707,0.9321289,0.2983398,0.01123047,-1,0,-1,0,-1,1,-3,0,0,-2,-1,-1,-3,-3,19,8,-6.125,-6.125,-6.125,-1.375,-1.375,-1.375,6.474017,6.959664,6.475132,7.449196,3.009792,5.641448,-0.0196456,-0.4881031,1.326049,0.3732696,-0.4943655,1.312087,0.1834228,0.2622671,1.37931,-0.0600534,-0.4784999,1.337533,0.3322532,-0.4722349,1.312647,0.1644105,-0.1535411,1.430661,0.1660322,-0.4523471,1.403794,-0.001520658,0.02053319,1.420762,0.08749101,-0.4431156,1.377008,-0.03770619,-0.2267999,1.397492,0.3820224,-0.2272769,1.385905,NA,NA,NotTracked,NotTracked,
-0.9492188,0.262207,0.1879883,0.9194336,0.3217773,0.009765625,1,-2,-2,-1,-2,-2,-1,-2,1,0,-1,0,-3,-1,9,7,-5,-5,-5,5.9375,5.9375,5.9375,6.473639,6.960711,6.483254,7.437166,2.999747,5.663446,-0.02010745,-0.4885832,1.327193,0.3733037,-0.4940581,1.31526,0.1836946,0.2622367,1.37938,-0.06026536,-0.4819679,1.342141,0.3338402,-0.4650929,1.320714,0.1653412,-0.1537938,1.431047,0.1666449,-0.4526977,1.403898,-0.0005972314,0.01981569,1.421381,0.08805522,-0.4434865,1.377252,-0.03710001,-0.2266108,1.397465,0.3827184,-0.2276872,1.386745,NA,NA,NotTracked,NotTracked,
-0.9584961,0.2685547,0.1870117,0.9233398,0.3173828,0.009277344,-5,-4,-1,-2,-1,0,0,-3,0,0,-2,-2,-3,-3,-13,-7,-9.5625,-9.5625,-9.5625,-1.9375,-1.9375,-1.9375,6.464266,6.963463,6.48865,7.425552,2.988258,5.67997,-0.02000474,-0.4875164,1.328484,0.3730225,-0.4948088,1.318254,0.1840764,0.262408,1.379903,-0.05834153,-0.4881733,1.336688,0.3341958,-0.4683637,1.3217,0.1661322,-0.1537694,1.431365,0.1674541,-0.4525845,1.404191,-0.0008767438,0.01988126,1.421625,0.08894822,-0.4433996,1.377693,-0.03664587,-0.2261946,1.39797,0.3837954,-0.2290653,1.388019,NA,NA,NotTracked,NotTracked,
-0.9506836,0.2675781,0.1894531,0.9248047,0.2949219,0.01171875,2,1,0,0,1,1,-6,2,-2,-2,-2,-1,-3,-4,-1,-3,-8.75,-8.75,-8.75,-1.9375,-1.9375,-1.9375,6.458192,6.965397,6.498595,7.425154,2.980249,5.676335,-0.0186715,-0.488376,1.329726,0.3740877,-0.4964865,1.321333,0.1842425,0.2627206,1.380185,-0.05830378,-0.4698086,1.341682,0.3340704,-0.4635374,1.322102,0.1666089,-0.153755,1.431566,0.1682104,-0.4525923,1.40451,0.0009136258,0.01952303,1.422775,0.08965743,-0.4434432,1.378179,-0.03628922,-0.2258677,1.398432,0.384714,-0.2296816,1.389521,NA,NA,NotTracked,NotTracked,
-0.9414063,0.2685547,0.1992188,0.9331055,0.2978516,0.01611328,-2,-4,-4,-1,-1,1,-1,0,-3,-2,-2,0,-4,-6,11,-1,-1.4375,-1.4375,-1.4375,1.1875,1.1875,1.1875,6.45683,6.96745,6.504196,7.438102,2.975059,5.663509,-0.0196033,-0.4857048,1.331162,0.3744296,-0.4961268,1.324399,0.1845627,0.2629732,1.380411,-0.05784092,-0.4788599,1.336897,0.3340535,-0.4604079,1.324375,0.1668252,-0.1537038,1.431878,0.1683181,-0.4526452,1.404937,0.001065935,0.01944204,1.423196,0.0897633,-0.443394,1.378797,-0.03604687,-0.2257445,1.398933,0.3852743,-0.2304786,1.39061,NA,NA,NotTracked,NotTracked,
-0.953125,0.2583008,0.1938477,0.9301758,0.2817383,0.008300781,0,-2,-1,-1,-1,-1,1,-2,-4,-3,-1,0,-10,-10,-34,-23,8.125,8.125,8.125,-3.75,-3.75,-3.75,6.466137,6.973318,6.497328,7.459133,2.96921,5.638034,-0.01919189,-0.4861445,1.33167,0.3749412,-0.4971303,1.326826,0.1846639,0.2634091,1.380781,-0.06051547,-0.4704897,1.343136,0.3345882,-0.4665819,1.323246,0.1671165,-0.1535799,1.432187,0.1687349,-0.4525572,1.405489,0.001064386,0.0196291,1.423587,0.09018269,-0.4433344,1.379374,-0.03580728,-0.2257759,1.399223,0.3858374,-0.230472,1.391749,NA,NA,NotTracked,NotTracked,
-0.9487305,0.2602539,0.1826172,0.9282227,0.2851563,0.008300781,-4,-2,-1,-2,-1,0,0,0,-5,-3,-2,-3,-1,0,-5,-8,7.375,7.375,7.375,-2.75,-2.75,-2.75,6.467427,6.975988,6.489566,7.47591,2.966628,5.6161,-0.01958999,-0.4852681,1.331715,0.3762913,-0.4958678,1.329003,0.1849339,0.2640035,1.38106,-0.05797956,-0.4832795,1.340308,0.33461,-0.4715469,1.321846,0.1673602,-0.1533641,1.432367,0.1689762,-0.4523776,1.405842,0.001087425,0.01968322,1.423571,0.09037694,-0.4431966,1.379683,-0.03571332,-0.2257304,1.399363,0.3864306,-0.2302978,1.393167,NA,NA,NotTracked,NotTracked,
-0.9521484,0.2670898,0.1875,0.940918,0.3051758,-0.05859375,1,1,-1,-3,-3,1,0,0,-8,-30,-31,-9,-5,-3,-13,-9,1.4375,1.4375,1.4375,-7.75,-7.75,-7.75,6.472025,6.977227,6.486784,7.485327,2.96642,5.597682,-0.01936949,-0.4866313,1.331672,0.3779069,-0.4960652,1.331331,0.1849585,0.2644651,1.381484,-0.0584809,-0.4721398,1.335849,0.3346132,-0.4665763,1.322699,0.1675581,-0.1531572,1.432644,0.1690352,-0.4521472,1.406225,0.0004922033,0.01986425,1.423517,0.09042841,-0.4429558,1.380005,-0.03565159,-0.2257259,1.399483,0.3869986,-0.2297188,1.394477,NA,NA,NotTracked,NotTracked,
-0.9541016,0.3374023,0.1289063,1.099121,0.4790039,-0.1142578,-2,-18,-31,-4,-1,0,-1,1,0,5,0,-5,-3,3,-1,-12,-3.375,-3.375,-3.375,-44,-44,-44,6.501318,6.957652,6.51205,7.380505,3.036988,5.653693,-0.0172442,-0.482318,1.323987,0.3758381,-0.4929624,1.327482,0.1849122,0.2650311,1.382288,-0.05933948,-0.467208,1.335171,0.3436976,-0.4821165,1.335,0.1677185,-0.1529917,1.432939,0.169317,-0.4520319,1.406735,-0.0001559977,0.02008766,1.423427,0.09066116,-0.4428669,1.380323,-0.03560231,-0.2255521,1.399557,0.388208,-0.2284881,1.396119,NA,NA,NotTracked,NotTracked,
-0.9707031,0.4765625,0.2885742,0.9848633,0.6210938,0.08544922,5,6,-11,33,64,18,3,-2,-5,-40,-3,4,-18,-4,2,-4,-37.6875,-37.6875,-37.6875,26.5625,26.5625,26.5625,6.486127,6.842,6.565581,7.165977,3.18913,5.888327,-0.01264405,-0.478408,1.293538,0.3643408,-0.4697385,1.306388,0.184536,0.2663565,1.384178,-0.03291392,-0.4874555,1.268368,0.332195,-0.4640031,1.314023,0.1679616,-0.1526617,1.433264,0.1699476,-0.4518706,1.407089,0.0001925376,0.0199963,1.423545,0.09115043,-0.442847,1.380574,-0.03670894,-0.2215871,1.399269,0.3938663,-0.2185169,1.400337,NA,NA,NotTracked,NotTracked,
-0.9350586,0.6704102,0.3842773,0.8520508,0.8383789,0.2856445,-1,13,9,-6,-29,-4,0,-2,9,52,11,10,-4,-3,3,5,-16.125,-16.125,-16.125,32.5,32.5,32.5,6.475036,6.723881,6.577539,7.042891,3.472044,6.095636,-0.01110291,-0.4335342,1.236565,0.3368873,-0.426322,1.256188,0.1839657,0.2682488,1.386234,-0.03298218,-0.4591261,1.249857,0.3097463,-0.4341485,1.277333,0.1680998,-0.1522781,1.433498,0.1703233,-0.4515865,1.407218,0.0003628987,0.0199347,1.423502,0.09138516,-0.4426707,1.380726,-0.04047065,-0.2051834,1.393504,0.4036178,-0.201316,1.400616,NA,NA,Unknown,Unknown,
-0.8579102,0.6298828,0.5874023,0.5620117,0.9091797,0.3647461,-1,2,7,-1,9,5,7,10,-12,17,10,4,-10,-22,-4,-19,26.6875,26.6875,26.6875,58.9375,58.9375,58.9375,6.420646,6.375707,6.498102,7.007699,3.981579,6.29917,0.005706994,-0.375109,1.167287,0.3042944,-0.3425113,1.223871,0.1830291,0.2706471,1.39042,0.03332927,-0.4228975,1.1515,0.3236532,-0.4083284,1.256875,0.1681819,-0.1512536,1.433958,0.1706077,-0.4507437,1.407344,0.001048808,0.01992782,1.422413,0.09149006,-0.4421169,1.380969,-0.04672052,-0.1900759,1.379883,0.4136235,-0.1807988,1.388597,NA,NA,Unknown,Unknown,
-0.737793,0.7294922,0.6420898,0.4189453,0.8105469,0.3325195,3,-1,0,-8,-18,-2,-2,-2,11,10,5,0,8,-1,1,-7,55.0625,55.0625,55.0625,61.875,61.875,61.875,6.46655,5.9205,6.403437,7.04755,4.372214,6.428383,0.02945806,-0.2924941,1.107278,0.2851966,-0.2386278,1.171746,0.1812995,0.2731206,1.39678,0.04482052,-0.3216393,1.099409,0.2447801,-0.2299451,1.1971,0.1679629,-0.1490281,1.436023,0.1709845,-0.4480612,1.408646,0.001007597,0.02054324,1.421431,0.09206314,-0.4399496,1.382748,-0.05797982,-0.1804293,1.349293,0.43885,-0.1657929,1.364355,NA,NA,Unknown,Unknown,
-0.5688477,0.6918945,0.6098633,0.2299805,0.75,0.2700195,2,3,0,-1,-13,-7,-7,-22,7,4,7,-1,8,13,1,8,66.3125,66.3125,66.3125,84.9375,84.9375,84.9375,6.536757,5.573183,6.326952,7.147161,4.701876,6.529736,0.06465629,-0.205617,1.063091,0.2638894,-0.1541369,1.153688,0.179883,0.2755342,1.402144,0.09304776,-0.2369734,1.070267,0.2072278,-0.1334272,1.1774,0.1666107,-0.1461821,1.438972,0.1691312,-0.4443611,1.411157,0.0009230446,0.02145547,1.420531,0.09072055,-0.4356653,1.385823,-0.0725631,-0.1553846,1.304191,0.455362,-0.1488303,1.334597,NA,NA,Unknown,Unknown,
-0.3535156,0.6503906,0.5087891,0.1538086,0.7714844,0.1806641,-2,3,5,4,-2,0,5,3,4,-13,-19,-8,-12,-13,-2,-8,60.5,60.5,60.5,64.6875,64.6875,64.6875,6.618194,5.271062,6.257949,7.302725,4.946368,6.623446,0.0883173,-0.1290039,1.041375,0.1965084,-0.08942978,1.121809,0.1786105,0.2777706,1.406954,0.1143194,-0.1633869,1.058143,0.1567347,-0.08604959,1.1025,0.1674728,-0.1438054,1.43922,0.1678029,-0.4409205,1.412463,0.006580963,0.02462223,1.41576,0.08982995,-0.4319521,1.386758,-0.07607314,-0.1272052,1.271049,0.4540596,-0.1283921,1.292065,NA,NA,Unknown,NotTracked,
-0.2319336,0.6479492,0.3891602,0.09667969,0.8564453,0.1064453,-11,9,9,-4,-14,0,11,14,-12,9,-5,-9,-12,-1,-13,-10,54.25,54.25,54.25,47,47,47,6.702651,5.075516,6.199217,7.384503,4.994539,6.660953,0.09705297,-0.08142388,1.030489,0.167806,-0.04880214,1.085595,0.177576,0.2804311,1.41168,0.1078792,-0.1163662,1.037833,0.1682583,-0.03983484,1.112083,0.1672689,-0.1415134,1.440754,0.1673624,-0.4379012,1.413566,0.01197803,0.03449044,1.413805,0.08973707,-0.4283124,1.388004,-0.07183876,-0.1040108,1.256083,0.4459985,-0.1147257,1.269219,NA,NA,NotTracked,NotTracked,
-0.1635742,0.6748047,0.3701172,0.02197266,1.075684,0.02294922,-9,3,1,1,-5,2,-2,-1,12,0,-1,-3,2,-8,-39,7,39.1875,39.1875,39.1875,47.5,47.5,47.5,6.792487,4.983583,6.140354,7.462518,4.998222,6.673832,0.103095,-0.06216322,1.025275,0.2104169,-0.03852236,1.098276,0.1766826,0.2817433,1.41565,0.1219706,-0.09105165,1.019833,0.1627557,-0.02624722,1.068,0.1677297,-0.1408074,1.440632,0.1672602,-0.4373856,1.413821,0.009011486,0.03464064,1.41438,0.08967502,-0.4278691,1.388367,-0.07523904,-0.09396399,1.248311,0.4453344,-0.1026366,1.258505,NA,NA,NotTracked,NotTracked,
-0.06689453,0.7587891,0.3969727,-0.2832031,1.360352,-0.1186523,-3,0,6,7,7,0,-5,-15,2,-3,3,3,-7,3,3,4,23.8125,23.8125,23.8125,70.5625,70.5625,70.5625,6.860738,4.994723,6.10162,7.596971,5.078325,6.692278,0.1115561,-0.05794527,1.023924,0.1843549,-0.02232492,1.077653,0.1759954,0.2823927,1.417829,0.1202228,-0.0913952,1.021588,0.1690523,-0.009629398,1.094571,0.1679194,-0.1404136,1.440582,0.1671865,-0.4370676,1.413943,0.007635626,0.03516023,1.414745,0.08960138,-0.4276933,1.388423,-0.07483958,-0.08679636,1.242607,0.4427235,-0.0847219,1.245128,NA,NA,NotTracked,NotTracked,
-0.04443359,0.8344727,0.3857422,-0.3891602,1.402344,-0.1181641,-14,-4,-4,3,13,1,3,6,-10,-2,-2,-2,6,1,-16,-2,17.0625,17.0625,17.0625,77,77,77,6.887972,5.030631,6.074974,7.727655,5.271906,6.685004,0.1125125,-0.06229395,1.028496,0.2049766,0.009882673,1.092721,0.1763516,0.2826314,1.41995,0.1409245,-0.09572762,1.0257,0.1673184,0.02987052,1.073081,0.1681293,-0.139911,1.440671,0.1672106,-0.4363242,1.414405,0.007235867,0.03522442,1.414696,0.08968867,-0.4275778,1.389806,-0.07534257,-0.084241,1.240796,0.4286919,-0.0571634,1.231826,NA,NA,NotTracked,NotTracked,
-0.02978516,0.9331055,0.3823242,-0.34375,1.121094,-0.01855469,8,-10,-10,-1,2,2,4,16,19,13,2,1,-3,12,13,73,4.875,4.875,4.875,51.9375,51.9375,51.9375,6.896281,5.062344,6.051064,7.819764,5.588344,6.656791,0.1286237,-0.06884046,1.030607,0.213912,0.1087766,1.071069,0.176306,0.2834372,1.42112,0.1349026,-0.1032161,1.028955,0.2315274,0.1194042,1.025421,0.1677491,-0.1400354,1.440446,0.1663237,-0.4386498,1.414683,0.007078182,0.03520323,1.414656,0.08801154,-0.4306003,1.392663,-0.07679655,-0.08393318,1.241169,0.4343353,-0.02157323,1.207169,NA,NA,NotTracked,NotTracked,
-0.06005859,0.96875,0.3818359,-0.09521484,0.5224609,0.009765625,0,4,6,-6,-14,-7,0,3,16,12,4,3,7,7,-3,62,0.3125,0.3125,0.3125,-13.5625,-13.5625,-13.5625,6.897233,5.084908,6.033899,7.791096,5.984942,6.577219,0.1318071,-0.07202693,1.033203,0.2336459,0.1988995,1.065461,0.1739665,0.2844066,1.421976,0.1319937,-0.1016642,1.025815,0.2024173,0.2274989,1.0946,0.1669067,-0.1364389,1.44163,0.167037,-0.4272391,1.41351,0.01708542,0.04112366,1.409341,0.08753172,-0.4183409,1.389149,-0.07844456,-0.08240033,1.245584,0.4174848,0.0405978,1.188014,NA,NA,Unknown,Unknown,
-0.05419922,0.9824219,0.3686523,0.06689453,0.2905273,0,3,-3,-9,1,4,2,3,4,1,2,0,0,14,15,5,-3,-1.0625,-1.0625,-1.0625,-29.125,-29.125,-29.125,6.897825,5.086734,6.024955,7.704148,6.116238,6.513634,0.1389996,-0.07108185,1.032537,0.2482616,0.2576843,1.067842,0.1735785,0.2833428,1.422641,0.1408824,-0.1047959,1.032288,0.2311015,0.2373771,1.1148,0.1698236,-0.1318682,1.440789,0.1682569,-0.4214,1.413154,0.02726274,0.04903921,1.411052,0.08867408,-0.4122812,1.388814,-0.0782261,-0.07590719,1.254986,0.4117488,0.0703446,1.183844,NA,NA,Unknown,Unknown,
-0.06591797,0.9833984,0.3432617,0.05712891,0.1811523,-0.03369141,0,-1,3,-1,-10,-2,1,4,10,14,5,26,2,12,-4,-10,-0.1875,-0.1875,-0.1875,-9.375,-9.375,-9.375,6.900472,5.065872,6.02515,7.679512,6.090763,6.520332,0.1410013,-0.06554677,1.030548,0.2469603,0.2662721,1.072039,0.1743287,0.2828234,1.423168,0.1409543,-0.10169,1.030224,0.2174086,0.2605407,1.098063,0.1716448,-0.1288971,1.440827,0.1688676,-0.4179728,1.413494,0.03330227,0.05688306,1.415028,0.08954487,-0.4086269,1.389837,-0.07623819,-0.07063827,1.256729,0.4102525,0.07711089,1.183748,NA,NA,Lasso,Unknown,
-0.03515625,0.940918,0.3364258,0.1518555,0.4189453,0.1206055,24,11,10,4,-4,0,-5,2,-1,-2,-2,-10,-19,-2,7,9,-1.625,-1.625,-1.625,-71.8125,-71.8125,-71.8125,6.903074,5.032297,6.033713,7.611104,5.791321,6.561736,0.1418247,-0.05849722,1.02575,0.2464556,0.2059567,1.077399,0.1728391,0.2819907,1.425092,0.1445156,-0.09373745,1.030125,0.2156649,0.1812282,1.079875,0.1719239,-0.1289324,1.440514,0.1688388,-0.4180988,1.413539,0.0323949,0.05516487,1.413667,0.08931444,-0.4089473,1.389807,-0.07624944,-0.06964445,1.253594,0.4100227,0.06681358,1.183674,NA,NA,Unknown,Unknown,
-0.04345703,0.9423828,0.3535156,-0.06884766,0.8789063,0.1918945,7,1,4,1,-2,0,-6,0,7,-9,-15,-63,-14,-2,-54,25,-4.125,-4.125,-4.125,-82.6875,-82.6875,-82.6875,6.901914,5.008667,6.051529,7.496294,5.373218,6.603114,0.1391155,-0.05080375,1.018889,0.2547428,0.0880207,1.098042,0.1728841,0.2849666,1.427179,0.1494803,-0.0824739,1.015654,0.2630149,0.05859698,1.07062,0.1699928,-0.1317931,1.440149,0.1664479,-0.4296554,1.414618,0.03137173,0.05440345,1.413125,0.08688113,-0.4200068,1.393179,-0.08520851,-0.07105144,1.249789,0.4242556,-0.01638719,1.195075,NA,NA,Unknown,NotTracked,
-0.05712891,0.9042969,0.3740234,-0.3266602,1.192871,0.2260742,-10,6,11,-1,21,4,-1,1,-19,63,39,4,23,2,3,-21,-2.875,-2.875,-2.875,-105.375,-105.375,-105.375,6.896372,5.002892,6.081584,7.330883,4.764812,6.634452,0.1231873,-0.04757494,1.011672,0.1435782,-0.0545507,1.010021,0.1761664,0.2854736,1.43102,0.1341299,-0.08172897,1.011571,0.1569676,-0.03275293,0.9806858,0.1696566,-0.1340714,1.441158,0.1669877,-0.433331,1.41652,0.03099462,0.05365457,1.412446,0.08802293,-0.4244498,1.394043,-0.07444628,-0.07092868,1.235783,0.4365715,-0.05498541,1.259851,NA,NA,NotTracked,NotTracked,
-0.02832031,0.8955078,0.3896484,1.664063,1.407715,0.05615234,-3,4,4,2,2,1,-1,-1,-26,18,20,27,6,2,-7,-41,-8.6875,-8.6875,-8.6875,40.875,40.875,40.875,6.882751,4.997574,6.10731,7.402549,3.895416,6.588901,0.1311455,-0.04149934,1.010838,0.252427,-0.251914,1.152184,0.1765509,0.2863702,1.433135,0.1355725,-0.07978266,1.014463,0.2885427,-0.2401601,1.111714,0.1684289,-0.1345703,1.443882,0.1670564,-0.4324917,1.417024,0.03041119,0.05323041,1.412178,0.08840659,-0.4235026,1.393771,-0.0707363,-0.07153554,1.235191,0.4251376,-0.1061962,1.308491,NA,NA,NotTracked,Unknown,
-0.1274414,0.8779297,0.4145508,0.8232422,1.38623,-0.109375,0,-6,-14,-2,-31,-7,-6,0,-31,-35,-39,-3,18,-12,-33,-47,-5.25,-5.25,-5.25,-119,-119,-119,6.862716,4.989942,6.103633,7.298304,3.745641,6.595006,0.1316365,-0.03890856,1.015787,0.2605433,-0.3361883,1.197201,0.1770998,0.2872546,1.43549,0.162002,-0.07134568,1.021143,0.2897162,-0.3278843,1.171756,0.1677004,-0.1352038,1.44559,0.1668522,-0.4326712,1.417536,0.03010858,0.05296981,1.412021,0.08842374,-0.423481,1.393625,-0.05960355,-0.07398763,1.226979,0.4096976,-0.1387783,1.326556,NA,NA,Lasso,Unknown,
0.1035156,0.909668,0.3701172,0.4262695,0.9101563,0.02246094,-7,-9,-12,3,36,7,2,5,16,21,11,18,6,7,3,26,-0.4375,-0.4375,-0.4375,-56,-56,-56,6.861386,4.975228,6.085166,7.156192,3.821975,6.592909,0.1309501,-0.03906775,1.022376,0.2739602,-0.3229726,1.216932,0.1780628,0.2880458,1.436821,0.1317631,-0.0720964,1.016971,0.3049572,-0.3092385,1.193429,0.1675957,-0.1356273,1.446501,0.1669148,-0.432985,1.418245,0.029881,0.05278947,1.411934,0.0885424,-0.4235303,1.393611,-0.05767868,-0.07464857,1.229134,0.4089127,-0.1452701,1.336468,NA,NA,Unknown,Unknown,
0.07666016,0.9243164,0.4047852,0.5708008,0.7983398,0.09423828,3,-5,-5,-7,-14,-4,-4,-1,-16,36,36,33,-29,-12,16,-8,4.3125,4.3125,4.3125,6.75,6.75,6.75,6.868746,4.976817,6.074763,7.178195,3.890499,6.560667,0.1339997,-0.0416658,1.023507,0.271121,-0.3151869,1.215559,0.1792104,0.2884654,1.437611,0.1680557,-0.07282196,1.0267,0.2479584,-0.3051867,1.269923,0.1676362,-0.1358493,1.447339,0.1669482,-0.4332388,1.418807,0.02967254,0.05251591,1.411779,0.08867165,-0.4235435,1.39353,-0.06265129,-0.07453346,1.23781,0.4084709,-0.1473374,1.342328,NA,NA,Lasso,Unknown,
-0.05517578,0.9228516,0.3974609,0.7226563,0.7539063,0.175293,-7,7,3,12,23,4,-5,-20,-43,-39,-22,-7,16,6,23,30,-8.75,-8.75,-8.75,12.0625,12.0625,12.0625,6.857943,4.986615,6.069899,7.220743,3.925451,6.536306,0.1340105,-0.04192051,1.024706,0.2713094,-0.3113923,1.20971,0.1801399,0.288779,1.438987,0.1493048,-0.07372565,1.020224,0.2533973,-0.3016046,1.274585,0.1673474,-0.1358616,1.449144,0.1670304,-0.4331926,1.419227,0.02953618,0.05229858,1.411777,0.08883239,-0.423467,1.393527,-0.06410421,-0.07491506,1.241742,0.4084929,-0.1473284,1.344892,NA,NA,Unknown,Unknown,
-0.02246094,0.9702148,0.387207,0.5693359,0.6982422,0.1738281,-3,-3,2,6,7,1,-2,1,-3,-4,-10,-39,-23,6,3,-18,-1.9375,-1.9375,-1.9375,3.5625,3.5625,3.5625,6.852172,4.985925,6.066167,7.220459,3.947758,6.533473,0.1348714,-0.04190508,1.027707,0.2713329,-0.306864,1.205543,0.180637,0.2890178,1.440619,0.1502518,-0.07388912,1.02441,0.2509302,-0.3007231,1.273498,0.1670771,-0.1359096,1.450296,0.1671325,-0.4331294,1.419574,0.02938643,0.05203062,1.411792,0.08901827,-0.4233847,1.393494,-0.08757467,-0.08112323,1.262268,0.409149,-0.1464357,1.345672,NA,NA,Lasso,Unknown,
0.01611328,0.9194336,0.3691406,0.6333008,0.6943359,0.1591797,-2,-7,-7,-7,-17,-3,3,7,-16,-13,-5,1,9,8,-27,-13,-0.125,-0.125,-0.125,4.375,4.375,4.375,6.853502,4.980186,6.057764,7.234315,3.952119,6.528837,0.135566,-0.04171269,1.031722,0.2729589,-0.3039227,1.203615,0.1810103,0.2890702,1.44254,0.147829,-0.07651896,1.035105,0.2510108,-0.2966453,1.271652,0.1667788,-0.1359909,1.4518,0.1672061,-0.43308,1.420099,0.02913243,0.05181123,1.412277,0.08915964,-0.4233415,1.393555,-0.08167125,-0.08099476,1.256541,0.4100803,-0.1455812,1.346287,NA,NA,Lasso,Unknown,
-0.02099609,0.8793945,0.3549805,0.6621094,0.6513672,0.2016602,9,0,-11,-7,5,2,1,-3,-3,2,-1,-1,-18,-16,-9,5,-0.5625,-0.5625,-0.5625,4.25,4.25,4.25,6.858385,4.98397,6.053946,7.231562,3.926165,6.538332,0.1354457,-0.04474279,1.032706,0.2750422,-0.30547,1.203381,0.1810331,0.2891303,1.443541,0.1421448,-0.07939805,1.031708,0.2536961,-0.2976699,1.267743,0.1669805,-0.1360468,1.451893,0.1670749,-0.4329369,1.420671,0.02890481,0.05154891,1.412615,0.08920383,-0.4232052,1.393695,-0.08816076,-0.07973697,1.260062,0.4123841,-0.1442875,1.347885,NA,NA,Unknown,Unknown,
-0.1254883,0.7905273,0.3520508,0.5605469,0.5068359,0.1630859,2,-1,2,1,2,1,-1,3,-3,1,1,1,4,-3,-10,-5,-2.25,-2.25,-2.25,18.5625,18.5625,18.5625,6.855524,5.013747,6.056945,7.250185,3.88906,6.523715,0.1349231,-0.0564724,1.034682,0.2790894,-0.3195391,1.207525,0.1809562,0.2892529,1.444441,0.1424829,-0.09041362,1.0323,0.2515404,-0.3219912,1.2678,0.1670545,-0.1359645,1.452138,0.1667823,-0.4324874,1.421558,0.02860855,0.05121762,1.412924,0.08919287,-0.4227352,1.394042,-0.09052572,-0.07926902,1.261658,0.4143317,-0.1466388,1.350412,NA,NA,Unknown,Unknown,
-0.2363281,0.6962891,0.3100586,0.5576172,0.6225586,0.1010742,-1,-3,-2,-4,3,1,1,4,-6,-7,-1,-3,1,-8,-6,-11,1.375,1.375,1.375,30.25,30.25,30.25,6.853713,5.085917,6.052546,7.355989,3.684005,6.47008,0.1277872,-0.09149365,1.045442,0.2918452,-0.3639227,1.216551,0.1812893,0.2896926,1.445006,0.1128762,-0.1189698,1.032043,0.3266688,-0.4112331,1.2443,0.1674414,-0.1355313,1.451695,0.1661394,-0.4313711,1.422643,0.02810105,0.05033182,1.413301,0.08882597,-0.4211929,1.394981,-0.08119182,-0.08132844,1.264517,0.4146394,-0.1486411,1.355353,NA,NA,Unknown,Unknown,
-0.2685547,0.734375,0.3417969,0.8525391,0.5175781,0.07666016,-5,3,10,6,-5,-2,7,11,2,4,3,-1,-1,-3,-3,-1,19.1875,19.1875,19.1875,-48.75,-48.75,-48.75,6.880556,5.287485,6.011932,7.407743,3.467614,6.353341,0.1172065,-0.1544354,1.067285,0.3284849,-0.4054166,1.236796,0.1816476,0.2899283,1.445092,0.08961058,-0.1754912,1.053119,0.3572336,-0.4264061,1.239,0.1674356,-0.1355823,1.45204,0.1660779,-0.4317704,1.422887,0.02682839,0.04740151,1.413632,0.08864807,-0.4210401,1.394755,-0.08222385,-0.09249476,1.274625,0.4130326,-0.1674255,1.367934,NA,NA,Unknown,Unknown,
-0.309082,0.7363281,0.3564453,0.9501953,0.5449219,0.03271484,0,-12,-6,-6,-4,-1,-5,-8,1,0,1,2,2,9,16,8,11.375,11.375,11.375,-73,-73,-73,6.884307,5.360368,6.001885,7.483944,3.236717,6.144537,0.09099695,-0.2310936,1.10184,0.3623976,-0.4437513,1.277938,0.1818619,0.2900341,1.445154,0.06072783,-0.2471045,1.08819,0.3952371,-0.4499753,1.265944,0.1679756,-0.1359338,1.453084,0.1688253,-0.4332284,1.424027,0.02559835,0.04440299,1.413704,0.0916962,-0.4230051,1.39513,-0.1089283,-0.1029981,1.299973,0.4101941,-0.1819532,1.379958,NA,NA,Unknown,Unknown,
-0.4580078,0.7709961,0.4482422,1.052246,0.3164063,-0.06347656,-10,-3,-7,-7,-4,-1,4,1,-3,-2,-4,-2,-1,-2,2,2,-43.75,-43.75,-43.75,-75.375,-75.375,-75.375,6.810325,5.805093,5.990524,7.741235,2.968553,5.673758,0.05543473,-0.307366,1.147915,0.3873438,-0.4726671,1.327448,0.1827494,0.29065,1.444999,0.03011774,-0.3222497,1.135014,0.4269348,-0.4623104,1.316154,0.1689028,-0.136814,1.453489,0.1727969,-0.4373573,1.424524,0.02400819,0.04270667,1.414396,0.09599707,-0.4279769,1.395006,-0.1084856,-0.1273692,1.331176,0.4069628,-0.198981,1.395942,NA,NA,Unknown,NotTracked,
