ALX,ALY,ALZ,ARX,ARY,ARZ,EMG0L,EMG1L,EMG2L,EMG3L,EMG4L,EMG5L,EMG6L,EMG7L,EMG0R,EMG1R,EMG2R,EMG3R,EMG4R,EMG5R,EMG6R,EMG7R,GLX,GLY,GLZ,GRX,GRY,GRZ,ORL,OPL,OYL,ORR,OPR,OYR,LHNX,LHNY,LHNZ,RHNX,RHNY,RHNZ,HX,HY,HZ,LTX,LTY,LTZ,RTX,RTY,RTZ,SpineMidX,SpineMidY,SpineMidZ,SpineBaseX,SpineBaseY,SpineBaseZ,ShoulderLeftX,ShoulderLeftY,ShoulderLeftZ,ShoulderRightX,ShoulderRightY,ShoulderRightZ,ElbowLeftX,ElbowLeftY,ElbowLeftZ,ElbowRightX,ElbowRightY,ElbowRightZ,Myo_Pose_left,Myo_Pose_Right,Kinect_pose_left,Kinect_pose_right
-0.965332,0.2231445,0.1738281,0.9296875,0.3076172,0.02929688,0,1,-1,0,-1,-3,-2,-1,-1,-3,-2,0,-1,-2,0,1,-4.875,-4.875,-4.875,-0.4375,-0.4375,-0.4375,6.439445,7.02479,1.926802,7.455253,3.018304,6.306188,-0.1343123,-0.4911057,1.283531,0.2710323,-0.4884649,1.284403,0.06797832,0.2847932,1.361642,-0.1716664,-0.4902181,1.284731,0.3057748,-0.4843247,1.278684,0.05541793,-0.1486779,1.389828,0.06087774,-0.4543754,1.364914,-0.1098583,0.02222803,1.375403,-0.01835077,-0.4443095,1.334436,-0.1445897,-0.2267547,1.355824,0.2799741,-0.2235311,1.364208,NA,NA,NotTracked,NotTracked,
-0.96875,0.2231445,0.1704102,0.9213867,0.309082,0.04589844,0,-3,0,0,-1,-4,-1,-3,-4,-3,1,0,-1,-1,-2,-2,-1.875,-1.875,-1.875,2.3125,2.3125,2.3125,6.430142,7.024492,1.925943,7.449025,3.018651,6.314516,-0.1355171,-0.4905398,1.283554,0.2696397,-0.488335,1.28378,0.06727988,0.2848226,1.36166,-0.1731424,-0.4881893,1.286616,0.3047121,-0.4910707,1.279526,0.05486515,-0.1487218,1.389745,0.06058195,-0.454394,1.36484,-0.110527,0.02250893,1.375911,-0.01860697,-0.4443301,1.334364,-0.1450465,-0.2268409,1.355773,0.2794274,-0.2234901,1.364079,NA,NA,NotTracked,NotTracked,
-0.9638672,0.2294922,0.1694336,0.9130859,0.3095703,0.03027344,2,1,-2,-1,-2,-1,0,1,-8,-1,0,-1,-1,-3,0,-1,-1.375,-1.375,-1.375,1.625,1.625,1.625,6.429634,7.023987,1.926652,7.445849,3.017867,6.321633,-0.1350131,-0.4907746,1.283951,0.2690701,-0.4885006,1.284661,0.06662664,0.2846599,1.36158,-0.16869,-0.4984184,1.266742,0.3072099,-0.4847693,1.283657,0.05441059,-0.1487908,1.389737,0.06006063,-0.4545335,1.364826,-0.1112166,0.02210293,1.375821,-0.01909526,-0.4444577,1.334312,-0.1458221,-0.2267603,1.355728,0.2784458,-0.2238025,1.363822,NA,NA,NotTracked,NotTracked,
-0.9672852,0.2275391,0.175293,0.9306641,0.3144531,0.04052734,0,-1,-2,-1,-1,1,0,-2,-1,1,1,1,1,-1,-3,2,-0.25,-0.25,-0.25,1.375,1.375,1.375,6.430095,7.024188,1.927348,7.447609,3.017151,6.320317,-0.1352832,-0.4907481,1.284605,0.2679411,-0.4883806,1.285063,0.06585622,0.2845986,1.361586,-0.172409,-0.4898674,1.285408,0.3048856,-0.4927764,1.286211,0.054153,-0.1488293,1.38976,0.05994049,-0.4545184,1.364819,-0.1117217,0.0218835,1.375845,-0.01921322,-0.4444589,1.3343,-0.1465693,-0.2268838,1.35577,0.2773817,-0.2236983,1.363812,NA,NA,NotTracked,NotTracked,
-0.9638672,0.2294922,0.1835938,0.9248047,0.3129883,0.03417969,-2,-1,-1,-1,-1,1,-1,-1,3,-2,0,-2,2,0,-2,0,-0.625,-0.625,-0.625,-1.5,-1.5,-1.5,6.424181,7.025329,1.926204,7.449255,3.0166,6.31675,-0.1359807,-0.4913582,1.285007,0.2675202,-0.4886027,1.285194,0.06533201,0.2845284,1.361269,-0.175767,-0.4846175,1.290667,0.3078256,-0.4813863,1.2951,0.05386985,-0.1488722,1.389711,0.05978279,-0.4545257,1.364812,-0.1125347,0.02153293,1.37578,-0.01935556,-0.4444934,1.334272,-0.1469561,-0.2269026,1.355934,0.2766227,-0.2232427,1.363853,NA,NA,NotTracked,NotTracked,
-0.9667969,0.2241211,0.1723633,0.918457,0.3183594,0.03515625,-1,-1,0,-1,1,-1,-11,-4,0,-2,-2,-1,0,-1,-2,-1,-2.3125,-2.3125,-2.3125,-0.5,-0.5,-0.5,6.422677,7.027691,1.925691,7.443672,3.017956,6.318961,-0.1370311,-0.4922726,1.285895,0.2664003,-0.4891112,1.28572,0.06497588,0.2843556,1.361138,-0.1765939,-0.4826283,1.2938,0.2999663,-0.4918339,1.277294,0.05353075,-0.1489305,1.389702,0.05953162,-0.4545833,1.364762,-0.1128479,0.02141272,1.375729,-0.01959121,-0.4445903,1.33417,-0.1474171,-0.2269631,1.35606,0.2760164,-0.2234244,1.36392,NA,NA,NotTracked,NotTracked,
-0.9633789,0.2280273,0.1816406,0.9223633,0.3144531,0.03808594,-1,-1,-1,-1,-2,-3,0,2,-3,-2,-1,-2,0,0,0,-2,-0.1875,-0.1875,-0.1875,-2.375,-2.375,-2.375,6.421863,7.027638,1.925696,7.43814,3.020942,6.316956,-0.1376312,-0.4934012,1.284567,0.2655001,-0.489168,1.28479,0.06461918,0.2842878,1.361024,-0.1748295,-0.4860806,1.288218,0.3032703,-0.4841595,1.284928,0.0530832,-0.1490008,1.389622,0.0593091,-0.4546373,1.364684,-0.1134233,0.02121541,1.375766,-0.01984059,-0.4446914,1.334002,-0.1480945,-0.2271728,1.356036,0.2753967,-0.2236586,1.364056,NA,NA,NotTracked,NotTracked,
-0.965332,0.2275391,0.1845703,0.934082,0.3876953,-0.06884766,-1,-1,0,-2,-1,-2,-2,1,8,-18,-25,-7,-3,-2,-6,12,0.0625,0.0625,0.0625,-34.0625,-34.0625,-34.0625,6.421863,7.027638,1.925696,7.412488,3.036186,6.321318,-0.1374168,-0.4931329,1.283966,0.2648056,-0.4892415,1.284543,0.06419753,0.284437,1.360845,-0.1750754,-0.4943195,1.284814,0.3037121,-0.4849491,1.285158,0.05269222,-0.1490088,1.389456,0.05906161,-0.4545666,1.364581,-0.1133724,0.02218481,1.376286,-0.02010966,-0.4445886,1.333742,-0.1485548,-0.2271271,1.355783,0.2747723,-0.2237376,1.364247,NA,NA,NotTracked,NotTracked,
-0.9663086,0.2255859,0.1728516,1.076172,0.3164063,0.03173828,-1,1,-1,0,-1,5,2,0,-15,-33,-28,2,0,0,0,-4,-0.0625,-0.0625,-0.0625,-52.4375,-52.4375,-52.4375,6.412243,7.029059,1.908517,7.246612,3.090357,6.391529,-0.1376686,-0.4930649,1.283773,0.2622994,-0.4855894,1.275962,0.0637754,0.2844967,1.360697,-0.1748258,-0.4871488,1.287352,0.299729,-0.482032,1.27675,0.05217629,-0.1490245,1.389279,0.05854377,-0.4545484,1.36436,-0.1139696,0.02212564,1.375952,-0.02063666,-0.4445791,1.333414,-0.1489225,-0.2270239,1.355678,0.2742281,-0.2230829,1.36453,NA,NA,NotTracked,NotTracked,
-0.9609375,0.2182617,0.1704102,1.033203,0.5629883,0.2851563,-1,0,-2,0,0,-2,-2,0,-14,-35,-11,-10,-7,-1,5,-3,-4.625,-4.625,-4.625,-21.9375,-21.9375,-21.9375,6.402139,7.02787,1.907053,6.994371,3.234994,6.619477,-0.1383558,-0.4934404,1.283962,0.2482427,-0.4692971,1.245696,0.06350136,0.2844102,1.36061,-0.1754986,-0.4882634,1.287761,0.2405773,-0.4967955,1.2615,0.05117315,-0.149102,1.388826,0.05755451,-0.4545482,1.363789,-0.1145064,0.02165474,1.375316,-0.02172009,-0.4445578,1.332561,-0.1491921,-0.227161,1.355535,0.2742188,-0.2192299,1.366827,NA,NA,NotTracked,NotTracked,
-0.9633789,0.2182617,0.1860352,0.8339844,0.7446289,0.4760742,-2,-2,-3,-2,-2,-2,-3,-2,-1,-33,-17,3,-3,2,4,1,-0.8125,-0.8125,-0.8125,18.9375,18.9375,18.9375,6.395665,7.026944,1.904303,6.779297,3.61673,6.872461,-0.1383068,-0.4927138,1.283331,0.2241248,-0.4219461,1.198626,0.06311803,0.2844586,1.360761,-0.1759329,-0.4979101,1.287874,0.2048516,-0.4430828,1.216389,0.04963025,-0.1491434,1.388469,0.0547034,-0.4544828,1.36294,-0.1149587,0.02153601,1.375235,-0.02458046,-0.4442337,1.33166,-0.1494029,-0.2271949,1.355379,0.2761488,-0.2089003,1.372189,NA,NA,NotTracked,NotTracked,
-0.9780273,0.2265625,0.1899414,0.4697266,0.8647461,0.4487305,-2,0,-1,-1,-1,-3,-2,-1,9,43,2,-17,-7,0,0,-2,6.9375,6.9375,6.9375,7.4375,7.4375,7.4375,6.400838,7.028665,1.902434,6.709695,4.027237,7.005968,-0.1384633,-0.4928494,1.283335,0.1922148,-0.334806,1.149014,0.06285075,0.2845117,1.360847,-0.1760188,-0.4873192,1.287338,0.2131827,-0.3706265,1.149727,0.04747292,-0.148948,1.387925,0.04986355,-0.453763,1.361432,-0.1150124,0.02174453,1.375417,-0.02919471,-0.4430637,1.330686,-0.1494934,-0.2270432,1.355184,0.2761662,-0.1940273,1.374246,NA,NA,NotTracked,Unknown,
-0.96875,0.2280273,0.1743164,0.09960938,0.746582,0.4384766,1,1,-1,-2,-4,-1,-1,3,-10,-31,-33,-11,-10,-2,-5,-12,9.375,9.375,9.375,39.0625,39.0625,39.0625,6.419197,7.030535,1.904267,6.685762,4.64001,7.172735,-0.1379731,-0.491208,1.282377,0.1602857,-0.2182748,1.120435,0.06263479,0.2846294,1.360961,-0.1759336,-0.4860894,1.288366,0.1614714,-0.2532015,1.12585,0.04682232,-0.1487647,1.387741,0.04882446,-0.453571,1.361087,-0.1149893,0.02177102,1.374932,-0.03017068,-0.442911,1.330614,-0.1494171,-0.2266972,1.354724,0.2805249,-0.1791257,1.367292,NA,NA,NotTracked,Unknown,
-0.9594727,0.2280273,0.1645508,-0.105957,0.8349609,0.4311523,-3,-2,-2,0,-1,-2,-2,-1,-4,-7,9,-2,-5,5,-5,-4,11.375,11.375,11.375,63.125,63.125,63.125,6.439446,7.030413,1.905811,6.765964,5.086765,7.318163,-0.1373714,-0.4905377,1.281389,0.1350339,-0.1029069,1.127662,0.06259199,0.2846865,1.361074,-0.1751848,-0.49647,1.284149,0.1528548,-0.1123004,1.102509,0.04629202,-0.148554,1.387761,0.04820786,-0.4532848,1.36109,-0.1143535,0.02209001,1.374632,-0.0307269,-0.4426126,1.330853,-0.1495263,-0.2261357,1.35418,0.2944722,-0.1761111,1.342066,NA,NA,NotTracked,Closed,
-0.9692383,0.2216797,0.1542969,-0.1582031,0.7519531,0.4082031,-1,0,1,0,-1,-3,-1,-2,-2,13,5,8,7,2,1,-19,10.75,10.75,10.75,53.8125,53.8125,53.8125,6.462309,7.029915,1.892706,6.890285,5.445496,7.510037,-0.1365025,-0.4900157,1.27949,0.1151693,-0.01230693,1.146564,0.06266208,0.2846364,1.361404,-0.1741182,-0.4943921,1.284956,0.1351844,-0.0208972,1.121113,0.04616149,-0.1485718,1.387739,0.04789136,-0.4535435,1.361018,-0.1132251,0.02128372,1.372431,-0.03131023,-0.4430646,1.331482,-0.1491729,-0.2255253,1.35303,0.2947657,-0.173828,1.314778,NA,NA,NotTracked,Unknown,
-0.9731445,0.2216797,0.1542969,-0.2797852,0.7431641,0.3408203,0,-1,0,-1,-1,1,1,4,40,30,29,17,0,4,-1,10,8.9375,8.9375,8.9375,31.625,31.625,31.625,6.470181,7.029711,1.889922,7.090408,5.734169,7.791516,-0.1364824,-0.489835,1.277955,0.1146215,0.02405972,1.177871,0.0621816,0.28493,1.361939,-0.1744832,-0.4925987,1.285226,0.1152689,0.05685328,1.147077,0.04516749,-0.1487198,1.387004,0.04722693,-0.4542591,1.360762,-0.1132806,0.0221769,1.372792,-0.03244344,-0.4441001,1.333123,-0.1486085,-0.2253225,1.351695,0.3050716,-0.1640871,1.272425,NA,NA,NotTracked,Unknown,
-0.9682617,0.2270508,0.1425781,-0.3208008,0.7084961,0.3261719,-3,-1,-2,0,-3,-1,-1,-2,-9,-16,-7,-11,-4,-1,-2,1,-0.5,-0.5,-0.5,4.4375,4.4375,4.4375,6.493904,7.027437,1.903565,7.204426,5.857515,7.992379,-0.1360447,-0.488878,1.277776,0.08008574,0.09223861,1.201217,0.06143071,0.285982,1.362494,-0.1737673,-0.4878231,1.282132,0.1061627,0.08720437,1.174333,0.04614032,-0.1488485,1.38673,0.04689726,-0.4546462,1.36053,-0.1131049,0.02345642,1.373777,-0.03298408,-0.4446259,1.334232,-0.1481792,-0.2248284,1.350915,0.3033952,-0.1647675,1.26324,NA,NA,NotTracked,Unknown,
-0.9575195,0.2143555,0.1591797,-0.5239258,0.7119141,0.1665039,-2,-3,-1,-2,-4,-2,0,-1,-24,-7,-4,-11,-3,-2,-6,-7,-7.25,-7.25,-7.25,-19.25,-19.25,-19.25,6.483926,7.026532,1.903378,7.263907,5.955515,8.160851,-0.135612,-0.4888808,1.276381,0.08656231,0.09344509,1.221177,0.06107808,0.2863904,1.362638,-0.1732444,-0.4893337,1.282216,0.1117087,0.107995,1.226125,0.04696964,-0.1491551,1.386276,0.04650919,-0.4551113,1.360345,-0.1130731,0.02343343,1.373424,-0.03348206,-0.4451679,1.335142,-0.1479538,-0.2243718,1.350264,0.3028359,-0.1623645,1.257307,NA,NA,NotTracked,Unknown,
-0.9624023,0.2397461,0.1630859,-0.5478516,0.7485352,0.04541016,-3,-1,-2,-3,-4,-3,4,-1,2,27,15,10,5,1,-7,-10,-8.5,-8.5,-8.5,-19.8125,-19.8125,-19.8125,6.472062,7.02763,1.902055,7.268562,5.993104,8.236615,-0.1353601,-0.48968,1.277074,0.09002657,0.09343238,1.232932,0.06097025,0.2865071,1.362599,-0.1730293,-0.4909138,1.282957,0.08560889,0.1111117,1.20765,0.04768543,-0.1494197,1.385857,0.04629875,-0.4554774,1.36006,-0.1129589,0.02412867,1.373988,-0.03359497,-0.4454846,1.335461,-0.1478844,-0.2243396,1.350052,0.3029796,-0.1613762,1.25349,NA,NA,NotTracked,Unknown,
-0.9648438,0.2260742,0.1689453,-0.5654297,0.8349609,0.1254883,-1,-2,-1,0,-1,-5,-6,-2,-7,-4,-6,1,-1,-5,-4,0,-6,-6,-6,10.3125,10.3125,10.3125,6.456737,7.031167,1.899855,7.246264,5.990745,8.175259,-0.1361324,-0.4906088,1.278378,0.09182011,0.09096264,1.230797,0.06086707,0.2865144,1.362604,-0.1735263,-0.4942952,1.282989,0.08277996,0.09945823,1.197929,0.04806792,-0.1496029,1.3855,0.04601543,-0.4558327,1.359718,-0.1127439,0.02444642,1.374214,-0.0338089,-0.445802,1.335796,-0.147806,-0.2242516,1.349679,0.3025858,-0.1610916,1.251029,NA,NA,NotTracked,Unknown,
-0.965332,0.2392578,0.1713867,-0.5219727,0.8466797,0.1635742,-2,-2,0,-1,0,-1,-4,-3,3,2,-3,-1,1,1,3,-2,-2.3125,-2.3125,-2.3125,19.875,19.875,19.875,6.456985,7.032856,1.904891,7.2251,5.987014,8.101079,-0.1361313,-0.490719,1.278606,0.09432732,0.08922803,1.226592,0.06078367,0.2864849,1.362591,-0.1735295,-0.4874027,1.282339,0.08201913,0.09111387,1.1874,0.04842425,-0.1498186,1.385184,0.04585707,-0.4561395,1.359366,-0.112632,0.02449832,1.374294,-0.03389306,-0.4460375,1.335982,-0.1477636,-0.2243596,1.349549,0.3025016,-0.1615844,1.251666,NA,NA,NotTracked,Unknown,
-0.9609375,0.2226563,0.171875,-0.5566406,0.8671875,0.1088867,-2,-1,-1,2,-4,2,0,2,2,-7,-4,-5,1,-7,-4,0,2.625,2.625,2.625,31.1875,31.1875,31.1875,6.454442,7.033194,1.903566,7.203616,5.999801,7.993477,-0.1365595,-0.4906357,1.277553,0.09489363,0.1091667,1.226849,0.06040037,0.2866459,1.362407,-0.1736168,-0.495223,1.281389,0.1043702,0.1041353,1.185023,0.0487113,-0.1500085,1.384867,0.04575575,-0.4564118,1.359068,-0.1124928,0.02471174,1.374419,-0.03395932,-0.4462216,1.336148,-0.1477026,-0.224258,1.349367,0.3021514,-0.1628245,1.254643,NA,NA,NotTracked,Unknown,
-0.965332,0.2373047,0.1616211,-0.6118164,0.9116211,0.1694336,-1,0,-1,-1,1,-1,0,-2,-1,9,2,4,0,-2,-3,-3,2.9375,2.9375,2.9375,54.625,54.625,54.625,6.452849,7.034779,1.894513,7.208894,6.010609,7.8541,-0.1358204,-0.4901232,1.277189,0.1130664,0.1266588,1.225469,0.05935743,0.2871336,1.362213,-0.1727549,-0.4980119,1.280833,0.1359781,0.1258207,1.19264,0.04894929,-0.1501548,1.38454,0.04565164,-0.4567377,1.358639,-0.1125608,0.02343824,1.372125,-0.03408831,-0.4464366,1.336262,-0.1476839,-0.2242362,1.349157,0.3027586,-0.1636302,1.258806,NA,NA,NotTracked,Unknown,
-0.9472656,0.2275391,0.1674805,-0.6733398,0.8085938,0.1669922,-1,-1,-1,-3,-2,-2,1,0,3,11,3,7,9,1,6,6,-1.9375,-1.9375,-1.9375,69.375,69.375,69.375,6.452784,7.035753,1.89339,7.269251,6.048968,7.701448,-0.1359451,-0.4896793,1.275515,0.1026531,0.1814131,1.258949,0.05783909,0.2876826,1.361399,-0.1754139,-0.4773598,1.285389,0.05280505,0.1663895,1.2555,0.04744089,-0.1485753,1.381414,0.04525975,-0.4558356,1.357907,-0.1124574,0.02392197,1.372453,-0.03441124,-0.4456004,1.335966,-0.1475631,-0.2236217,1.348263,0.3080726,-0.1626469,1.268074,NA,NA,NotTracked,NotTracked,
-0.9570313,0.2216797,0.1831055,-0.7543945,0.7128906,0.109375,-3,-2,-1,-1,-3,-3,-5,-1,2,-15,-7,-4,-1,-2,-4,-5,6.25,6.25,6.25,72.6875,72.6875,72.6875,6.443846,7.040873,1.880089,7.401298,6.108934,7.655556,-0.1361082,-0.4913597,1.276504,0.1048913,0.2209862,1.26704,0.05749564,0.2877383,1.360926,-0.1707089,-0.5039908,1.276474,0.07730551,0.1870718,1.245537,0.04739721,-0.147175,1.380562,0.04511379,-0.4543166,1.357201,-0.1117643,0.02306993,1.369514,-0.03469912,-0.4440301,1.335011,-0.1474992,-0.222645,1.347239,0.3238292,-0.1545278,1.281137,NA,NA,NotTracked,NotTracked,
-0.9702148,0.2192383,0.175293,-0.7680664,0.6518555,0.04882813,-1,-3,0,-1,-1,-1,1,-3,11,11,9,2,2,-1,-1,7,16.625,16.625,16.625,59.8125,59.8125,59.8125,6.451313,7.050286,1.864128,7.519007,6.152327,7.672771,-0.1356423,-0.4907846,1.275212,0.1090221,0.2216966,1.268023,0.05773485,0.2874503,1.359598,-0.1727777,-0.4936759,1.280511,0.08467035,0.1876489,1.243857,0.04784118,-0.1452787,1.379367,0.04538377,-0.4518385,1.356041,-0.1104215,0.0226282,1.366385,-0.03455308,-0.44137,1.332909,-0.146996,-0.2213724,1.345553,0.3381778,-0.1444839,1.290744,NA,NA,NotTracked,NotTracked,
-0.9882813,0.2016602,0.1650391,-0.7607422,0.5859375,-0.03808594,-1,-2,-2,-2,-1,-1,-3,0,-14,-14,6,-14,-4,-2,-4,-12,18.375,18.375,18.375,40.25,40.25,40.25,6.460697,7.065806,1.826164,7.622309,6.188252,7.71663,-0.1362332,-0.4890904,1.275418,0.111493,0.2356426,1.267333,0.05919732,0.2872475,1.358397,-0.1721274,-0.4953425,1.27567,0.09388641,0.1946863,1.2415,0.04822007,-0.1430244,1.378621,0.0458591,-0.4478187,1.355249,-0.1085341,0.02398517,1.364167,-0.03405393,-0.4367161,1.330597,-0.146695,-0.219235,1.342715,0.3481362,-0.1350086,1.299701,NA,NA,NotTracked,NotTracked,
-0.987793,0.1982422,0.1303711,-0.6987305,0.5839844,-0.08886719,0,-1,-2,-1,-2,-3,2,-1,-3,2,-12,1,2,2,-2,5,20.1875,20.1875,20.1875,12.5625,12.5625,12.5625,6.471858,7.073217,1.802103,7.721298,6.209911,7.778858,-0.1346557,-0.4880344,1.273912,0.1388346,0.2054525,1.289173,0.06206804,0.2868823,1.356436,-0.1724679,-0.4932336,1.279927,0.1441315,0.1869505,1.324,0.04869494,-0.1414635,1.378108,0.04659716,-0.4450753,1.354846,-0.1059704,0.02558662,1.360646,-0.03336539,-0.4337219,1.32924,-0.1461123,-0.2160615,1.339615,0.3553269,-0.1279102,1.304783,NA,NA,NotTracked,NotTracked,
-0.9907227,0.2050781,0.128418,-0.6977539,0.6508789,-0.1010742,0,1,0,-1,0,2,2,0,-2,31,23,8,0,1,4,0,14.1875,14.1875,14.1875,-6.9375,-6.9375,-6.9375,6.483027,7.07465,1.794419,7.7331,6.200659,7.807501,-0.1332567,-0.4858853,1.272418,0.1260048,0.2039278,1.277962,0.06557503,0.2860957,1.354709,-0.1718888,-0.4933285,1.280268,0.1452903,0.2065187,1.29431,0.04928902,-0.139694,1.377495,0.04811091,-0.441134,1.35451,-0.1019204,0.0300745,1.357935,-0.03181292,-0.4300086,1.328166,-0.1454486,-0.2134922,1.336977,0.3505585,-0.1191731,1.305788,NA,NA,NotTracked,NotTracked,
-0.9726563,0.1801758,0.1333008,-0.690918,0.6708984,-0.1103516,1,0,-1,0,1,-2,0,0,0,-13,25,4,-3,-4,-5,6,5.6875,5.6875,5.6875,-13.3125,-13.3125,-13.3125,6.48091,7.073981,1.778384,7.724805,6.207346,7.819333,-0.1314906,-0.4861919,1.271386,0.1278519,0.2017148,1.27795,0.06872467,0.2851126,1.353662,-0.1676976,-0.4876082,1.276646,0.1509956,0.1992898,1.293548,0.04974999,-0.1391287,1.377045,0.04883363,-0.4402285,1.35436,-0.10108,0.03036896,1.35695,-0.03110453,-0.4292634,1.327883,-0.1447702,-0.2124038,1.335598,0.3535757,-0.118862,1.305949,NA,NA,NotTracked,NotTracked,
-0.9755859,0.1904297,0.1171875,-0.706543,0.7304688,-0.1132813,-3,-1,-1,-3,-2,-1,6,-2,-5,-1,2,1,2,4,2,15,-5.9375,-5.9375,-5.9375,-13.25,-13.25,-13.25,6.481678,7.076056,1.773281,7.697942,6.219346,7.819658,-0.1315243,-0.4860314,1.271119,0.1254216,0.2025362,1.276422,0.07069644,0.2847062,1.352931,-0.168927,-0.4916974,1.276676,0.1501782,0.1944056,1.295333,0.05041082,-0.1385882,1.376636,0.04959999,-0.4394075,1.354296,-0.1001733,0.03089033,1.356247,-0.03030447,-0.4284944,1.327683,-0.1442032,-0.2117732,1.334626,0.3525127,-0.1173121,1.306134,NA,NA,NotTracked,NotTracked,
-0.9736328,0.2021484,0.137207,-0.699707,0.7441406,-0.1069336,0,-1,-1,-2,-3,-2,1,0,-18,-15,-2,-11,-3,1,9,-10,-16,-16,-16,-10.875,-10.875,-10.875,6.474047,7.077116,1.78904,7.685344,6.212582,7.827959,-0.1302157,-0.4854125,1.272578,0.1253324,0.2025723,1.275504,0.0717557,0.284476,1.352559,-0.1654062,-0.4864418,1.27299,0.1505201,0.1951981,1.292906,0.05096752,-0.1381955,1.376315,0.05037976,-0.438925,1.354274,-0.09967978,0.03168933,1.355864,-0.02959229,-0.4280961,1.327622,-0.1438051,-0.2114033,1.334462,0.3521486,-0.117292,1.305596,NA,NA,NotTracked,NotTracked,
-0.9770508,0.2045898,0.1455078,-0.6811523,0.7353516,-0.09082031,-3,-4,-1,-1,-3,0,-2,-1,7,-1,20,8,3,-1,-1,-3,-18.0625,-18.0625,-18.0625,-4.75,-4.75,-4.75,6.45855,7.076858,1.802567,7.686164,6.201504,7.84188,-0.129507,-0.4860792,1.273657,0.1262464,0.1991678,1.275488,0.07242332,0.284328,1.352131,-0.1668367,-0.4879574,1.277118,0.1498669,0.1912568,1.293227,0.05135534,-0.1380286,1.37606,0.05064233,-0.4387972,1.354219,-0.09948073,0.03176951,1.355904,-0.02932029,-0.4280023,1.327692,-0.1435177,-0.2113569,1.334427,0.3534772,-0.1185828,1.303737,NA,NA,NotTracked,NotTracked,
-0.9736328,0.2143555,0.1499023,-0.6860352,0.7138672,-0.06982422,-2,-2,-2,-2,0,-3,-2,-3,3,-31,4,4,4,-1,4,-8,-15.5,-15.5,-15.5,-2.3125,-2.3125,-2.3125,6.449966,7.074487,1.812506,7.684009,6.196577,7.848972,-0.1292794,-0.4867187,1.273969,0.1274992,0.1960555,1.275961,0.07290277,0.2840168,1.351731,-0.1669328,-0.4889802,1.27957,0.1495742,0.1909668,1.293972,0.05156375,-0.1381277,1.375745,0.05060957,-0.4389568,1.354135,-0.1007432,0.03141271,1.359747,-0.0293711,-0.4281021,1.327709,-0.1432263,-0.2113246,1.334435,0.3557903,-0.1207732,1.301913,NA,NA,NotTracked,NotTracked,
-0.9667969,0.2172852,0.1655273,-0.6694336,0.7114258,-0.07128906,3,-1,0,0,2,-1,0,3,-3,-6,-15,-7,-4,-2,6,-10,-9.625,-9.625,-9.625,-4.0625,-4.0625,-4.0625,6.442951,7.067571,1.83182,7.676134,6.198586,7.847954,-0.1293891,-0.4867888,1.275101,0.1274469,0.1962129,1.276398,0.07295761,0.2840966,1.351661,-0.1663502,-0.4854,1.278817,0.1499215,0.193393,1.293389,0.05182197,-0.1381942,1.375639,0.05068186,-0.4390857,1.354107,-0.1003664,0.031512,1.35979,-0.02931415,-0.4282309,1.327753,-0.1429067,-0.2116257,1.334897,0.3568061,-0.1212765,1.300458,NA,NA,NotTracked,NotTracked,
-0.9697266,0.2104492,0.1630859,-0.6787109,0.7241211,-0.07324219,0,-2,0,-1,-1,-2,0,0,4,-20,-14,-14,-6,2,3,-2,-3.4375,-3.4375,-3.4375,-5.625,-5.625,-5.625,6.441928,7.063696,1.844222,7.661572,6.195724,7.840809,-0.1293353,-0.4865767,1.274284,0.1283287,0.1943106,1.276786,0.0730955,0.2840261,1.351529,-0.1642763,-0.4797326,1.27503,0.1488795,0.1847495,1.294187,0.0520294,-0.1382488,1.375443,0.05071964,-0.4391855,1.35401,-0.1012554,0.0323456,1.363053,-0.02928568,-0.4282975,1.32778,-0.142705,-0.2117378,1.3354,0.3570728,-0.1218978,1.299384,NA,NA,NotTracked,NotTracked,
-0.9741211,0.2158203,0.1518555,-0.6791992,0.7260742,-0.06054688,-3,-2,-2,-2,-1,-1,-2,-3,-4,-4,-2,-1,4,5,-2,-4,-2.3125,-2.3125,-2.3125,-8.9375,-8.9375,-8.9375,6.450472,7.060089,1.855471,7.636679,6.189343,7.827634,-0.129374,-0.4871266,1.275057,0.1270906,0.1968669,1.275816,0.07321703,0.2839966,1.351458,-0.1655057,-0.4970255,1.274778,0.1482076,0.1886393,1.293756,0.05209132,-0.1382885,1.375374,0.0505756,-0.4393654,1.353953,-0.1009553,0.03268561,1.364154,-0.02942822,-0.4284666,1.32792,-0.1424115,-0.211629,1.335857,0.3570624,-0.1223919,1.29818,NA,NA,NotTracked,NotTracked,
-0.96875,0.2167969,0.1645508,-0.6025391,0.6933594,-0.05078125,1,-1,0,0,-2,-2,1,1,-11,0,5,1,0,1,-5,8,-0.5,-0.5,-0.5,-10.1875,-10.1875,-10.1875,6.457141,7.057185,1.864432,7.605179,6.181204,7.804466,-0.1297043,-0.4875637,1.27516,0.1288868,0.1933858,1.278106,0.07333644,0.2839674,1.351447,-0.1669968,-0.4867756,1.280877,0.1477187,0.1851824,1.294005,0.05216091,-0.1383713,1.375341,0.05051456,-0.4397506,1.353926,-0.1002977,0.03236209,1.363296,-0.02952702,-0.4288353,1.328116,-0.1421526,-0.2121557,1.336268,0.3570562,-0.1232025,1.298072,NA,NA,NotTracked,NotTracked,
-0.972168,0.2158203,0.1518555,-0.5439453,0.6743164,0.02636719,-3,-1,-1,-2,-2,0,-2,-2,-45,-33,-8,-4,-1,-2,-8,-9,1,1,1,-25.6875,-25.6875,-25.6875,6.475965,7.056835,1.882973,7.518573,6.150738,7.735783,-0.130072,-0.4872428,1.274876,0.1317545,0.1905567,1.281261,0.07346503,0.283949,1.351437,-0.1683272,-0.4861105,1.282882,0.1476766,0.1882532,1.294373,0.05236192,-0.1384847,1.375317,0.05044144,-0.4400372,1.353946,-0.1000793,0.03226084,1.363162,-0.02960793,-0.4291358,1.328286,-0.1419091,-0.2127397,1.336786,0.3556722,-0.1247504,1.298799,NA,NA,NotTracked,NotTracked,
-0.9697266,0.2241211,0.1479492,-0.4814453,0.7060547,0.1079102,-1,0,-2,-2,-1,1,-2,-2,5,4,4,0,-1,1,-4,4,-5.4375,-5.4375,-5.4375,-57.25,-57.25,-57.25,6.478833,7.058028,1.890012,7.354841,6.050126,7.609514,-0.1300039,-0.4871069,1.27573,0.1342076,0.1903711,1.285768,0.07345143,0.2840276,1.351491,-0.1677648,-0.4848695,1.281873,0.143468,0.1789456,1.29875,0.05248647,-0.1385334,1.375329,0.05023988,-0.4403612,1.354047,-0.1007264,0.03226362,1.36486,-0.02983423,-0.4295373,1.328753,-0.1418129,-0.2130728,1.337243,0.3511592,-0.1292742,1.30438,NA,NA,NotTracked,NotTracked,
-0.9692383,0.2128906,0.1503906,-0.4335938,0.8203125,0.2260742,-3,-1,0,0,-1,-3,-1,-2,6,-3,-10,-3,-4,-5,-13,11,-14.5625,-14.5625,-14.5625,-84.5,-84.5,-84.5,6.466695,7.055665,1.899784,7.0899,5.759732,7.403852,-0.1302112,-0.4871345,1.276941,0.1343423,0.1797774,1.288223,0.07299372,0.2845794,1.351934,-0.1674952,-0.4860925,1.280558,0.1580162,0.1907736,1.274796,0.0525803,-0.1387599,1.375475,0.04992757,-0.4412694,1.354268,-0.1007278,0.03222601,1.3649,-0.03018614,-0.4304904,1.329545,-0.1418129,-0.2133097,1.338253,0.3412233,-0.1378556,1.320419,NA,NA,NotTracked,NotTracked,
-0.9677734,0.2280273,0.1567383,-0.2724609,0.8681641,0.3325195,2,-1,-3,-2,-2,-2,0,-2,17,12,8,1,2,0,-6,2,-16.625,-16.625,-16.625,-62,-62,-62,6.462302,7.052281,1.912862,6.922023,5.435505,7.256371,-0.1311471,-0.4870014,1.277556,0.1087309,0.1983118,1.266592,0.07196342,0.2850541,1.352634,-0.1681266,-0.4852712,1.282517,0.1402236,0.1865828,1.291913,0.05136109,-0.1403755,1.37655,0.04871439,-0.4441164,1.3547,-0.1013253,0.03184254,1.365221,-0.03134837,-0.433462,1.33105,-0.141855,-0.2140637,1.339208,0.3338984,-0.1450983,1.335062,NA,NA,NotTracked,NotTracked,
-0.9697266,0.2177734,0.1728516,-0.02001953,0.8974609,0.4858398,0,1,-2,-1,-1,4,2,1,7,0,1,-3,1,2,15,-8,-17.0625,-17.0625,-17.0625,-59.625,-59.625,-59.625,6.453687,7.048298,1.924849,6.791375,5.047286,7.136682,-0.1319632,-0.4890475,1.277522,0.16496,0.0124531,1.191432,0.07177626,0.2853001,1.352932,-0.1680745,-0.4851614,1.28042,0.1657926,0.04264218,1.195,0.05000792,-0.1419699,1.377781,0.04852296,-0.4462127,1.35473,-0.1030147,0.03038483,1.367368,-0.03135848,-0.4357055,1.330651,-0.1421825,-0.2155679,1.340548,0.3295437,-0.1527634,1.343266,NA,NA,NotTracked,Unknown,
-0.9711914,0.2202148,0.1621094,-0.03076172,0.8330078,0.3779297,0,-2,0,-1,-2,0,-3,2,6,-2,-12,-8,-2,0,-4,-13,-6.75,-6.75,-6.75,-52.9375,-52.9375,-52.9375,6.460999,7.043384,1.96473,6.67465,4.555695,7.023914,-0.1317324,-0.4890298,1.2778,0.1703526,-0.09308837,1.155025,0.07190334,0.2855244,1.353191,-0.1686836,-0.4857487,1.280267,0.1698863,-0.05041225,1.1455,0.04945957,-0.1427439,1.378277,0.04862691,-0.4468582,1.354734,-0.1033959,0.02939461,1.367927,-0.03107959,-0.4365325,1.330106,-0.1420452,-0.2171565,1.34134,0.3246655,-0.1576911,1.349238,NA,NA,NotTracked,Unknown,
-0.9619141,0.2314453,0.1796875,0.1264648,0.8491211,0.3364258,-2,-3,-2,-1,-3,-1,-2,-2,5,37,25,6,2,-3,-3,-35,-6.25,-6.25,-6.25,-21.25,-21.25,-21.25,6.465588,7.040349,1.98044,6.653679,4.191414,6.951272,-0.1324781,-0.4889096,1.278493,0.2042553,-0.192364,1.159579,0.07192126,0.285916,1.353729,-0.1691106,-0.4884476,1.279337,0.1676333,-0.1880575,1.167048,0.04916436,-0.1430111,1.378519,0.04865898,-0.4472339,1.354745,-0.1034041,0.02861464,1.367507,-0.03094183,-0.4368816,1.329837,-0.1421015,-0.2180156,1.342264,0.3432327,-0.1511411,1.381392,NA,NA,NotTracked,Unknown,
