ALX,ALY,ALZ,ARX,ARY,ARZ,EMG0L,EMG1L,EMG2L,EMG3L,EMG4L,EMG5L,EMG6L,EMG7L,EMG0R,EMG1R,EMG2R,EMG3R,EMG4R,EMG5R,EMG6R,EMG7R,GLX,GLY,GLZ,GRX,GRY,GRZ,ORL,OPL,OYL,ORR,OPR,OYR,LHNX,LHNY,LHNZ,RHNX,RHNY,RHNZ,HX,HY,HZ,LTX,LTY,LTZ,RTX,RTY,RTZ,SpineMidX,SpineMidY,SpineMidZ,SpineBaseX,SpineBaseY,SpineBaseZ,ShoulderLeftX,ShoulderLeftY,ShoulderLeftZ,ShoulderRightX,ShoulderRightY,ShoulderRightZ,ElbowLeftX,ElbowLeftY,ElbowLeftZ,ElbowRightX,ElbowRightY,ElbowRightZ,Myo_Pose_left,Myo_Pose_Right,Kinect_pose_left,Kinect_pose_right
-0.9775391,0.1777344,0.159668,0.9277344,0.2636719,0.03173828,0,-2,-2,-1,-1,0,-2,-1,0,-1,0,0,0,-1,-1,0,-1.1875,-1.1875,-1.1875,-1.1875,-1.1875,-1.1875,6.291181,7.104605,3.852841,7.443402,2.928034,2.771219,-0.1331802,-0.4960138,1.327894,0.2915987,-0.4871189,1.310892,0.07676094,0.285875,1.364346,-0.1701947,-0.4778908,1.3378,0.3334121,-0.4474995,1.280714,0.06419593,-0.148027,1.399409,0.06699361,-0.4530613,1.3793,-0.09698568,0.02560655,1.386386,-0.01188573,-0.4427012,1.349962,-0.1413988,-0.2352604,1.38714,0.2940356,-0.2234166,1.383439,NA,NA,NotTracked,NotTracked,
-0.9741211,0.1762695,0.1645508,0.9389648,0.2543945,0.03564453,0,-3,-2,0,1,-1,-1,-1,0,-1,0,-1,0,-1,0,0,2.5625,2.5625,2.5625,-0.1875,-0.1875,-0.1875,6.293417,7.102901,3.85335,7.442737,2.927962,2.769799,-0.1339111,-0.4973033,1.327283,0.2905399,-0.4877979,1.310864,0.07718911,0.2858315,1.364019,-0.1708222,-0.4825279,1.337749,0.328657,-0.4768918,1.30861,0.06437264,-0.1481477,1.398931,0.06713461,-0.4531616,1.378931,-0.09727935,0.02546358,1.386384,-0.01175343,-0.4428112,1.349545,-0.1410751,-0.2353929,1.38661,0.2944129,-0.2234838,1.383043,NA,NA,NotTracked,NotTracked,
-0.9799805,0.1713867,0.1601563,0.9467773,0.2543945,0.03613281,-2,0,-1,-2,-2,-1,-2,-3,1,0,0,-1,-3,-2,-1,-1,1.25,1.25,1.25,-0.9375,-0.9375,-0.9375,6.294488,7.102201,3.8519,7.442342,2.929476,2.769235,-0.1333037,-0.4978739,1.32514,0.2906328,-0.4878915,1.310445,0.07772205,0.2856698,1.363387,-0.1697998,-0.4806271,1.332307,0.328822,-0.4752221,1.307016,0.06462485,-0.1482195,1.398434,0.06732001,-0.4531953,1.378262,-0.09520052,0.02568161,1.38491,-0.01157999,-0.4427744,1.348977,-0.140611,-0.2354322,1.385956,0.2945855,-0.2237173,1.382778,NA,NA,NotTracked,NotTracked,
-0.9755859,0.1728516,0.1513672,0.9384766,0.2597656,0.03320313,-1,-1,-1,-2,0,0,1,1,0,0,0,-1,-2,1,-2,1,2.1875,2.1875,2.1875,-1.5625,-1.5625,-1.5625,6.292007,7.100903,3.845155,7.438236,2.930561,2.769183,-0.1325595,-0.4978642,1.323711,0.2915318,-0.4880332,1.309988,0.07803422,0.2856226,1.363176,-0.1675551,-0.4854494,1.327615,0.3334379,-0.4836611,1.3076,0.0649128,-0.1482091,1.398005,0.0675967,-0.4531827,1.377672,-0.09579767,0.02560459,1.385042,-0.01126572,-0.4427587,1.348246,-0.1403944,-0.235303,1.385137,0.2948202,-0.2238392,1.382277,NA,NA,NotTracked,NotTracked,
-0.9814453,0.171875,0.1542969,0.9389648,0.2573242,0.02929688,0,-2,-2,-1,-1,-1,-1,0,0,-1,0,-1,-1,-1,-1,-2,-0.875,-0.875,-0.875,1.625,1.625,1.625,6.292531,7.100605,3.845786,7.441332,2.929336,2.767189,-0.1325073,-0.4983112,1.323241,0.2915827,-0.4876629,1.309262,0.0782729,0.2856989,1.362903,-0.1696252,-0.4813237,1.33334,0.3129011,-0.4833719,1.283075,0.06519191,-0.1482678,1.397607,0.06789427,-0.4533899,1.377194,-0.0944535,0.02575455,1.384036,-0.01097661,-0.4429481,1.347678,-0.1401796,-0.2352552,1.384261,0.2950183,-0.2239521,1.381754,NA,NA,NotTracked,NotTracked,
-0.9785156,0.171875,0.1523438,0.9394531,0.2631836,0.04785156,-4,-1,-2,-1,-1,-1,-1,-2,0,-1,-1,-2,-1,0,-1,-3,-1.75,-1.75,-1.75,-0.3125,-0.3125,-0.3125,6.296283,7.102196,3.851331,7.440345,2.929955,2.76804,-0.1324948,-0.4973685,1.324114,0.2917578,-0.48879,1.309194,0.07850657,0.2856849,1.362711,-0.1686983,-0.4810247,1.331226,0.3327777,-0.4732988,1.312111,0.06549415,-0.1483354,1.397158,0.06810028,-0.4534901,1.376721,-0.09497896,0.02562459,1.38415,-0.01077137,-0.4430149,1.347147,-0.1399524,-0.2353111,1.383757,0.2952031,-0.2242281,1.381355,NA,NA,NotTracked,NotTracked,
-0.9741211,0.1757813,0.1582031,0.9389648,0.2592773,0.04199219,-3,-1,-3,-1,-1,-1,-1,0,0,0,-1,-2,0,1,-1,-3,-3.1875,-3.1875,-3.1875,0.375,0.375,0.375,6.295899,7.102999,3.856431,7.434955,2.930179,2.77121,-0.1325554,-0.4972475,1.323079,0.2916071,-0.4899313,1.307432,0.07875474,0.2856463,1.362414,-0.1690872,-0.4831437,1.33102,0.332846,-0.4976296,1.3063,0.06583415,-0.1484372,1.396751,0.06840059,-0.453694,1.376317,-0.09520147,0.02548472,1.384073,-0.01050959,-0.4432123,1.346804,-0.1396895,-0.2355665,1.38333,0.2953201,-0.2245416,1.380928,NA,NA,NotTracked,NotTracked,
-0.9760742,0.1738281,0.1567383,0.9443359,0.2617188,0.03466797,-2,-2,-1,0,-1,0,0,-1,1,0,-2,-1,-3,-1,-1,0,-1.5,-1.5,-1.5,-0.25,-0.25,-0.25,6.294957,7.102689,3.858366,7.435158,2.931282,2.771157,-0.132558,-0.4972437,1.323597,0.2922366,-0.4899152,1.308197,0.07890679,0.2856465,1.362327,-0.1685022,-0.4781652,1.329582,0.3305827,-0.4824,1.310381,0.06603699,-0.1484975,1.396452,0.06873041,-0.4537767,1.375859,-0.09559972,0.02527738,1.384105,-0.0101847,-0.44331,1.346338,-0.1395034,-0.2357495,1.383107,0.2954987,-0.2249149,1.38055,NA,NA,NotTracked,NotTracked,
-0.9770508,0.1831055,0.1557617,0.9516602,0.2573242,0.03466797,-4,-1,-1,0,-1,0,2,-2,0,0,1,1,-2,-3,1,-2,-1.1875,-1.1875,-1.1875,0.5,0.5,0.5,6.300418,7.100299,3.865054,7.43554,2.932632,2.769813,-0.1319652,-0.4972818,1.322004,0.2924542,-0.4889683,1.306973,0.07899274,0.2856526,1.362282,-0.1684137,-0.4923918,1.323222,0.335904,-0.489434,1.308667,0.06642897,-0.1484389,1.396114,0.06894638,-0.4537168,1.375564,-0.095935,0.02517491,1.384316,-0.009937015,-0.4432456,1.345956,-0.1392506,-0.2359429,1.382809,0.2956554,-0.224959,1.380282,NA,NA,NotTracked,NotTracked,
-0.9736328,0.175293,0.159668,0.9453125,0.2553711,0.03759766,-2,-1,0,-1,-2,-1,0,0,0,1,-1,0,0,-1,0,-2,-2.4375,-2.4375,-2.4375,-0.5625,-0.5625,-0.5625,6.300137,7.099917,3.867354,7.441378,2.93175,2.763411,-0.1322882,-0.4974723,1.322648,0.292923,-0.4890942,1.307024,0.07915327,0.2857695,1.362193,-0.1679729,-0.4869512,1.324593,0.3401574,-0.4964969,1.303429,0.06652147,-0.1484532,1.395971,0.06914249,-0.4538208,1.375253,-0.09420481,0.02542001,1.383364,-0.009764197,-0.4433489,1.345712,-0.1391183,-0.2360965,1.382523,0.2957779,-0.2253501,1.379858,NA,NA,NotTracked,NotTracked,
-0.9848633,0.1865234,0.1645508,0.9414063,0.2558594,0.03222656,-2,-3,1,-1,-1,2,0,-2,1,0,0,-1,-2,-2,-3,-1,-2.4375,-2.4375,-2.4375,0.125,0.125,0.125,6.302378,7.099298,3.87371,7.444218,2.930206,2.760281,-0.1318578,-0.4977483,1.323265,0.2931889,-0.4898733,1.308296,0.07920475,0.2857763,1.362175,-0.1657621,-0.4883323,1.318179,0.3354245,-0.477771,1.309929,0.0666226,-0.1484492,1.395899,0.06929792,-0.453808,1.37517,-0.09480733,0.02511334,1.383615,-0.009598991,-0.4433587,1.34558,-0.138952,-0.2361777,1.382357,0.2959359,-0.225535,1.379648,NA,NA,NotTracked,NotTracked,
-0.9731445,0.1762695,0.1567383,0.940918,0.2651367,0.03417969,-1,-4,-1,0,1,0,0,-1,-1,-1,1,0,-1,0,0,0,-1.875,-1.875,-1.875,0.125,0.125,0.125,6.302417,7.099643,3.875983,7.442925,2.930191,2.76046,-0.1322606,-0.497555,1.322645,0.2932688,-0.4903316,1.308007,0.07935039,0.2857735,1.362147,-0.1682959,-0.4854796,1.327425,0.3398875,-0.4899819,1.303806,0.06670453,-0.1484507,1.395821,0.06934116,-0.4538375,1.375089,-0.09229596,0.02554494,1.382484,-0.00957689,-0.4433738,1.345536,-0.1388807,-0.2360422,1.382265,0.2959227,-0.2255427,1.37957,NA,NA,NotTracked,NotTracked,
-0.9726563,0.1816406,0.1552734,0.9384766,0.2617188,0.03125,0,-2,-1,0,-1,-1,-1,0,0,-1,-1,-2,0,-1,-1,-2,-1.1875,-1.1875,-1.1875,-0.3125,-0.3125,-0.3125,6.299291,7.098755,3.875515,7.442373,2.930188,2.759764,-0.1313962,-0.4974898,1.322406,0.2919971,-0.4897167,1.307792,0.07941133,0.285749,1.362084,-0.1668958,-0.4815302,1.324552,0.3323352,-0.4830728,1.312758,0.06683738,-0.1484807,1.395661,0.06944044,-0.4538943,1.374932,-0.09351159,0.02517256,1.383124,-0.009493515,-0.4434529,1.345437,-0.1387528,-0.2359608,1.382128,0.295983,-0.2255014,1.379363,NA,NA,NotTracked,NotTracked,
-0.9750977,0.1801758,0.1625977,0.9375,0.2641602,0.03369141,1,0,-1,-1,-1,0,-2,0,-1,0,-1,-1,1,-3,0,-1,-1.3125,-1.3125,-1.3125,-0.3125,-0.3125,-0.3125,6.300108,7.098605,3.877709,7.440994,2.932302,2.760048,-0.1317158,-0.4978548,1.322096,0.2937371,-0.4891215,1.307193,0.07946159,0.2857713,1.361986,-0.1677696,-0.4868928,1.325137,0.3367707,-0.4653561,1.280071,0.06688625,-0.1484994,1.395461,0.06935741,-0.4539265,1.374786,-0.09414771,0.02514941,1.383494,-0.009568587,-0.4434843,1.345312,-0.1386307,-0.2359757,1.381892,0.2960491,-0.2254508,1.379183,NA,NA,NotTracked,NotTracked,
-0.9760742,0.1787109,0.1640625,0.9365234,0.2587891,0.02783203,-1,-2,-1,0,-1,0,-2,-2,1,-1,-3,-1,-2,0,2,-1,-2.0625,-2.0625,-2.0625,-0.5,-0.5,-0.5,6.300279,7.096865,3.881448,7.440301,2.932663,2.758801,-0.1318028,-0.4969698,1.322367,0.2933166,-0.4890871,1.306739,0.0795274,0.2857981,1.361931,-0.1680349,-0.4817026,1.325718,0.3335115,-0.4804075,1.302636,0.06696261,-0.148515,1.39533,0.06940178,-0.4539504,1.37468,-0.0946415,0.02498155,1.383771,-0.009527036,-0.443512,1.345248,-0.1385597,-0.2359928,1.381747,0.296129,-0.225521,1.379083,NA,NA,NotTracked,NotTracked,
-0.9780273,0.1870117,0.1660156,0.9399414,0.2612305,0.03417969,0,-2,1,0,0,-1,-1,-2,-1,-2,-2,0,-1,-2,-1,0,-1.375,-1.375,-1.375,1.125,1.125,1.125,6.300614,7.096066,3.88379,7.439338,2.932972,2.761017,-0.1322343,-0.4972161,1.32122,0.2925344,-0.4891938,1.306274,0.07956699,0.2857975,1.361948,-0.1678249,-0.4790455,1.323192,0.3269509,-0.4678684,1.260333,0.06709255,-0.1485418,1.395185,0.06951489,-0.4539768,1.374541,-0.09512342,0.02502189,1.384094,-0.009401282,-0.4435396,1.345123,-0.1384525,-0.2359203,1.381499,0.2960881,-0.2255924,1.378783,NA,NA,NotTracked,NotTracked,
-0.9780273,0.1870117,0.1660156,0.9545898,0.2558594,0.04248047,0,-1,-2,0,0,-1,-1,-1,-1,-1,-1,0,0,-3,0,-3,-1.375,-1.375,-1.375,-0.6875,-0.6875,-0.6875,6.300614,7.096066,3.88379,7.435983,2.932282,2.760891,-0.1320794,-0.4975278,1.320423,0.2919576,-0.4891063,1.306169,0.07960478,0.2858185,1.361921,-0.1673449,-0.4847825,1.312744,0.3235456,-0.4900538,1.280714,0.0672957,-0.1485479,1.394966,0.0697649,-0.4540226,1.374278,-0.09553653,0.02477686,1.383972,-0.009138874,-0.4436075,1.34482,-0.1383908,-0.235956,1.38136,0.2961223,-0.2256007,1.378537,NA,NA,NotTracked,NotTracked,
-0.9780273,0.1811523,0.1655273,0.9404297,0.2568359,0.015625,-1,-2,-1,-2,-2,-2,-3,-2,0,-1,7,2,-1,1,-2,1,0.125,0.125,0.125,-2.9375,-2.9375,-2.9375,6.303677,7.096221,3.887345,7.441105,2.931447,2.75368,-0.1321979,-0.4977026,1.320962,0.2927886,-0.489589,1.307252,0.07977798,0.2858353,1.361804,-0.1693861,-0.4850806,1.326785,0.3323613,-0.4799422,1.305833,0.06741066,-0.1485207,1.394802,0.06996742,-0.4539735,1.37409,-0.09563787,0.02483264,1.384069,-0.008962525,-0.4435555,1.344658,-0.1382697,-0.2359891,1.381178,0.2961109,-0.2255429,1.378381,NA,NA,NotTracked,NotTracked,
-0.9697266,0.1835938,0.1582031,1.034668,0.2490234,-0.07519531,0,0,-2,0,-2,-2,-1,-2,3,19,11,0,2,-1,-9,-5,-0.75,-0.75,-0.75,-17,-17,-17,6.304509,7.096729,3.887747,7.420127,2.940372,2.755698,-0.1317462,-0.4965845,1.320268,0.2923168,-0.4892483,1.306016,0.07997646,0.2858487,1.361566,-0.1680184,-0.4811151,1.325002,0.3315727,-0.4879242,1.304667,0.06750212,-0.1485758,1.394625,0.07016081,-0.4540134,1.373914,-0.09346431,0.02531319,1.382897,-0.008758008,-0.4435915,1.344437,-0.1380922,-0.2360125,1.380808,0.2961207,-0.2255425,1.378215,NA,NA,NotTracked,NotTracked,
-0.9873047,0.1762695,0.1577148,1.060547,0.3183594,-0.04736328,0,8,30,9,4,3,1,0,16,75,57,17,8,6,4,6,-0.8125,-0.8125,-0.8125,-2.5625,-2.5625,-2.5625,6.302649,7.097318,3.887807,7.338114,2.983114,2.827897,-0.1320054,-0.4964239,1.318998,0.2912447,-0.485227,1.301056,0.08018358,0.285839,1.361245,-0.1691968,-0.4818883,1.322323,0.3344646,-0.484027,1.31,0.06760063,-0.1485799,1.394403,0.07030632,-0.4539914,1.373572,-0.09402861,0.02522534,1.382955,-0.008625295,-0.4435825,1.344177,-0.1380227,-0.2361,1.380463,0.2966251,-0.2252066,1.378356,NA,NA,NotTracked,NotTracked,
-1.03125,0.184082,0.1108398,1.175781,0.4350586,0.02734375,4,4,15,7,1,1,0,0,-29,-61,-61,-32,-13,-9,-11,-16,-5.0625,-5.0625,-5.0625,-50.4375,-50.4375,-50.4375,6.307001,7.089733,3.895996,7.155465,3.137859,2.962876,-0.1299365,-0.4924178,1.308648,0.284885,-0.4692079,1.281253,0.08039924,0.2857562,1.360725,-0.1670623,-0.4729023,1.315481,0.2884323,-0.4577783,1.248911,0.06781907,-0.1486515,1.393771,0.07041412,-0.4540159,1.372912,-0.09413013,0.02521396,1.382928,-0.008553945,-0.4436162,1.343432,-0.1380279,-0.2360972,1.380458,0.3008923,-0.2212239,1.381147,NA,NA,NotTracked,NotTracked,
-1.040039,0.168457,0.3432617,1.058105,0.7392578,0.4707031,-1,-2,3,-3,-2,-2,1,-1,-9,0,-39,-25,-8,-5,-17,-2,-52.9375,-52.9375,-52.9375,34.625,34.625,34.625,6.18397,6.923613,3.938868,7.016464,3.429219,3.127458,-0.1272969,-0.4762941,1.28622,0.2698503,-0.4109231,1.247604,0.08068953,0.2856514,1.360223,-0.1659661,-0.4738869,1.290539,0.2967854,-0.4280032,1.230572,0.0678265,-0.1487537,1.392711,0.07017718,-0.4540735,1.37133,-0.09429785,0.02509567,1.383155,-0.008882836,-0.4435719,1.341967,-0.1385542,-0.2352589,1.381549,0.3112927,-0.2062494,1.391027,NA,NA,NotTracked,NotTracked,
-0.824707,0.3510742,0.4428711,0.3564453,1.138184,0.5327148,-1,-1,0,0,0,-2,-2,-2,12,13,15,25,-9,-3,-3,-3,-3.75,-3.75,-3.75,-44.625,-44.625,-44.625,6.136852,6.778533,3.910823,6.909423,4.136281,3.237035,-0.1249371,-0.4741705,1.251734,0.2368223,-0.306583,1.192322,0.08121919,0.2856335,1.359651,-0.1352287,-0.4464084,1.22299,0.2049861,-0.3408181,1.234,0.06786872,-0.14863,1.391951,0.06957304,-0.4538359,1.369405,-0.09429518,0.02514972,1.383188,-0.009535006,-0.4432721,1.339793,-0.1397109,-0.2316479,1.382739,0.3138181,-0.1854622,1.394185,NA,NA,NotTracked,Closed,
-0.824707,0.3510742,0.4428711,-0.3637695,0.96875,0.265625,-1,-5,-21,-9,-7,-2,-2,-1,6,42,55,21,6,14,16,9,-3.75,-3.75,-3.75,75.6875,75.6875,75.6875,6.136852,6.778533,3.910823,6.920034,4.887525,3.280068,-0.1247219,-0.4568226,1.227351,0.2117641,-0.1163754,1.139393,0.08247582,0.2854484,1.359346,-0.1461648,-0.4364102,1.203739,0.1903253,-0.1215982,1.132,0.06830224,-0.148498,1.391478,0.06993404,-0.4535683,1.368344,-0.09334917,0.02604177,1.38268,-0.009304836,-0.4431337,1.339069,-0.1405089,-0.2253923,1.381833,0.3461557,-0.1659715,1.351962,NA,NA,NotTracked,Unknown,
-0.7768555,0.3852539,0.4257813,-0.4306641,1.17627,0.3066406,-3,-1,1,3,1,0,-2,-1,0,-21,-22,-10,-4,-2,9,6,8.1875,8.1875,8.1875,138.375,138.375,138.375,6.184179,6.527404,3.909904,7.150048,5.70199,3.330404,-0.1265324,-0.4388843,1.20352,0.2461825,0.0399077,1.183368,0.08405963,0.2850137,1.359462,-0.1642241,-0.4377234,1.204687,0.2073617,0.06348561,1.2187,0.06868499,-0.1488287,1.391389,0.0702374,-0.4548469,1.367201,-0.09166797,0.02577222,1.38111,-0.009121833,-0.4444242,1.337899,-0.1422047,-0.2170413,1.37722,0.354735,-0.16332,1.342003,NA,NA,Unknown,Unknown,
-0.8227539,0.3989258,0.4379883,-0.519043,0.7006836,0.2807617,-1,-1,5,-2,1,-2,0,0,-12,-17,-10,-9,-6,-8,-23,-27,10.25,10.25,10.25,113.125,113.125,113.125,6.197976,6.429331,3.906506,7.512045,6.55278,3.494308,-0.1259158,-0.4193573,1.183705,0.2583601,0.1528545,1.240027,0.08601806,0.284477,1.360001,-0.1565694,-0.4382175,1.168667,0.2281367,0.1300194,1.284714,0.06966807,-0.1475548,1.391547,0.07126082,-0.4503034,1.365417,-0.08639339,0.02672823,1.378416,-0.008659829,-0.439511,1.334684,-0.1445728,-0.2012511,1.37133,0.3870534,-0.1257931,1.294711,NA,NA,Unknown,Unknown,
-0.8046875,0.3881836,0.4350586,-0.484375,0.4042969,0.3041992,-5,-3,-7,-10,-3,-1,-2,-5,1,-6,0,17,5,-7,0,18,8.125,8.125,8.125,62.125,62.125,62.125,6.207783,6.31102,3.892741,7.915915,6.965132,3.797478,-0.1237578,-0.4071901,1.168236,0.2130355,0.2648109,1.307794,0.08873331,0.284402,1.362263,-0.1487308,-0.4065039,1.140953,0.1576592,0.2189072,1.318394,0.07073545,-0.1459489,1.391661,0.0725044,-0.4460426,1.364196,-0.0835975,0.02738126,1.377086,-0.007839907,-0.4343941,1.332394,-0.1456909,-0.1958888,1.368541,0.4130907,0.04578515,1.222433,NA,NA,Unknown,Unknown,
-0.7773438,0.4277344,0.4433594,-0.1220703,0.2197266,0.2426758,-2,-6,-22,-3,-2,-2,-1,-1,-9,-4,5,5,-2,-2,22,-12,-5.75,-5.75,-5.75,28.625,28.625,28.625,6.203812,6.257887,3.884678,8.597966,7.129838,4.450985,-0.1205601,-0.3970048,1.159833,0.2441587,0.2662309,1.313123,0.09223193,0.2846918,1.366372,-0.1486355,-0.4183161,1.156158,0.2330412,0.2294443,1.337591,0.07045801,-0.1453314,1.391612,0.07379759,-0.443317,1.36337,-0.08157217,0.02851062,1.376631,-0.006805523,-0.4317477,1.331957,-0.1448874,-0.192945,1.365801,0.4125268,0.04247942,1.219188,NA,NA,Closed,NotTracked,
-0.7568359,0.4736328,0.5112305,-0.6665039,0.09765625,-0.06591797,-3,-8,-18,-7,-4,-1,-2,-3,-12,-8,-9,-5,-3,-2,-12,1,-7.4375,-7.4375,-7.4375,-6.625,-6.625,-6.625,6.178898,6.19696,3.874946,9.059184,7.139999,4.907841,-0.1150907,-0.3952962,1.153423,0.2415115,0.2674083,1.318074,0.09358463,0.284986,1.368954,-0.1031969,-0.3666017,1.131609,0.2374799,0.2280124,1.347417,0.07016721,-0.1448514,1.391484,0.07454154,-0.4420602,1.362651,-0.08043623,0.02914518,1.376382,-0.006290758,-0.4306597,1.331851,-0.144224,-0.1914378,1.364823,0.4105176,0.04482314,1.215455,NA,NA,Unknown,NotTracked,
-0.6918945,0.5454102,0.5478516,-0.6425781,0.07275391,-0.1220703,-2,-1,-21,4,0,0,0,-1,13,10,6,0,0,-1,-5,11,-7,-7,-7,-30.875,-30.875,-30.875,6.168114,6.144734,3.87413,9.178547,7.113725,5.061454,-0.1104203,-0.3855877,1.149403,0.2391328,0.2622555,1.313625,0.09403131,0.2852376,1.370512,-0.08468468,-0.4289635,1.211,0.2201318,0.2291874,1.343913,0.07323892,-0.1422918,1.391246,0.0757138,-0.4409641,1.36196,-0.080067,0.02939704,1.376542,-0.005347756,-0.4300887,1.332033,-0.143671,-0.1894896,1.3651,0.4114017,0.04680384,1.211265,NA,NA,Closed,NotTracked,
-0.6274414,0.546875,0.5932617,-0.6855469,0.1313477,-0.1176758,-2,1,20,9,1,-1,0,-2,4,0,0,0,-1,1,2,8,-7.6875,-7.6875,-7.6875,-28.875,-28.875,-28.875,6.155054,6.08399,3.874316,8.82849,7.105073,4.754468,-0.109024,-0.3740912,1.145085,0.2363054,0.2621857,1.30703,0.09381185,0.285491,1.371643,-0.1230239,-0.4104039,1.176333,0.22878,0.2245484,1.32507,0.07483753,-0.1409655,1.391014,0.07681087,-0.4402302,1.361289,-0.07934345,0.03003598,1.37674,-0.004366037,-0.4297822,1.332105,-0.14292,-0.1871521,1.366571,0.4078627,0.06231811,1.207222,NA,NA,Unknown,NotTracked,
-0.590332,0.5947266,0.6005859,-0.550293,0.3012695,0.08447266,1,6,20,5,2,0,-2,-1,6,0,-4,-7,-10,-10,-17,-11,-8.75,-8.75,-8.75,-57.75,-57.75,-57.75,6.158206,5.986289,3.884703,7.753339,6.895297,3.751734,-0.1073242,-0.3598392,1.139959,0.2207527,0.2657742,1.290922,0.09345226,0.285785,1.372483,-0.07167932,-0.3981267,1.203333,0.1597146,0.2003988,1.2848,0.07406947,-0.1412779,1.390826,0.07757849,-0.4399174,1.360723,-0.0790681,0.03018408,1.376819,-0.003721105,-0.4294983,1.331778,-0.1425879,-0.1832846,1.369017,0.4037528,0.0670208,1.204746,NA,NA,Unknown,NotTracked,
-0.5551758,0.5668945,0.640625,-0.71875,0.5571289,0.02880859,-1,1,-1,1,1,0,-7,1,9,7,5,5,2,1,4,10,-10.75,-10.75,-10.75,-50.75,-50.75,-50.75,6.149795,5.904119,3.897941,7.327334,6.462549,3.371675,-0.1083059,-0.3418971,1.131222,0.2546273,0.2181675,1.210706,0.09019695,0.286182,1.373107,-0.07276514,-0.3729981,1.185333,0.2502432,0.1814197,1.27525,0.07389197,-0.1411847,1.390661,0.0778988,-0.4397139,1.359961,-0.0809156,0.02909997,1.377399,-0.003322355,-0.4292536,1.330998,-0.143335,-0.1794516,1.370906,0.3965519,-0.05334528,1.226008,NA,NA,Closed,NotTracked,
-0.4887695,0.6064453,0.6694336,-0.7861328,0.9584961,0.06054688,1,-1,2,0,-1,-2,-2,-5,-13,-51,-32,3,-8,-12,11,9,-2,-2,-2,-54.4375,-54.4375,-54.4375,6.15187,5.844527,3.90895,7.139766,5.841331,3.225296,-0.1084825,-0.3219361,1.121863,0.2612489,0.1294735,1.141934,0.08783822,0.2867298,1.373364,-0.1074604,-0.3671333,1.131333,0.2229269,0.1479398,1.192,0.07390968,-0.1411276,1.390684,0.07757214,-0.440352,1.359601,-0.08323517,0.02798157,1.378468,-0.003530605,-0.4302109,1.330709,-0.1438949,-0.1811158,1.371138,0.3748392,-0.1171085,1.269543,NA,NA,Closed,Lasso,
-0.4438477,0.5942383,0.675293,-0.2871094,1.462891,0.3803711,-1,-2,-7,-1,-5,-1,-2,-2,-1,4,4,-7,1,-5,9,-55,-12.4375,-12.4375,-12.4375,-10.875,-10.875,-10.875,6.147213,5.756842,3.930103,7.064654,5.199548,3.12655,-0.110687,-0.3031934,1.112407,0.2754014,0.009497562,1.097431,0.08605411,0.2872,1.373102,-0.1206229,-0.3524127,1.123562,0.2542762,0.04326931,1.138273,0.07349423,-0.141653,1.390638,0.07644194,-0.4435023,1.359079,-0.08495946,0.02690176,1.378605,-0.004112735,-0.4336016,1.330344,-0.144775,-0.1824438,1.370847,0.3520096,-0.1471029,1.299687,NA,NA,Closed,Unknown,
-0.4536133,0.6445313,0.6894531,-0.1118164,1.375,0.3305664,-3,7,9,2,-4,0,-4,0,38,4,6,1,0,0,8,22,12.375,12.375,12.375,-32.25,-32.25,-32.25,6.167462,5.660663,3.946746,7.022603,5.00046,3.13602,-0.1113139,-0.2860309,1.1067,0.2791819,-0.0639231,1.086553,0.08524556,0.2872394,1.372701,-0.1172445,-0.3369829,1.110533,0.2431392,-0.07210369,1.075616,0.07322981,-0.14218,1.39066,0.07611153,-0.4454236,1.358915,-0.08637106,0.02617158,1.379417,-0.004194026,-0.4356204,1.330323,-0.1481271,-0.1826101,1.371035,0.3422824,-0.1912031,1.351257,NA,NA,Closed,Closed,
-0.4291992,0.6445313,0.6865234,-0.1879883,1.194824,0.2915039,-1,7,26,10,4,-1,-1,3,71,37,35,14,0,3,2,22,8.3125,8.3125,8.3125,-5.875,-5.875,-5.875,6.205524,5.554724,3.955916,7.011764,4.956966,3.219255,-0.1103423,-0.2593562,1.102744,0.2697739,-0.08220939,1.089511,0.0848143,0.2872651,1.371738,-0.1295146,-0.2954214,1.092818,0.2384644,-0.07216417,1.121375,0.07293758,-0.1427881,1.390376,0.07547323,-0.4469614,1.358598,-0.08619653,0.02620467,1.379272,-0.004669159,-0.4369645,1.330064,-0.1717555,-0.1740634,1.364658,0.3252957,-0.1688551,1.329966,NA,NA,Closed,Closed,
-0.3925781,0.7304688,0.7246094,-0.1035156,1.102051,0.3466797,-1,10,7,8,3,-2,-1,0,-1,13,11,-6,-16,-1,7,8,13.5,13.5,13.5,22.875,22.875,22.875,6.236176,5.438163,3.962715,7.068241,5.023345,3.339977,-0.1037465,-0.2199285,1.099239,0.2469159,-0.0668714,1.101665,0.08498179,0.2873437,1.370735,-0.09864128,-0.265308,1.1054,0.2666635,-0.06834397,1.076078,0.07295239,-0.1431363,1.390079,0.0752076,-0.4476449,1.358473,-0.08617975,0.0262988,1.379019,-0.004830591,-0.4374436,1.330078,-0.190833,-0.1635612,1.380373,0.3347672,-0.1629257,1.318846,NA,NA,Closed,Unknown,
-0.02539063,0.7304688,0.7783203,-0.2143555,0.8964844,0.2988281,8,10,14,1,4,3,2,-5,0,4,5,4,12,7,-3,8,-15.875,-15.875,-15.875,-6.375,-6.375,-6.375,6.223385,5.229128,3.961452,7.068182,5.188657,3.43712,-0.09861017,-0.1564919,1.097297,0.2329391,-0.02950197,1.131602,0.08549249,0.2876137,1.369267,-0.04621534,-0.1420428,1.102273,0.254871,-0.03791926,1.102544,0.07289667,-0.1433806,1.389804,0.07488811,-0.4481155,1.358442,-0.08352052,0.02732986,1.377625,-0.005066718,-0.4377394,1.330058,-0.2046541,-0.1534064,1.364342,0.3407394,-0.1574034,1.317404,NA,NA,Closed,Unknown,
0.1274414,0.6987305,0.6870117,-0.2426758,0.7514648,0.2358398,-3,6,8,7,0,-2,-6,-3,-42,-6,-1,-2,-6,-3,20,-51,-0.4375,-0.4375,-0.4375,-7.1875,-7.1875,-7.1875,6.217845,4.953669,3.945018,7.070466,5.358279,3.490124,-0.09853023,-0.08310991,1.099322,0.2284977,0.007737082,1.15561,0.08569357,0.287866,1.367424,-0.08742367,-0.1118098,1.087533,0.2460308,-0.004451665,1.116832,0.07305184,-0.1439256,1.388825,0.07447692,-0.4490641,1.358074,-0.08126252,0.02916898,1.376125,-0.00545591,-0.4383882,1.329699,-0.1702732,-0.1625213,1.306659,0.3460922,-0.1563187,1.318141,NA,NA,Unknown,Closed,
0.1889648,0.578125,0.5893555,-0.1816406,0.6152344,0.2407227,-16,-11,-3,-2,-4,-4,-5,-6,-29,-12,-4,-1,3,3,-4,-5,7.5,7.5,7.5,-30.8125,-30.8125,-30.8125,6.235331,4.635017,3.91765,6.996342,5.388569,3.464656,-0.09412742,-0.03998573,1.100907,0.2312955,0.01849428,1.160837,0.08583916,0.2878438,1.365977,-0.03807666,-0.03067906,1.1215,0.2452335,0.01478199,1.111106,0.07308877,-0.1444536,1.388171,0.07383456,-0.4504169,1.357777,-0.07893009,0.03181183,1.375496,-0.006037125,-0.4393646,1.329595,-0.1603253,-0.1627393,1.303994,0.3500197,-0.1582743,1.32122,NA,NA,Unknown,Closed,
0.06933594,0.4912109,0.5634766,-0.3129883,0.7641602,0.1708984,-11,-7,-6,-5,-2,-4,-4,-26,1,-17,-30,-17,-8,-8,-12,-25,1.5,1.5,1.5,-31.375,-31.375,-31.375,6.241062,4.587193,3.904752,6.919684,5.185146,3.385375,-0.08986941,-0.04232589,1.093845,0.2394719,-0.01480994,1.142679,0.08622961,0.2880436,1.365159,-0.04208531,-0.03747043,1.118877,0.257253,-0.02109031,1.089892,0.07313111,-0.1446465,1.387828,0.07375669,-0.4509066,1.357712,-0.07750209,0.03323743,1.375068,-0.006114628,-0.4397354,1.329521,-0.1576128,-0.1611859,1.301234,0.3341198,-0.1894819,1.360754,NA,NA,Unknown,Closed,
0.2338867,0.5717773,0.5610352,0.1694336,0.7001953,0.2915039,-13,9,7,-1,-5,-6,-1,-56,-3,-6,-1,0,4,4,-1,11,12.625,12.625,12.625,-87.4375,-87.4375,-87.4375,6.251722,4.688302,3.897827,6.808365,4.828719,3.316469,-0.0956481,-0.09753382,1.067435,0.2508452,-0.07067606,1.090783,0.08663642,0.2882486,1.364803,-0.0369685,-0.09158726,1.1026,0.2720883,-0.09499619,1.056667,0.07334802,-0.1447061,1.387604,0.07401036,-0.450991,1.35766,-0.07696494,0.03346005,1.374497,-0.005845428,-0.4398449,1.329385,-0.162126,-0.1600533,1.304974,0.3238816,-0.185971,1.31462,NA,NA,Unknown,Unknown,
-0.04980469,0.6445313,0.5366211,0.7866211,0.8222656,0.4960938,-1,6,11,5,7,0,0,16,33,7,0,-5,-3,-3,13,5,5.875,5.875,5.875,-21.9375,-21.9375,-21.9375,6.245598,5.252875,3.903108,6.788892,4.313738,3.24684,-0.1080717,-0.1888938,1.054006,0.2642818,-0.1964025,1.094546,0.08696565,0.2883563,1.364841,-0.05172587,-0.196656,1.081571,0.223014,-0.2004383,1.067333,0.07354166,-0.1448393,1.387572,0.07433251,-0.4512264,1.357679,-0.07708637,0.03298745,1.374403,-0.005546215,-0.440058,1.329172,-0.1909982,-0.1524941,1.363673,0.306241,-0.179642,1.353775,NA,NA,Unknown,Unknown,
-0.3891602,0.6728516,0.6972656,0.5371094,0.8374023,0.3818359,-6,0,-4,-3,-4,-8,-15,10,-37,-39,-42,-18,-30,-29,9,-119,6.8125,6.8125,6.8125,25.5625,25.5625,25.5625,6.253162,5.488241,3.924824,6.841516,3.980653,3.183078,-0.1177902,-0.2860775,1.055001,0.2737917,-0.2842976,1.095454,0.08754133,0.2882238,1.364919,-0.0768199,-0.2813593,1.046214,0.2298836,-0.2918532,1.074276,0.07393302,-0.1451081,1.387589,0.07512677,-0.4516003,1.357657,-0.07880011,0.03041108,1.374506,-0.004693009,-0.4405294,1.328969,-0.1673893,-0.1675098,1.335721,0.316337,-0.1810895,1.325817,NA,NA,Unknown,Unknown,
