ALX,ALY,ALZ,ARX,ARY,ARZ,EMG0L,EMG1L,EMG2L,EMG3L,EMG4L,EMG5L,EMG6L,EMG7L,EMG0R,EMG1R,EMG2R,EMG3R,EMG4R,EMG5R,EMG6R,EMG7R,GLX,GLY,GLZ,GRX,GRY,GRZ,ORL,OPL,OYL,ORR,OPR,OYR,LHNX,LHNY,LHNZ,RHNX,RHNY,RHNZ,HX,HY,HZ,LTX,LTY,LTZ,RTX,RTY,RTZ,SpineMidX,SpineMidY,SpineMidZ,SpineBaseX,SpineBaseY,SpineBaseZ,ShoulderLeftX,ShoulderLeftY,ShoulderLeftZ,ShoulderRightX,ShoulderRightY,ShoulderRightZ,ElbowLeftX,ElbowLeftY,ElbowLeftZ,ElbowRightX,ElbowRightY,ElbowRightZ,Myo_Pose_left,Myo_Pose_Right,Kinect_pose_left,Kinect_pose_right
-0.9775391,0.1928711,0.1508789,0.9575195,0.2255859,0.01464844,-1,0,-1,-3,1,1,1,-2,-2,-1,1,0,0,-2,0,-1,0.9375,0.9375,0.9375,-1.6875,-1.6875,-1.6875,6.403357,7.090714,4.261517,7.560416,2.885105,1.728059,-0.1305986,-0.4956933,1.31097,0.2917973,-0.4959871,1.310772,0.08487947,0.291246,1.365292,-0.08734497,-0.4778859,1.293736,0.3385437,-0.4960841,1.273667,0.07232378,-0.1483555,1.388821,0.07360161,-0.4558466,1.369931,-0.09131712,0.02272022,1.373329,-0.00572917,-0.445537,1.338105,-0.1358903,-0.2339271,1.365006,0.2951099,-0.2306937,1.373637,NA,NA,NotTracked,NotTracked,
-0.9746094,0.190918,0.1479492,0.9345703,0.2392578,0.02050781,-1,-2,-1,-1,0,1,0,-3,-3,-4,0,0,-1,1,-1,-1,1.1875,1.1875,1.1875,-1,-1,-1,6.405715,7.092087,4.261915,7.567254,2.885028,1.719361,-0.13049,-0.4963624,1.310985,0.2919706,-0.496239,1.311837,0.084938,0.2912711,1.365595,-0.08846501,-0.4797348,1.296228,0.331966,-0.4859402,1.310383,0.07219267,-0.14835,1.389148,0.07355048,-0.4558401,1.370192,-0.09119755,0.02279123,1.373451,-0.005771701,-0.4455218,1.338312,-0.1358834,-0.2337009,1.365182,0.2951261,-0.2305371,1.37408,NA,NA,NotTracked,NotTracked,
-0.9731445,0.1904297,0.1479492,0.9477539,0.2426758,0.02636719,-1,0,-2,-1,0,0,-3,1,-1,0,0,-1,-3,-1,-1,-1,0.125,0.125,0.125,0,0,0,6.406684,7.092544,4.262515,7.566438,2.885911,1.718164,-0.1307279,-0.496043,1.310525,0.2922662,-0.4947276,1.312109,0.08496979,0.2912437,1.365881,-0.08873388,-0.4745382,1.294564,0.3328523,-0.4839973,1.310124,0.07223607,-0.1483401,1.389372,0.07359025,-0.4558502,1.370353,-0.09151341,0.02262447,1.373495,-0.005741744,-0.4455082,1.338414,-0.1357873,-0.2338836,1.365263,0.2951214,-0.2304829,1.374625,NA,NA,NotTracked,NotTracked,
-0.9819336,0.1923828,0.1503906,0.9433594,0.2314453,0.02050781,-3,-2,1,-4,-1,-1,-1,0,2,1,-1,-2,0,0,0,1,-1.75,-1.75,-1.75,1.3125,1.3125,1.3125,6.409064,7.092154,4.267065,7.558195,2.886516,1.725419,-0.130463,-0.495505,1.311409,0.2914495,-0.4950482,1.312537,0.08499461,0.2912401,1.366163,-0.08841461,-0.4732912,1.293909,0.3258204,-0.4827819,1.304581,0.07223205,-0.148349,1.389645,0.07355677,-0.4558992,1.370555,-0.09172326,0.02237289,1.373524,-0.005754637,-0.4455399,1.338589,-0.1358169,-0.2336639,1.365406,0.2949862,-0.2305313,1.374957,NA,NA,NotTracked,NotTracked,
-0.9785156,0.1967773,0.1494141,0.9404297,0.2368164,0.01171875,0,0,-2,-2,-2,-1,-2,-1,0,-3,0,-1,-1,-3,-2,0,0.3125,0.3125,0.3125,0.4375,0.4375,0.4375,6.410311,7.091269,4.271693,7.555598,2.887583,1.729831,-0.1307271,-0.4960094,1.311024,0.291561,-0.4943708,1.310979,0.08499692,0.2912422,1.366265,-0.08762653,-0.4707367,1.292893,0.3317301,-0.4686078,1.271444,0.0721981,-0.1483599,1.389718,0.07354188,-0.4559156,1.370595,-0.09193338,0.02218265,1.373448,-0.005762266,-0.4455455,1.338603,-0.1358523,-0.2336973,1.365569,0.2949936,-0.2305619,1.375134,NA,NA,NotTracked,NotTracked,
-0.9780273,0.1962891,0.1469727,0.9580078,0.2329102,0.004394531,-1,-2,-1,-1,1,1,1,-2,-7,-24,-9,-4,-3,0,-2,-1,0.3125,0.3125,0.3125,-0.125,-0.125,-0.125,6.411504,7.092076,4.272011,7.557702,2.888947,1.726669,-0.1307729,-0.4963186,1.311483,0.2914346,-0.4946188,1.311141,0.08501312,0.2912438,1.366491,-0.08765765,-0.4630964,1.290917,0.3284362,-0.4875782,1.306969,0.07221169,-0.1483093,1.389927,0.07356491,-0.455803,1.370847,-0.09162775,0.02250607,1.373779,-0.005730354,-0.4454177,1.338839,-0.1358639,-0.2336508,1.365784,0.2949417,-0.2306005,1.375479,NA,NA,NotTracked,NotTracked,
-0.9755859,0.1962891,0.1586914,1.077148,0.2167969,-0.1425781,0,0,2,4,1,0,0,1,-3,2,2,1,1,0,-5,-1,-0.3125,-0.3125,-0.3125,-53.4375,-53.4375,-53.4375,6.41185,7.091863,4.273019,7.465583,2.944156,1.749352,-0.1307963,-0.4958739,1.311084,0.2904383,-0.492973,1.308181,0.08505255,0.291234,1.366505,-0.08824334,-0.4613005,1.292509,0.330444,-0.4833747,1.302267,0.07220528,-0.1483303,1.389976,0.07355471,-0.4558298,1.370909,-0.0919452,0.0223083,1.373822,-0.005742537,-0.4454431,1.33892,-0.1359177,-0.2336426,1.365891,0.2951302,-0.2305944,1.375716,NA,NA,NotTracked,NotTracked,
-0.9770508,0.2006836,0.1464844,1.282715,0.5024414,0.1225586,0,0,1,-1,-3,-2,-4,0,-7,9,-4,-11,14,0,-6,-6,-3.8125,-3.8125,-3.8125,-64.75,-64.75,-64.75,6.414518,7.089805,4.278506,7.196286,3.120922,1.913016,-0.1308481,-0.495548,1.309126,0.2837175,-0.4730377,1.281623,0.08504449,0.2912264,1.366517,-0.08829854,-0.4694325,1.29313,0.3124476,-0.4708664,1.264979,0.07210986,-0.148362,1.390048,0.07330198,-0.455863,1.370951,-0.09159024,0.02240886,1.374055,-0.006016829,-0.4454664,1.338998,-0.1358992,-0.2336908,1.36593,0.299863,-0.2253767,1.379885,NA,NA,NotTracked,NotTracked,
-0.9985352,0.230957,0.1293945,0.9882813,0.9477539,0.3666992,-2,0,0,-1,-2,0,-3,-1,12,44,10,7,2,1,5,8,-48.625,-48.625,-48.625,-24.6875,-24.6875,-24.6875,6.405947,7.051836,4.354543,6.995486,3.480386,2.063784,-0.1316417,-0.4938639,1.30413,0.2693202,-0.4203546,1.21752,0.08501416,0.2910543,1.366337,-0.08837035,-0.4696219,1.293115,0.2762417,-0.3941382,1.189389,0.07181379,-0.148438,1.390083,0.07255833,-0.4559703,1.370673,-0.09187232,0.02196012,1.374005,-0.006836123,-0.4454962,1.338642,-0.1361098,-0.2338389,1.366202,0.3080618,-0.207858,1.389189,NA,NA,NotTracked,NotTracked,
-0.9555664,0.2265625,0.1967773,0.534668,1.087402,0.46875,0,0,-1,1,-1,-3,0,-1,11,32,40,-6,16,4,6,8,-29.1875,-29.1875,-29.1875,-14.875,-14.875,-14.875,6.364001,7.005767,4.374013,6.954155,4.026798,2.082448,-0.131592,-0.4900852,1.296339,0.2624207,-0.2885503,1.161504,0.08505523,0.2907125,1.36594,-0.08959598,-0.4514679,1.289278,0.2216442,-0.3238912,1.198167,0.07128602,-0.1483663,1.390072,0.07076198,-0.4554797,1.370159,-0.09112299,0.02263265,1.374508,-0.008713559,-0.4448221,1.338205,-0.1366884,-0.2334002,1.366843,0.3104353,-0.1816852,1.38893,NA,NA,NotTracked,Closed,
-0.9086914,0.2578125,0.3125,-0.3242188,0.9511719,0.3251953,-1,-1,0,0,3,1,-2,2,1,13,17,8,-6,-2,-2,-2,3.75,3.75,3.75,63.875,63.875,63.875,6.333654,6.948684,4.364993,6.978906,4.956921,2.111407,-0.1324552,-0.4954486,1.287817,0.2026353,-0.1097238,1.100288,0.08521244,0.2903076,1.365633,-0.09695345,-0.4732119,1.278134,0.2051176,-0.1146293,1.067489,0.07093675,-0.1483582,1.390186,0.0701873,-0.4553211,1.369936,-0.09071294,0.02284716,1.374464,-0.009284843,-0.4446167,1.337932,-0.1373573,-0.2327608,1.367378,0.2899086,-0.1996564,1.296828,NA,NA,NotTracked,Unknown,
-0.890625,0.2729492,0.2714844,-0.5419922,1.074219,0.2490234,0,-1,1,-1,-2,1,-2,-2,-5,-14,-12,-6,-3,2,2,-3,15.9375,15.9375,15.9375,134.0625,134.0625,134.0625,6.339891,6.939107,4.357495,7.192636,5.689696,2.182736,-0.1342991,-0.4950635,1.28413,0.2592385,0.04559185,1.149879,0.08574553,0.289895,1.365739,-0.09489581,-0.4745445,1.292737,0.2671547,0.05955315,1.091375,0.07081688,-0.1484171,1.390398,0.06976533,-0.4554582,1.369732,-0.09067529,0.02255007,1.373752,-0.009743945,-0.4447222,1.337726,-0.1380875,-0.2321864,1.366972,0.3490632,-0.1578622,1.340381,NA,NA,NotTracked,Unknown,
-0.9658203,0.2099609,0.1972656,-0.543457,0.8510742,0.3637695,-1,-1,-4,-2,-1,0,-4,-3,-4,-4,-3,-1,-1,9,24,8,23.6875,23.6875,23.6875,87.3125,87.3125,87.3125,6.400381,6.94797,4.370555,7.456354,6.295444,2.326682,-0.1368653,-0.4953933,1.281764,0.2644711,0.1571577,1.214742,0.0862863,0.2895262,1.366574,-0.1020096,-0.4933815,1.269942,0.2843727,0.1546735,1.168017,0.07062384,-0.1468019,1.391536,0.06873336,-0.4517586,1.369659,-0.08978324,0.02295448,1.373574,-0.01088813,-0.4408896,1.337274,-0.139143,-0.2298975,1.365762,0.3948318,-0.1222083,1.309297,NA,NA,NotTracked,Unknown,
-0.9833984,0.269043,0.08447266,-0.534668,0.3803711,0.1362305,-3,1,8,3,2,-1,2,4,1,8,10,29,16,3,6,-18,-15,-15,-15,60,60,60,6.466505,6.937634,4.425628,7.974134,6.892406,2.779489,-0.1392444,-0.4927968,1.277019,0.2575537,0.2378088,1.270643,0.08703159,0.2890277,1.368326,-0.1053222,-0.4895572,1.264231,0.2774056,0.2483066,1.220982,0.069623,-0.1452044,1.39297,0.06863409,-0.4485015,1.369696,-0.08807611,0.02455405,1.373982,-0.01110926,-0.4373626,1.337339,-0.1399628,-0.228334,1.364613,0.4094031,0.05733924,1.227964,NA,NA,NotTracked,Unknown,
-0.9624023,0.2675781,0.1889648,-0.5732422,0.2446289,-0.003417969,0,1,2,0,-2,0,5,-2,1,-1,-2,-5,-1,-8,-10,11,-42.4375,-42.4375,-42.4375,20.75,20.75,20.75,6.423237,6.898661,4.442327,8.825531,7.112725,3.610446,-0.139188,-0.4895543,1.268793,0.2434335,0.2756889,1.312022,0.08998337,0.2884487,1.371751,-0.1032244,-0.4967745,1.252629,0.2386974,0.3157022,1.314615,0.06810112,-0.1441245,1.39382,0.06808955,-0.4464676,1.369455,-0.08562503,0.02699143,1.374838,-0.01184568,-0.4350241,1.337543,-0.140606,-0.2267427,1.364433,0.4076231,0.07710388,1.229133,NA,NA,NotTracked,NotTracked,
-0.9750977,0.2827148,0.2783203,-0.6201172,0.006835938,-0.1987305,-5,-10,-31,-15,-6,-4,-5,-3,-38,1,-5,-2,-1,-1,27,-25,-48.1875,-48.1875,-48.1875,15.1875,15.1875,15.1875,6.380874,6.860836,4.454299,9.839127,7.126099,4.614733,-0.1394311,-0.4853452,1.259778,0.2475391,0.2758722,1.323866,0.0912633,0.2885826,1.373759,-0.103369,-0.4833735,1.270443,0.2463841,0.2999892,1.275582,0.06719712,-0.1433014,1.394288,0.06799749,-0.4450893,1.369126,-0.08462842,0.02797142,1.375422,-0.01202397,-0.4337789,1.337973,-0.1410244,-0.2251606,1.365065,0.4072454,0.06621165,1.224724,NA,NA,NotTracked,NotTracked,
-0.9956055,0.3876953,0.2353516,-0.5820313,-0.01220703,-0.1787109,0,-4,-6,6,5,1,-4,-3,-2,-3,-2,-1,1,-1,-18,-9,-51.75,-51.75,-51.75,-21.4375,-21.4375,-21.4375,6.308632,6.746034,4.506783,9.871475,7.105139,4.656928,-0.1408063,-0.4766435,1.250209,0.2408778,0.2798145,1.327442,0.09186631,0.2883851,1.374825,-0.1209686,-0.5015242,1.270833,0.2436636,0.3046444,1.282463,0.06676936,-0.1429484,1.394663,0.0679993,-0.4442168,1.369022,-0.08355844,0.02884064,1.376079,-0.01204677,-0.4327039,1.339008,-0.1424534,-0.2223836,1.367556,0.4006762,0.0976782,1.226327,NA,NA,NotTracked,NotTracked,
-0.9443359,0.3032227,0.4077148,-0.659668,0.07958984,-0.2368164,-3,0,8,11,-2,-3,-4,-1,-12,-4,0,-2,-1,-3,-5,-8,-14.375,-14.375,-14.375,-17.75,-17.75,-17.75,6.239186,6.634593,4.500918,9.321428,7.109317,4.120403,-0.141489,-0.4565747,1.232796,0.2335738,0.2866555,1.317627,0.09233656,0.2884729,1.375678,-0.1174731,-0.4871432,1.244231,0.2556046,0.3051816,1.275504,0.06660833,-0.1426676,1.394994,0.06827202,-0.4437554,1.369102,-0.08302183,0.02922945,1.376752,-0.01184692,-0.4322723,1.339296,-0.1467391,-0.2139136,1.374473,0.4017705,0.09470622,1.226348,NA,NA,NotTracked,NotTracked,
-0.8930664,0.503418,0.4731445,-0.6567383,0.2133789,-0.09082031,7,14,28,6,2,0,1,1,0,-2,-2,0,0,-2,-7,2,20.125,20.125,20.125,-35.9375,-35.9375,-35.9375,6.255605,6.480697,4.478819,8.372424,6.992881,3.191337,-0.1409559,-0.4271819,1.208517,0.2398194,0.2824512,1.284007,0.09263871,0.2883942,1.375905,-0.1146811,-0.4600783,1.219133,0.2632243,0.307595,1.25605,0.0666233,-0.1425584,1.395014,0.06942786,-0.4429288,1.368629,-0.08273495,0.02976558,1.377371,-0.01100194,-0.4316443,1.338945,-0.1510815,-0.2021235,1.380337,0.4050309,0.08909032,1.228168,NA,NA,Unknown,NotTracked,
-0.7324219,0.5058594,0.5161133,-0.3662109,0.5991211,0.01855469,-3,-16,-17,-13,-9,-1,-2,5,7,-1,-4,-3,-2,1,-3,16,-4.8125,-4.8125,-4.8125,-45.4375,-45.4375,-45.4375,6.251558,6.295002,4.472779,7.680839,6.574801,2.525442,-0.1399229,-0.390424,1.181589,0.2614794,0.2394157,1.228639,0.09141806,0.2882498,1.376006,-0.1053683,-0.4147983,1.172769,0.2428377,0.2196975,1.278286,0.06832555,-0.1424298,1.3952,0.07024857,-0.4431527,1.368475,-0.08279359,0.02997432,1.377799,-0.01028286,-0.4318856,1.338522,-0.1543956,-0.189437,1.385526,0.4183051,-0.01779969,1.24965,NA,NA,Closed,Unknown,
-0.4770508,0.5395508,0.5771484,-0.7456055,0.7436523,0.2426758,0,-8,-40,-17,-3,0,0,-1,-9,-1,-3,-3,-3,-4,-22,-7,4.4375,4.4375,4.4375,-84.875,-84.875,-84.875,6.242078,6.035317,4.473263,7.413172,6.132883,2.332839,-0.1405366,-0.3439901,1.162923,0.2720397,0.1680312,1.174245,0.09017279,0.2884184,1.376046,-0.1147724,-0.3150418,1.163325,0.2446114,0.1648004,1.210429,0.06919527,-0.1421877,1.395377,0.07088906,-0.4434148,1.368474,-0.08342937,0.02960064,1.378767,-0.009528363,-0.4322503,1.338301,-0.1558536,-0.1737815,1.391736,0.3959527,-0.09222917,1.281323,NA,NA,Unknown,Unknown,
-0.4472656,0.5927734,0.5751953,0.09716797,0.9863281,0.5053711,-2,-2,3,1,-1,3,-5,-4,-4,9,7,0,1,1,6,1,-9.5625,-9.5625,-9.5625,-95.6875,-95.6875,-95.6875,6.252862,5.858531,4.483287,7.215338,5.648397,2.240193,-0.1386033,-0.3120864,1.146319,0.2808471,0.06478805,1.135543,0.08924417,0.288725,1.375939,-0.1272461,-0.2762583,1.13899,0.3183467,0.1134157,1.182,0.06958131,-0.1423352,1.395644,0.07123045,-0.4444082,1.368645,-0.0834799,0.02952748,1.379026,-0.00906511,-0.4333775,1.338217,-0.1581373,-0.1723198,1.394654,0.3860972,-0.1586819,1.358083,NA,NA,Closed,Closed,
-0.3383789,0.5112305,0.6367188,-0.3549805,1.173828,0.3237305,-1,-11,-9,-6,-4,0,-1,0,-10,7,10,6,2,-5,-19,12,20.75,20.75,20.75,-68.3125,-68.3125,-68.3125,6.248328,5.734837,4.474826,7.006976,4.97552,2.194198,-0.1365867,-0.2899948,1.138685,0.2868589,-0.05638038,1.11307,0.08897675,0.2887644,1.37589,-0.1059144,-0.2679325,1.145867,0.2588365,-0.03242665,1.141286,0.0701824,-0.1430513,1.395763,0.0717508,-0.4469427,1.368762,-0.08465191,0.02864953,1.380665,-0.008372116,-0.4362514,1.33829,-0.1601585,-0.1729484,1.395729,0.3538106,-0.1859478,1.370677,NA,NA,Closed,Closed,
-0.253418,0.6176758,0.6621094,0.0009765625,1.11084,0.359375,24,3,0,-4,-3,2,5,6,27,19,17,2,-4,-6,-11,-6,11,11,11,-60.9375,-60.9375,-60.9375,6.250151,5.668276,4.438804,6.890607,4.558482,2.216024,-0.1306848,-0.2871023,1.131504,0.2842361,-0.1741465,1.111308,0.08883335,0.2889076,1.376055,-0.1145808,-0.2743877,1.093778,0.2498187,-0.1811402,1.11245,0.07065488,-0.1435588,1.395921,0.07194714,-0.4483044,1.368666,-0.08489955,0.02832715,1.381526,-0.008094971,-0.4377065,1.338164,-0.1612011,-0.1731972,1.395155,0.3584953,-0.2030796,1.377152,NA,NA,Unknown,Unknown,
-0.4833984,0.59375,0.6313477,0.7407227,1.108887,0.5825195,15,-20,6,11,1,3,-1,2,-23,-7,-12,-9,-1,-4,1,30,9.75,9.75,9.75,50.375,50.375,50.375,6.245931,5.685287,4.404854,6.893765,4.203058,2.267602,-0.1201397,-0.2932341,1.126609,0.2785539,-0.259324,1.118021,0.08890269,0.2889627,1.376184,-0.1093859,-0.271863,1.091388,0.2456161,-0.2425999,1.144278,0.07148959,-0.1441118,1.395971,0.07261166,-0.449378,1.368508,-0.08517843,0.02771709,1.382124,-0.007320715,-0.4388232,1.337775,-0.1610723,-0.1743402,1.393277,0.3391329,-0.1638694,1.363699,NA,NA,Unknown,Unknown,
-0.5224609,0.6103516,0.6464844,0.7480469,0.9980469,0.4501953,10,26,62,31,11,2,0,2,-4,21,27,16,3,-2,-2,21,32.9375,32.9375,32.9375,19.6875,19.6875,19.6875,6.239707,5.728712,4.324256,6.877676,3.992595,2.350003,-0.1046507,-0.320198,1.10549,0.2715272,-0.2963197,1.126739,0.08934665,0.2890699,1.376491,-0.1007778,-0.2879171,1.077158,0.2594662,-0.2707179,1.102472,0.07283606,-0.144613,1.396129,0.07387683,-0.4503482,1.368603,-0.0850583,0.02733236,1.38211,-0.0059066,-0.4398053,1.337559,-0.1298892,-0.1981827,1.315042,0.3322384,-0.1699713,1.366478,NA,NA,Closed,Closed,
-0.5151367,0.7241211,0.6875,0.3305664,0.8183594,0.2871094,-6,-37,-94,-39,-14,-4,0,-3,-18,-11,-9,-3,-3,-11,-20,-30,6.3125,6.3125,6.3125,-41.875,-41.875,-41.875,6.230256,5.747142,4.238229,6.802195,4.005365,2.414335,-0.083896,-0.3059636,1.101676,0.263824,-0.285034,1.13162,0.08976084,0.289342,1.376371,-0.09832904,-0.3265523,1.103,0.2210829,-0.2801988,1.139581,0.07378519,-0.1449727,1.396047,0.07536174,-0.4512847,1.368752,-0.08479975,0.0270399,1.381826,-0.004274708,-0.4407079,1.337155,-0.1217197,-0.1983071,1.316038,0.3188022,-0.1768146,1.379997,NA,NA,Closed,Unknown,
-0.3071289,0.625,0.5991211,0.3466797,0.6767578,0.3251953,5,-5,-15,-9,-2,3,3,4,-10,-10,-2,-1,-1,-7,-16,-6,-2.5625,-2.5625,-2.5625,-10.5625,-10.5625,-10.5625,6.163649,5.693458,4.135537,6.755558,4.030258,2.437259,-0.06982625,-0.2736759,1.117537,0.255644,-0.2723434,1.144748,0.09037283,0.2896441,1.376129,-0.0261091,-0.2720605,1.135275,0.2608112,-0.2387546,1.141415,0.07465647,-0.1449827,1.395894,0.07596558,-0.4513882,1.36897,-0.08453511,0.02685429,1.381607,-0.003600958,-0.4407873,1.337308,-0.1443274,-0.1825072,1.373476,0.3149664,-0.1782307,1.383456,NA,NA,Unknown,Unknown,
-0.265625,0.5844727,0.5825195,0.3842773,0.6713867,0.3066406,-18,-5,0,-1,-5,1,1,-24,49,11,6,2,-1,4,24,-18,-6.1875,-6.1875,-6.1875,-8.1875,-8.1875,-8.1875,6.154893,5.678258,4.108453,6.736077,3.999303,2.444298,-0.06779949,-0.2819784,1.112734,0.2518364,-0.2812917,1.144954,0.09074371,0.2898656,1.3756,-0.02351173,-0.2882166,1.136889,0.2099488,-0.2811562,1.132975,0.07509451,-0.1449893,1.395807,0.07643358,-0.4514193,1.36915,-0.08413918,0.02681915,1.38101,-0.002993701,-0.4408203,1.337518,-0.1432143,-0.182752,1.372909,0.3106461,-0.1796714,1.383543,NA,NA,Unknown,Lasso,
-0.1904297,0.5249023,0.5927734,0.4301758,0.6269531,0.2436523,-1,-14,0,3,2,-1,-3,4,5,1,5,5,2,-2,-24,42,8.25,8.25,8.25,-0.3125,-0.3125,-0.3125,6.158101,5.704798,4.103816,6.80335,3.807445,2.336164,-0.08241834,-0.3230933,1.110488,0.2601869,-0.3255298,1.140862,0.09078496,0.2899207,1.375546,-0.03486622,-0.3366701,1.135072,0.2190547,-0.3314374,1.133834,0.07618792,-0.1451509,1.395703,0.07810415,-0.4517269,1.369344,-0.08411789,0.02629579,1.380856,-0.001101757,-0.4414409,1.33792,-0.1410809,-0.1839279,1.371367,0.3047832,-0.1843054,1.379941,NA,NA,Unknown,Unknown,
-0.5327148,0.8256836,0.5263672,0.953125,0.7529297,0.1738281,-16,-20,-36,-34,-12,-4,7,-12,-1,0,2,-4,0,-3,-12,9,23.9375,23.9375,23.9375,-22.5,-22.5,-22.5,6.303011,5.998694,4.243913,6.986948,3.535107,2.08926,-0.113029,-0.3886415,1.115294,0.282236,-0.3954334,1.158488,0.09077702,0.2898449,1.375412,-0.09074172,-0.443599,1.1506,0.255827,-0.4294927,1.169313,0.07707639,-0.145688,1.395879,0.07980175,-0.4527834,1.369935,-0.08452895,0.02466268,1.380532,0.0005356204,-0.4429975,1.338828,-0.1363605,-0.1870354,1.359293,0.2989223,-0.1954568,1.369274,NA,NA,Unknown,Unknown,
-0.9916992,0.4438477,0.4057617,1.200195,0.1435547,-0.3125,-17,-9,-3,-3,-2,6,24,-30,21,1,4,3,0,2,7,-27,-66.5625,-66.5625,-66.5625,4.3125,4.3125,4.3125,6.372031,6.374997,4.539289,7.41548,3.235698,1.505962,-0.1494367,-0.4404696,1.143658,0.3161957,-0.4459922,1.191049,0.09073264,0.2897898,1.375385,-0.1328842,-0.4621712,1.1623,0.2812781,-0.4747165,1.186563,0.07744293,-0.1465943,1.396649,0.07957337,-0.4543627,1.371611,-0.08428065,0.02367171,1.379788,0.0002959442,-0.4446201,1.340917,-0.1352788,-0.197264,1.343014,0.2960071,-0.2094906,1.348106,NA,NA,Unknown,Unknown,
-1.161133,0.3540039,-0.1293945,0.9760742,0.1923828,-0.1987305,4,-41,-69,-35,-9,0,-4,53,7,-2,-9,-17,1,8,8,-9,-70.125,-70.125,-70.125,-19.25,-19.25,-19.25,6.564368,6.627685,4.911771,7.764814,3.136971,1.109973,-0.1889201,-0.4683118,1.184685,0.3449568,-0.4643497,1.220463,0.0907269,0.2897185,1.375288,-0.1724163,-0.4903753,1.198769,0.3076067,-0.4785542,1.210042,0.07744601,-0.1471297,1.397367,0.0786898,-0.4551724,1.37327,-0.08330034,0.02263107,1.378299,-0.0006218626,-0.4451064,1.342797,-0.13777,-0.2045771,1.335435,0.2971892,-0.2154745,1.342597,NA,NA,Unknown,Unknown,
-1.070313,0.2490234,0.0004882813,0.9111328,0.4365234,0.0004882813,-7,15,9,-6,-3,-3,-9,7,16,-20,-8,-5,-4,-14,-21,-2,15.3125,15.3125,15.3125,-14.125,-14.125,-14.125,6.802719,6.754177,5.204904,7.888057,3.126626,0.9766614,-0.2097469,-0.4755394,1.205813,0.3644408,-0.4697558,1.232807,0.09074008,0.2896199,1.375066,-0.1713999,-0.4947174,1.197616,0.3342867,-0.4921528,1.215942,0.07752376,-0.1472878,1.397515,0.07856581,-0.4553226,1.373739,-0.08293359,0.022625,1.377778,-0.0007554446,-0.4451101,1.343269,-0.1441662,-0.2077717,1.335688,0.300183,-0.2177749,1.343707,NA,NA,Lasso,Lasso,
-0.9052734,0.4584961,0.3730469,0.8999023,0.3256836,0.04833984,-4,3,0,-5,-4,-7,-8,7,15,-1,4,-3,-3,-1,14,27,-13.125,-13.125,-13.125,16.5625,16.5625,16.5625,6.827425,6.747299,5.215641,7.800026,3.106486,1.03132,-0.2178607,-0.4719662,1.213272,0.3703876,-0.4711499,1.237635,0.09089752,0.2894542,1.374129,-0.1788029,-0.4895745,1.21168,0.338198,-0.4916494,1.231151,0.07755359,-0.1473527,1.397469,0.07859805,-0.4553036,1.373813,-0.08272919,0.02308049,1.377647,-0.0007291887,-0.4450099,1.343345,-0.1528695,-0.208504,1.341989,0.304143,-0.2203523,1.348549,NA,NA,Lasso,NotTracked,
-0.8925781,0.3632813,0.3422852,0.9291992,0.3896484,0.01074219,6,8,4,1,6,-1,-8,4,2,-31,-22,-7,-5,-8,-11,12,-28.625,-28.625,-28.625,4.0625,4.0625,4.0625,6.702808,6.710289,5.141338,7.74174,3.102182,1.10749,-0.2182902,-0.4672066,1.212961,0.3699805,-0.4718345,1.238049,0.09138435,0.288829,1.372512,-0.1776493,-0.48998,1.213168,0.3334164,-0.4916317,1.240441,0.07767136,-0.147475,1.397423,0.07866751,-0.4553224,1.373912,-0.08262102,0.0234651,1.377666,-0.0006802819,-0.4449671,1.34344,-0.1577839,-0.2082013,1.349136,0.30811,-0.2223234,1.353957,NA,NA,Lasso,Unknown,
-0.84375,0.4389648,0.2949219,0.9174805,0.4155273,0.006835938,3,-4,-3,4,4,-3,-2,-5,-3,14,5,-6,0,15,20,-17,-26.8125,-26.8125,-26.8125,5.125,5.125,5.125,6.594224,6.670269,5.072684,7.643524,3.108605,1.223343,-0.2130384,-0.4599054,1.209887,0.3650313,-0.4701836,1.235682,0.09154638,0.2884409,1.371028,-0.1722911,-0.4800146,1.208048,0.3311033,-0.4915999,1.236044,0.07782962,-0.1476142,1.397329,0.07867418,-0.4553237,1.373928,-0.08261411,0.02367763,1.378029,-0.0006783443,-0.4449285,1.343448,-0.1587039,-0.2068499,1.354939,0.3100803,-0.2226548,1.358021,NA,NA,Lasso,Unknown,
-0.8183594,0.4335938,0.3217773,0.8847656,0.3989258,0.02832031,-1,-9,-8,3,3,-2,-1,4,47,-10,-23,-9,0,0,-8,18,4.125,4.125,4.125,17.5625,17.5625,17.5625,6.486631,6.621783,4.964734,7.539254,3.117268,1.362786,-0.2028792,-0.4506514,1.205331,0.356203,-0.4671513,1.232403,0.09170445,0.2878763,1.369628,-0.1644049,-0.4698077,1.192731,0.319979,-0.4876321,1.2299,0.07796464,-0.1478782,1.397086,0.07862675,-0.4553958,1.373927,-0.08253188,0.02380318,1.378225,-0.0007320538,-0.4449385,1.343407,-0.1580953,-0.2060769,1.357972,0.3103639,-0.2225455,1.359816,NA,NA,Lasso,Unknown,
-0.8134766,0.4819336,0.3110352,0.8837891,0.3481445,0.006347656,1,-6,-14,-4,0,10,1,-4,1,-13,-10,-9,-4,-1,-14,15,4.75,4.75,4.75,10.3125,10.3125,10.3125,6.450527,6.591527,4.902411,7.48535,3.122615,1.435855,-0.1931164,-0.443563,1.202229,0.348072,-0.4640528,1.229649,0.09181536,0.2878177,1.369031,-0.1545554,-0.4609176,1.185769,0.3119949,-0.4853726,1.227815,0.07795651,-0.1479148,1.397025,0.07851892,-0.4553825,1.373962,-0.08243269,0.02437914,1.37855,-0.0008905444,-0.4448636,1.343459,-0.1574056,-0.2050606,1.359383,0.3103845,-0.222646,1.360381,NA,NA,Lasso,NotTracked,
-0.8613281,0.4711914,0.2797852,0.9238281,0.3647461,0.01513672,20,14,14,6,11,-2,12,0,7,3,1,-5,-5,-3,6,-26,5.25,5.25,5.25,4.125,4.125,4.125,6.424493,6.572709,4.84931,7.468397,3.125946,1.471264,-0.1856079,-0.44258,1.199409,0.341543,-0.4630778,1.228739,0.09189861,0.2876538,1.368665,-0.1743111,-0.4659996,1.21825,0.306139,-0.4898237,1.225118,0.077983,-0.1480044,1.396968,0.0784316,-0.4554444,1.374008,-0.08247077,0.02454161,1.378859,-0.0009915229,-0.4448879,1.343489,-0.1561722,-0.2045736,1.359714,0.3101219,-0.2227711,1.360672,NA,NA,Lasso,NotTracked,
-0.8740234,0.4135742,0.2822266,0.9174805,0.3305664,-0.01757813,-2,-2,-2,-2,-2,-3,-9,2,2,-2,-2,-2,-1,1,2,-16,7.625,7.625,7.625,-1.125,-1.125,-1.125,6.411345,6.567185,4.823803,7.454464,3.128406,1.489269,-0.1800818,-0.4408162,1.197084,0.3374542,-0.4618732,1.227472,0.09198951,0.287554,1.368396,-0.1406082,-0.456778,1.184143,0.3007099,-0.4849768,1.22196,0.07806444,-0.1481305,1.396978,0.078321,-0.4555394,1.374151,-0.08248455,0.02456941,1.378976,-0.00110241,-0.4449596,1.343611,-0.1550111,-0.2041005,1.35954,0.3097296,-0.223022,1.360882,NA,NA,Lasso,NotTracked,
-0.8544922,0.4404297,0.2866211,0.9003906,0.3759766,0.008300781,-8,-23,-18,-4,-5,0,7,-6,-1,1,3,1,3,-2,-7,2,6.8125,6.8125,6.8125,0.6875,0.6875,0.6875,6.417677,6.563931,4.808582,7.456628,3.131682,1.492844,-0.1767413,-0.4401945,1.194405,0.3353973,-0.4614901,1.225765,0.09204012,0.2874421,1.368324,-0.1373886,-0.4544196,1.182913,0.2986026,-0.4808102,1.222264,0.07807543,-0.1482144,1.396966,0.0782855,-0.4555957,1.374164,-0.08254538,0.0245071,1.379039,-0.001149869,-0.4450225,1.343634,-0.1534521,-0.2041749,1.358665,0.3088711,-0.2231708,1.360946,NA,NA,Lasso,NotTracked,
-0.8540039,0.4375,0.2988281,0.902832,0.3491211,0.02050781,12,-1,-3,-5,-3,-7,1,-10,-8,14,21,5,1,-2,3,6,9.75,9.75,9.75,0.9375,0.9375,0.9375,6.427191,6.568269,4.799713,7.449889,3.1337,1.494361,-0.1757713,-0.4420464,1.193742,0.3343402,-0.461616,1.225033,0.09206003,0.2874531,1.368304,-0.1364976,-0.4579685,1.185406,0.2985573,-0.4844277,1.227562,0.07805908,-0.1482542,1.396959,0.07815111,-0.4556564,1.37424,-0.08254238,0.02455909,1.378932,-0.001318722,-0.4450673,1.343765,-0.1527611,-0.2043149,1.358073,0.3083948,-0.2233885,1.361126,NA,NA,Lasso,NotTracked,
-0.8466797,0.4091797,0.2929688,0.9082031,0.3417969,0.04296875,7,12,13,10,3,0,3,-3,-7,-5,-5,-3,1,-2,-4,-8,2.625,2.625,2.625,7.75,7.75,7.75,6.439245,6.577973,4.801439,7.454685,3.132374,1.497826,-0.1755873,-0.4424704,1.195236,0.3343758,-0.460897,1.224777,0.0920371,0.2874395,1.368237,-0.1365679,-0.4589385,1.18688,0.3002443,-0.4790797,1.212793,0.07804883,-0.1482899,1.396911,0.0780714,-0.4556542,1.374244,-0.0827198,0.02469574,1.378863,-0.001401133,-0.4450472,1.343757,-0.152175,-0.2037944,1.357401,0.3080887,-0.2232919,1.361247,NA,NA,Lasso,NotTracked,
-0.8642578,0.4130859,0.2983398,0.9199219,0.3759766,0.02783203,-9,-8,-5,-6,-6,1,9,-2,2,2,1,-6,2,0,4,6,3.1875,3.1875,3.1875,2.75,2.75,2.75,6.452081,6.595174,4.809074,7.459522,3.131003,1.505582,-0.1761593,-0.4453545,1.197117,0.3342974,-0.4617032,1.224684,0.09196748,0.2873642,1.368128,-0.1343226,-0.4661987,1.190667,0.2978754,-0.4818305,1.228309,0.07803647,-0.1483671,1.396847,0.07799353,-0.4557496,1.374186,-0.08290667,0.02426473,1.378395,-0.001516773,-0.4452035,1.343565,-0.1519371,-0.2040056,1.356831,0.3079176,-0.2232415,1.361469,NA,NA,Lasso,NotTracked,
