ALX,ALY,ALZ,ARX,ARY,ARZ,EMG0L,EMG1L,EMG2L,EMG3L,EMG4L,EMG5L,EMG6L,EMG7L,EMG0R,EMG1R,EMG2R,EMG3R,EMG4R,EMG5R,EMG6R,EMG7R,GLX,GLY,GLZ,GRX,GRY,GRZ,ORL,OPL,OYL,ORR,OPR,OYR,LHNX,LHNY,LHNZ,RHNX,RHNY,RHNZ,HX,HY,HZ,LTX,LTY,LTZ,RTX,RTY,RTZ,SpineMidX,SpineMidY,SpineMidZ,SpineBaseX,SpineBaseY,SpineBaseZ,ShoulderLeftX,ShoulderLeftY,ShoulderLeftZ,ShoulderRightX,ShoulderRightY,ShoulderRightZ,ElbowLeftX,ElbowLeftY,ElbowLeftZ,ElbowRightX,ElbowRightY,ElbowRightZ,Myo_Pose_left,Myo_Pose_Right,Kinect_pose_left,Kinect_pose_right
-0.9677734,0.2089844,0.1665039,0.9384766,0.2709961,0.01171875,-3,-2,0,-2,-4,-4,0,1,-2,1,-2,1,0,-1,0,0,-2.3125,-2.3125,-2.3125,2.125,2.125,2.125,6.364224,7.048672,4.424913,7.508382,2.934265,1.600205,-0.1305863,-0.494357,1.303488,0.2941329,-0.4934765,1.301446,0.08158239,0.2841194,1.358547,-0.09028554,-0.4861325,1.292304,0.2565356,-0.482707,1.298441,0.06921121,-0.1513245,1.391218,0.07231522,-0.4572311,1.369611,-0.0937838,0.02145291,1.375587,-0.006814468,-0.4469317,1.337995,-0.1374965,-0.2354444,1.367063,0.2943131,-0.2297898,1.373839,NA,NA,NotTracked,NotTracked,
-0.9672852,0.2089844,0.1713867,0.9238281,0.2617188,0.02587891,-1,0,-2,0,-1,-1,-3,-2,-3,-1,-1,-1,0,-2,-1,0,-2.1875,-2.1875,-2.1875,-2.3125,-2.3125,-2.3125,6.365548,7.046527,4.43176,7.49787,2.93466,1.608394,-0.1307672,-0.4938688,1.303155,0.2946762,-0.4925905,1.301692,0.08170184,0.2841244,1.358316,-0.08964744,-0.4579371,1.287538,0.2549606,-0.4696232,1.298354,0.06945859,-0.1513328,1.390945,0.07242575,-0.4572684,1.369462,-0.09419994,0.02103293,1.375618,-0.006708962,-0.4469626,1.3379,-0.1374064,-0.2353824,1.366953,0.2944574,-0.2297667,1.373716,NA,NA,NotTracked,NotTracked,
-0.9667969,0.2055664,0.1816406,0.9414063,0.2714844,0.03027344,1,-2,-1,-1,0,1,-3,-1,-1,-1,-2,0,1,-1,-1,-3,-3.125,-3.125,-3.125,2.375,2.375,2.375,6.365012,7.04433,4.4349,7.490373,2.934773,1.617923,-0.1302209,-0.4938289,1.302742,0.294543,-0.4935743,1.301849,0.08178821,0.2841265,1.358142,-0.08916526,-0.447151,1.285429,0.2533364,-0.4657839,1.297412,0.06956303,-0.1513368,1.390763,0.07260542,-0.4572728,1.369296,-0.09443586,0.02093622,1.375749,-0.00652067,-0.4469787,1.337721,-0.1373887,-0.2353356,1.366942,0.2944925,-0.2297805,1.37355,NA,NA,NotTracked,NotTracked,
-0.965332,0.2109375,0.1645508,0.9365234,0.2646484,0.02392578,0,0,0,0,2,-1,0,-1,-2,0,0,-1,-1,0,1,0,1.1875,1.1875,1.1875,-0.75,-0.75,-0.75,6.362627,7.044411,4.433322,7.478043,2.935596,1.629184,-0.1301947,-0.4943209,1.302798,0.2940563,-0.4933346,1.301275,0.08177534,0.2840869,1.357797,-0.08954974,-0.4583699,1.287617,0.2539077,-0.4645984,1.298283,0.06974937,-0.1513561,1.390388,0.07271843,-0.4572821,1.368987,-0.0946546,0.02080652,1.375619,-0.006411428,-0.4470102,1.337455,-0.1372519,-0.2350182,1.366801,0.2945816,-0.2300181,1.37314,NA,NA,NotTracked,NotTracked,
-0.965332,0.2109375,0.1645508,0.9291992,0.2670898,0.01367188,-1,-2,-1,0,-1,0,2,-3,-2,-1,0,1,0,-1,-2,-1,1.1875,1.1875,1.1875,0.125,0.125,0.125,6.362627,7.044411,4.433322,7.465285,2.937802,1.642548,-0.1310498,-0.4939651,1.302849,0.2939869,-0.4929679,1.300182,0.08174597,0.2841227,1.357579,-0.09062098,-0.4858198,1.2924,0.2586207,-0.4898871,1.298493,0.06978635,-0.151369,1.390274,0.07272049,-0.4573473,1.368825,-0.09483304,0.02069282,1.375472,-0.006412648,-0.4470566,1.337394,-0.1372321,-0.2349891,1.366625,0.2945716,-0.2302814,1.372701,NA,NA,NotTracked,NotTracked,
-0.965332,0.2109375,0.1645508,0.9355469,0.2641602,0.02392578,-1,0,-1,-3,-1,-1,0,-1,-2,-1,-1,0,-1,-2,-3,0,1.1875,1.1875,1.1875,0.9375,0.9375,0.9375,6.362627,7.044411,4.433322,7.452807,2.940847,1.656398,-0.1305512,-0.4943092,1.303211,0.2947684,-0.4922622,1.300026,0.08169598,0.2841601,1.357483,-0.09110708,-0.487558,1.292647,0.2573408,-0.4678183,1.292794,0.06981445,-0.1513738,1.390212,0.07280923,-0.4573846,1.368713,-0.09512553,0.02037571,1.375468,-0.006327635,-0.4471192,1.337332,-0.1371624,-0.2351177,1.366495,0.2946588,-0.2302435,1.372493,NA,NA,NotTracked,NotTracked,
-0.965332,0.2109375,0.1645508,0.934082,0.265625,0.02880859,-1,0,-1,0,-2,-2,0,0,-1,1,-1,0,-2,-2,-2,2,1.1875,1.1875,1.1875,0.6875,0.6875,0.6875,6.362627,7.044411,4.433322,7.442672,2.943479,1.668405,-0.1304604,-0.494481,1.302259,0.2933116,-0.4918689,1.298246,0.08164666,0.2841867,1.357442,-0.08929402,-0.4518345,1.285842,0.2559339,-0.4754062,1.295977,0.0698216,-0.1513377,1.390005,0.07272942,-0.4573664,1.368401,-0.09527044,0.02030383,1.375391,-0.006383498,-0.4471195,1.337151,-0.1372113,-0.2350246,1.366251,0.2947583,-0.2295451,1.371855,NA,NA,NotTracked,NotTracked,
-0.9707031,0.2089844,0.1743164,0.9467773,0.2685547,0.02978516,-1,-1,0,-1,-1,-3,-2,-2,-1,-1,-2,0,-1,1,0,-2,-0.5,-0.5,-0.5,-0.8125,-0.8125,-0.8125,6.368995,7.043976,4.437574,7.42585,2.946058,1.684425,-0.1313272,-0.4942442,1.302873,0.2936877,-0.4900874,1.297565,0.08167718,0.2841745,1.357265,-0.08958983,-0.4655147,1.288261,0.25615,-0.4787725,1.295308,0.06982702,-0.1513273,1.389843,0.07268342,-0.45735,1.368186,-0.09543923,0.02019036,1.375211,-0.006422619,-0.4470982,1.336995,-0.1372066,-0.2351159,1.366065,0.2948012,-0.2294926,1.371545,NA,NA,NotTracked,NotTracked,
-0.9707031,0.2148438,0.1733398,0.9550781,0.2695313,0.005859375,-1,-1,-1,-1,0,-4,-2,0,-4,-9,-5,-4,-2,-2,-2,-2,0.1875,0.1875,0.1875,-11.5,-11.5,-11.5,6.37119,7.044175,4.439988,7.394608,2.953196,1.701766,-0.1309328,-0.493838,1.300856,0.2925952,-0.4890292,1.295439,0.08166,0.2841633,1.357208,-0.09028491,-0.4841211,1.290457,0.2544658,-0.467354,1.292511,0.06977481,-0.151311,1.389626,0.07253431,-0.457348,1.367909,-0.09568049,0.02003963,1.375096,-0.006569404,-0.4471024,1.336724,-0.1371872,-0.2350952,1.365793,0.2946752,-0.2294604,1.371156,NA,NA,NotTracked,NotTracked,
-0.9663086,0.2167969,0.1674805,1.016602,0.2949219,-0.09912109,-1,-2,-1,0,0,-2,-4,-3,8,5,15,7,4,4,7,0,0,0,0,-16.375,-16.375,-16.375,6.373105,7.044105,4.441825,7.366732,2.978455,1.719043,-0.1312534,-0.4939522,1.301686,0.2911429,-0.4884964,1.29353,0.0815965,0.2841725,1.357187,-0.0897752,-0.4706547,1.288167,0.2562234,-0.4701021,1.291063,0.0698074,-0.1513397,1.389523,0.07254943,-0.4573815,1.3677,-0.0958885,0.01998556,1.374956,-0.006567963,-0.447158,1.336559,-0.1372602,-0.2353257,1.365728,0.2948242,-0.2287665,1.370731,NA,NA,NotTracked,NotTracked,
-0.9741211,0.215332,0.1743164,1.239258,0.3012695,-0.07568359,-2,0,-1,-2,-3,-2,-1,-3,8,14,7,9,13,1,-5,-2,-2.3125,-2.3125,-2.3125,-46,-46,-46,6.372008,7.042141,4.442503,7.216246,3.087185,1.809095,-0.1312619,-0.4935187,1.300051,0.2889556,-0.4655599,1.283636,0.08145179,0.2842137,1.357183,-0.08959773,-0.4689644,1.287145,0.2591746,-0.4573022,1.264927,0.06954771,-0.1512973,1.389349,0.07179807,-0.457495,1.367207,-0.095993,0.01971783,1.374372,-0.007363129,-0.447247,1.336105,-0.1373202,-0.2354739,1.365536,0.2969902,-0.2252762,1.37156,NA,NA,NotTracked,NotTracked,
-0.987793,0.222168,0.1503906,1.006348,0.9047852,0.2866211,-1,-2,-2,-1,-3,-2,-1,0,-18,-47,-36,-15,-7,-5,-5,-8,-6.3125,-6.3125,-6.3125,8.375,8.375,8.375,6.370964,7.039489,4.446414,7.025397,3.448769,2.018978,-0.1317054,-0.4930825,1.298384,0.2744618,-0.4265449,1.24783,0.08127117,0.2843015,1.357093,-0.0907183,-0.4857336,1.289316,0.237984,-0.4412971,1.241471,0.06883449,-0.1511766,1.388809,0.06972656,-0.4573796,1.36609,-0.09489205,0.02043274,1.37433,-0.009522637,-0.4468745,1.335056,-0.1374174,-0.2354426,1.365428,0.3050853,-0.2113362,1.379104,NA,NA,NotTracked,NotTracked,
-1.005371,0.2382813,0.1108398,0.5981445,1.037109,0.4228516,3,-1,-3,-1,-1,0,-6,1,6,-14,-12,4,3,3,6,10,-17.875,-17.875,-17.875,-36.5625,-36.5625,-36.5625,6.362073,7.029834,4.459334,6.94711,3.914211,2.076215,-0.1320314,-0.4914839,1.295482,0.2462548,-0.3571953,1.187453,0.08096597,0.2844259,1.356937,-0.0893926,-0.4587073,1.28316,0.2072703,-0.3780262,1.21715,0.06753196,-0.1509169,1.388225,0.0661084,-0.4569843,1.365,-0.09524411,0.02015771,1.374026,-0.01311792,-0.4461411,1.334035,-0.1376489,-0.2354274,1.365505,0.310145,-0.1931234,1.383917,NA,NA,NotTracked,Unknown,
-0.9331055,0.237793,0.2382813,0.1801758,0.9765625,0.3310547,-1,0,-1,0,-1,0,-1,0,25,87,122,45,11,9,7,14,8.75,8.75,8.75,27.625,27.625,27.625,6.351269,6.977694,4.462743,6.945008,4.468229,2.082491,-0.1333274,-0.4886775,1.293337,0.2520984,-0.2123513,1.144753,0.08083675,0.2845263,1.356917,-0.09256262,-0.4806615,1.289216,0.204919,-0.2131483,1.141067,0.06698766,-0.1506412,1.388085,0.06548342,-0.4567193,1.36479,-0.09541985,0.02022572,1.373752,-0.01373586,-0.4458537,1.33385,-0.1387701,-0.235053,1.366192,0.3203093,-0.1740206,1.377112,NA,NA,NotTracked,Unknown,
-0.9726563,0.28125,0.2290039,-0.3198242,1.093262,0.2275391,-2,-7,-17,-16,-4,4,-2,-3,5,22,43,11,11,-3,1,2,20.5625,20.5625,20.5625,111.1875,111.1875,111.1875,6.370896,6.958827,4.462061,7.130518,5.306979,2.108296,-0.1371735,-0.4859394,1.289297,0.2516156,-0.06321725,1.14121,0.08083797,0.2845348,1.356974,-0.09238496,-0.4564238,1.283625,0.2127477,-0.0661259,1.1745,0.06659802,-0.1504689,1.388057,0.06501877,-0.4565117,1.364564,-0.0951717,0.02046263,1.37256,-0.01415877,-0.4457224,1.333879,-0.1405581,-0.2339576,1.36675,0.342779,-0.1585192,1.333018,NA,NA,NotTracked,Closed,
-0.9799805,0.2675781,0.1933594,-0.4624023,0.9804688,0.2763672,-1,-5,-4,0,-3,-2,-3,1,2,7,-2,-1,2,1,4,-1,4.4375,4.4375,4.4375,88,88,88,6.390268,6.903701,4.457418,7.33391,5.898581,2.181535,-0.1395893,-0.4916502,1.279719,0.2533998,0.07269895,1.165489,0.08107677,0.2846152,1.35737,-0.1010598,-0.4702491,1.291257,0.2128644,0.09021105,1.206143,0.06622075,-0.1503002,1.388322,0.06490599,-0.4564635,1.364461,-0.09523492,0.02084439,1.371961,-0.01434944,-0.4456607,1.333784,-0.1443087,-0.2301564,1.367359,0.386017,-0.1675777,1.35602,NA,NA,NotTracked,Closed,
-0.9433594,0.284668,0.277832,-0.5488281,0.6884766,0.2397461,-3,-3,11,5,-1,-2,0,-1,-2,-7,-6,-2,1,0,8,1,-6.9375,-6.9375,-6.9375,78,78,78,6.37279,6.836077,4.451744,7.556256,6.383675,2.327755,-0.1433905,-0.4798247,1.26972,0.2569494,0.1654345,1.214634,0.08167185,0.2848107,1.358306,-0.1061174,-0.49193,1.253618,0.2341263,0.1355135,1.253824,0.0662322,-0.1476897,1.389153,0.06535559,-0.4515547,1.364124,-0.09456582,0.02133615,1.371423,-0.01443338,-0.4410493,1.332879,-0.1513407,-0.2186174,1.367813,0.3903226,-0.1062719,1.292982,NA,NA,NotTracked,Unknown,
-0.9082031,0.3212891,0.3369141,-0.7041016,0.4970703,0.105957,-1,-4,-22,-2,-1,-1,0,-1,-25,0,-7,0,5,-1,0,1,0.0625,0.0625,0.0625,35.125,35.125,35.125,6.337041,6.720383,4.421894,7.861728,6.755326,2.59682,-0.1432808,-0.4675077,1.251811,0.2503035,0.2381513,1.256398,0.08283821,0.2846124,1.359995,-0.1133811,-0.452289,1.237344,0.2208631,0.2195196,1.258265,0.06600448,-0.1463258,1.389542,0.06581662,-0.4491246,1.363532,-0.09033778,0.02437235,1.37205,-0.01419489,-0.4383074,1.331774,-0.1559022,-0.2111503,1.368474,0.4080075,0.04580687,1.226745,NA,NA,NotTracked,Unknown,
-0.8808594,0.3686523,0.3686523,-1.131836,0.2016602,-0.2890625,1,-2,-11,-2,-3,-3,0,-4,5,5,4,10,7,0,-11,15,-10.125,-10.125,-10.125,15.875,15.875,15.875,6.3096,6.614234,4.406047,8.474174,7.033437,3.193605,-0.1397199,-0.4543588,1.233987,0.2443767,0.2732794,1.285969,0.08543981,0.2846159,1.362221,-0.1042103,-0.4381858,1.246842,0.1889039,0.26774,1.260818,0.06581903,-0.1456906,1.389941,0.06719917,-0.4476918,1.363007,-0.08806616,0.02681966,1.37316,-0.01303761,-0.4365167,1.331129,-0.1579779,-0.2064093,1.369748,0.4039645,0.06691945,1.224195,NA,NA,NotTracked,Unknown,
-0.8232422,0.4609375,0.4326172,-0.7382813,0.1274414,-0.1357422,0,0,-9,0,0,-2,-1,0,12,8,3,-3,-3,-1,-1,6,1.125,1.125,1.125,12.5625,12.5625,12.5625,6.289371,6.456714,4.381262,9.085096,7.122118,3.797907,-0.1365183,-0.4347996,1.218693,0.2391528,0.2852315,1.301589,0.08805691,0.2849353,1.365301,-0.1185218,-0.4136412,1.19261,0.2336442,0.2503071,1.322408,0.06570692,-0.145048,1.390201,0.06853651,-0.4457466,1.362318,-0.08667035,0.02814194,1.374068,-0.01201449,-0.4345214,1.331044,-0.1596673,-0.1987475,1.372144,0.3992654,0.08403289,1.222495,NA,NA,Unknown,NotTracked,
-0.75,0.5195313,0.4560547,-0.7773438,0.02685547,-0.2617188,1,6,7,8,3,1,0,2,2,-6,-2,-4,-3,2,42,0,-0.0625,-0.0625,-0.0625,-26.25,-26.25,-26.25,6.290796,6.365332,4.379387,9.483153,7.126019,4.231233,-0.1316689,-0.4121116,1.200514,0.2358827,0.2885446,1.30435,0.08989137,0.2852315,1.366946,-0.0931912,-0.4001412,1.207303,0.1836915,0.2668543,1.2928,0.06844331,-0.142565,1.389796,0.07050462,-0.4427664,1.361533,-0.08556575,0.03007832,1.375069,-0.01013033,-0.4316182,1.330768,-0.1602826,-0.1901469,1.374059,0.398177,0.09659688,1.214731,NA,NA,Unknown,NotTracked,
-0.7329102,0.5180664,0.4746094,-0.5917969,0.0625,-0.234375,-2,-6,-8,-1,-1,-2,1,-4,5,7,6,5,3,4,5,11,-1.1875,-1.1875,-1.1875,-20.1875,-20.1875,-20.1875,6.288502,6.320486,4.376766,9.088816,7.139702,3.854579,-0.1234432,-0.393626,1.184617,0.2310196,0.295238,1.293895,0.09074806,0.2856125,1.367459,-0.1389566,-0.3614699,1.157174,0.1755982,0.2437245,1.2892,0.07203373,-0.140402,1.389189,0.07212933,-0.4404719,1.361059,-0.08446348,0.03320107,1.376409,-0.008431304,-0.4294217,1.331006,-0.1611636,-0.1810798,1.376065,0.3978747,0.1007742,1.209351,NA,NA,Unknown,NotTracked,
-0.7124023,0.5214844,0.512207,-0.4199219,0.1962891,-0.02197266,0,6,14,12,3,-1,-2,-2,-7,-9,-5,-4,-2,1,-8,0,2.5,2.5,2.5,-50.0625,-50.0625,-50.0625,6.286901,6.277093,4.373132,8.081189,6.998187,2.888726,-0.1228475,-0.3642057,1.163715,0.2402106,0.3018711,1.254561,0.09109264,0.2856472,1.367778,-0.1265561,-0.3391177,1.127854,0.1797623,0.271534,1.3005,0.07395245,-0.1396723,1.388807,0.07381728,-0.4394257,1.360682,-0.08421349,0.03379654,1.377213,-0.006663608,-0.4285079,1.330905,-0.1627882,-0.1725155,1.375626,0.3957599,0.1003152,1.208685,NA,NA,Unknown,NotTracked,
-0.6357422,0.5834961,0.5058594,-0.5102539,0.4682617,0.1157227,-3,-2,4,5,1,-1,-1,-1,-4,-7,4,6,0,-11,10,-5,14.6875,14.6875,14.6875,-28.375,-28.375,-28.375,6.297417,6.189937,4.36777,7.56635,6.65078,2.3878,-0.1212048,-0.334979,1.141256,0.2642729,0.261623,1.187278,0.08985221,0.285339,1.368415,-0.1099914,-0.2972364,1.123893,0.2494393,0.2410045,1.2285,0.07332738,-0.1401235,1.38927,0.07473669,-0.4404785,1.360268,-0.08550027,0.03281858,1.377661,-0.005706448,-0.4300403,1.330344,-0.1643194,-0.1697975,1.374593,0.3991708,0.01820896,1.208698,NA,NA,Unknown,Unknown,
-0.4980469,0.5991211,0.5527344,-0.4775391,0.8457031,0.3569336,2,1,2,-3,-3,0,0,-1,3,-10,3,0,-1,-6,4,-4,-23.1875,-23.1875,-23.1875,-31.8125,-31.8125,-31.8125,6.310043,5.792676,4.412853,7.304304,6.026813,2.150589,-0.1224837,-0.3026567,1.123953,0.2738108,0.1872021,1.126147,0.08867586,0.2857139,1.369296,-0.1271967,-0.2632753,1.102764,0.2468974,0.1783599,1.1925,0.07291497,-0.1406627,1.389882,0.07441743,-0.442068,1.360402,-0.08583122,0.03168071,1.377681,-0.005917684,-0.432031,1.330718,-0.1669544,-0.1699763,1.374809,0.3924074,-0.07079104,1.247809,NA,NA,Closed,Unknown,
-0.4238281,0.6279297,0.5913086,-0.4345703,1.174316,0.355957,0,4,0,-4,-1,-2,0,0,-32,-16,-21,-10,-7,-10,-5,-35,-14.5,-14.5,-14.5,-63.8125,-63.8125,-63.8125,6.294517,5.680541,4.451262,7.17736,5.534905,2.090452,-0.1272528,-0.2768145,1.114216,0.2848938,0.07517737,1.09193,0.08753721,0.2863221,1.36986,-0.120265,-0.2519675,1.075942,0.3278896,0.1185799,1.143125,0.07232332,-0.1411643,1.390331,0.07372541,-0.4441788,1.36049,-0.08715016,0.02994429,1.377468,-0.006391933,-0.4340601,1.330628,-0.1685346,-0.1715815,1.374522,0.3690496,-0.1130947,1.267203,NA,NA,Closed,Closed,
-0.4003906,0.6494141,0.621582,-0.4130859,1.467285,0.4521484,1,3,-5,10,1,-1,2,0,5,-10,-13,-7,7,-3,-1,-2,-5.4375,-5.4375,-5.4375,-60.1875,-60.1875,-60.1875,6.297793,5.583489,4.504832,7.018008,5.034141,2.091576,-0.1303111,-0.2605111,1.107918,0.284788,-0.03670181,1.082713,0.08676182,0.2866806,1.369748,-0.1151332,-0.2339956,1.088324,0.2678602,0.004504906,1.114571,0.07198927,-0.1419137,1.390406,0.07328271,-0.4464273,1.360479,-0.0873924,0.02931847,1.377253,-0.00674308,-0.4361875,1.330547,-0.1684132,-0.1724014,1.373595,0.3564986,-0.1761184,1.333023,NA,NA,Closed,Closed,
-0.3212891,0.6918945,0.6987305,-0.1186523,1.325195,0.3232422,-4,-5,-2,-3,-2,-1,1,-3,-75,-21,3,5,0,-3,-12,-51,-3.625,-3.625,-3.625,-33.4375,-33.4375,-33.4375,6.295435,5.529094,4.532658,6.929157,4.832017,2.161177,-0.1284674,-0.2477466,1.104838,0.2704706,-0.1059014,1.091925,0.08656866,0.2868023,1.369557,-0.1025065,-0.2183592,1.111766,0.2395362,-0.07410529,1.097923,0.07185014,-0.1426004,1.39029,0.07265258,-0.4478365,1.360316,-0.08739403,0.02890725,1.37724,-0.007264191,-0.4374027,1.330215,-0.1680598,-0.1729618,1.373445,0.3346626,-0.1609807,1.334743,NA,NA,Closed,Unknown,
-0.3696289,0.7285156,0.7392578,-0.01855469,1.149902,0.3535156,10,1,3,4,1,1,2,6,-14,-2,1,-1,-1,-2,0,0,20.6875,20.6875,20.6875,-16.875,-16.875,-16.875,6.294757,5.460502,4.49895,6.902806,4.806393,2.261647,-0.1187174,-0.2271303,1.102547,0.2505924,-0.1289605,1.104234,0.08662732,0.2868548,1.369265,-0.09995371,-0.1913271,1.113283,0.2790259,-0.1073863,1.0866,0.07202778,-0.1431016,1.390086,0.07265818,-0.448652,1.36018,-0.08712779,0.02880755,1.377146,-0.007243054,-0.4380987,1.330004,-0.1676274,-0.1732242,1.371988,0.3482276,-0.1551158,1.346923,NA,NA,Closed,Unknown,
-0.03857422,0.8100586,0.7211914,0.04003906,0.8959961,0.3500977,4,10,28,12,6,0,3,-1,0,0,-6,-4,7,11,5,2,2.375,2.375,2.375,1.4375,1.4375,1.4375,6.277748,5.346109,4.41101,6.896286,4.852905,2.34688,-0.09823769,-0.1904485,1.098631,0.2303843,-0.1199138,1.10347,0.08708289,0.2868642,1.368391,-0.1037027,-0.1482463,1.076488,0.1977964,-0.08676431,1.121333,0.07225104,-0.1434334,1.389734,0.07286439,-0.4489802,1.360075,-0.08657546,0.02880456,1.376839,-0.007021134,-0.4383595,1.329839,-0.1665327,-0.173704,1.366958,0.3436778,-0.1588323,1.338328,NA,NA,Closed,Closed,
-0.009765625,0.6791992,0.6430664,0.09033203,0.7978516,0.3544922,-5,-1,5,3,1,2,3,0,30,22,22,8,0,6,14,0,4.5625,4.5625,4.5625,10.75,10.75,10.75,6.255779,5.160078,4.286802,6.890496,4.872849,2.438969,-0.07876549,-0.1581883,1.093733,0.2190304,-0.1077731,1.100825,0.08761895,0.2871851,1.367391,-0.09810487,-0.1685431,1.071494,0.1770795,-0.090211,1.117625,0.07227753,-0.1435489,1.389568,0.07289822,-0.4491345,1.360104,-0.085899,0.02911833,1.376272,-0.006941119,-0.4384528,1.329758,-0.2002973,-0.1522396,1.32168,0.3480166,-0.1602276,1.289017,NA,NA,Closed,Unknown,
-0.1069336,0.6572266,0.6005859,0.04003906,0.6455078,0.2895508,3,-3,7,2,2,0,-4,10,-18,-3,-3,-1,0,-1,2,6,0.9375,0.9375,0.9375,-13.625,-13.625,-13.625,6.256343,5.09303,4.213273,6.871791,4.792691,2.477584,-0.06611431,-0.1488198,1.088691,0.215138,-0.1130081,1.09603,0.08799597,0.2873143,1.366508,-0.04399779,-0.1791082,1.093938,0.2260322,-0.08412679,1.10252,0.07239457,-0.1436288,1.389256,0.07288591,-0.4491898,1.360092,-0.0851699,0.02888289,1.373721,-0.006917972,-0.4384927,1.329656,-0.1977232,-0.153089,1.316548,0.3431457,-0.1592696,1.286714,NA,NA,Closed,Closed,
-0.08837891,0.6650391,0.5717773,0.1123047,0.7709961,0.1826172,1,-9,-17,-17,-9,-5,-3,1,-20,-5,-1,2,3,5,-2,4,16.75,16.75,16.75,-6.5,-6.5,-6.5,6.271731,5.143646,4.174159,6.895402,4.531073,2.454802,-0.06234499,-0.1716652,1.085437,0.2194981,-0.1537727,1.098735,0.0880546,0.2874525,1.366184,-0.01176932,-0.1786512,1.096,0.226771,-0.1197306,1.1105,0.07240847,-0.1437248,1.389137,0.07283342,-0.4493009,1.360132,-0.08513761,0.02879439,1.37345,-0.006922782,-0.438529,1.32962,-0.2134782,-0.1433334,1.389966,0.3594435,-0.1507359,1.335929,NA,NA,Unknown,Closed,
-0.1972656,0.6030273,0.5805664,0.3911133,0.8027344,0.3105469,-7,8,9,5,2,1,7,-11,0,1,-6,-1,4,4,6,14,-13.6875,-13.6875,-13.6875,-13,-13,-13,6.280306,5.367221,4.17563,6.903722,4.252264,2.365982,-0.06884641,-0.2176148,1.080783,0.233369,-0.2130313,1.092708,0.08812165,0.2874978,1.366074,-0.01590432,-0.2279342,1.10375,0.2616455,-0.2138881,1.072583,0.07259204,-0.1438569,1.389008,0.07306132,-0.4494615,1.36011,-0.08488329,0.02876252,1.37332,-0.006624317,-0.4386595,1.32947,-0.1976456,-0.1572571,1.34682,0.3382838,-0.1614153,1.323387,NA,NA,Closed,Unknown,
-0.3974609,0.5581055,0.4213867,0.7114258,0.8076172,0.2631836,12,-3,-8,-2,-1,1,2,45,14,-8,-18,-9,0,24,29,-5,3.6875,3.6875,3.6875,-17.125,-17.125,-17.125,6.332597,5.597911,4.22253,6.975962,3.962659,2.206398,-0.09079409,-0.2789265,1.082274,0.2589161,-0.2914827,1.096509,0.08814752,0.2874643,1.36597,-0.04406239,-0.2870978,1.1028,0.2824166,-0.2747658,1.073714,0.07296465,-0.1441645,1.388738,0.07447122,-0.450114,1.359809,-0.08473185,0.02856942,1.373208,-0.005028177,-0.4394954,1.328905,-0.1963882,-0.1582929,1.351773,0.3306283,-0.1680803,1.331219,NA,NA,Closed,Closed,
-0.2226563,0.8056641,0.6411133,0.8242188,0.7094727,0.2705078,-22,21,34,20,11,0,12,-43,-6,46,52,16,5,-5,5,19,13.4375,13.4375,13.4375,-43.75,-43.75,-43.75,6.361551,5.837516,4.312087,7.024154,3.719002,2.03042,-0.1214719,-0.3438067,1.090045,0.2878698,-0.3657525,1.113847,0.08817572,0.2875605,1.365945,-0.07965504,-0.3486187,1.107053,0.287167,-0.3284233,1.093069,0.07343083,-0.1445738,1.388672,0.07617831,-0.4511639,1.359799,-0.08523829,0.0274544,1.372127,-0.003270234,-0.4408773,1.328656,-0.1851332,-0.1653699,1.338334,0.316364,-0.1797191,1.34032,NA,NA,Closed,Unknown,
-0.8227539,0.6635742,0.5834961,0.8701172,0.6088867,0.1743164,10,5,-2,1,5,-1,1,25,-6,-7,-6,-3,-2,4,1,-7,-39.5,-39.5,-39.5,14.5,14.5,14.5,6.416211,6.123265,4.458004,7.093437,3.519424,1.890732,-0.1401339,-0.3814414,1.105446,0.3070371,-0.3985156,1.131962,0.08827278,0.2875546,1.365961,-0.1274869,-0.3565961,1.070831,0.2697408,-0.4028642,1.116546,0.0737872,-0.1449645,1.388726,0.0767599,-0.4517418,1.360075,-0.08516017,0.02701814,1.371286,-0.002780804,-0.4414777,1.328732,-0.1717,-0.1723242,1.338546,0.3118117,-0.1834639,1.342218,NA,NA,Closed,Unknown,
-0.8271484,0.5942383,0.4165039,0.6948242,0.6293945,0.1953125,2,2,3,2,2,1,0,-2,-2,-13,-16,-7,-3,-10,-2,4,10.75,10.75,10.75,-8.375,-8.375,-8.375,6.447245,6.237684,4.524441,7.120773,3.48817,1.873587,-0.1488706,-0.3969129,1.119181,0.3117489,-0.4121391,1.145424,0.08861494,0.2873962,1.365896,-0.1672989,-0.3800476,1.086653,0.302518,-0.4583873,1.173444,0.07404027,-0.1453452,1.388733,0.07705168,-0.4522409,1.360317,-0.08529261,0.02662288,1.370586,-0.002532908,-0.4419424,1.328798,-0.1672546,-0.1746807,1.337986,0.3102551,-0.1859337,1.344065,NA,NA,Unknown,Unknown,
-0.7202148,0.5854492,0.4697266,0.796875,0.5708008,0.1347656,2,0,1,-4,3,4,3,-4,9,2,11,3,3,7,3,-27,-26.5625,-26.5625,-26.5625,-6.3125,-6.3125,-6.3125,6.456715,6.281735,4.559095,7.117176,3.467565,1.852792,-0.1534472,-0.3979515,1.128373,0.313917,-0.4202188,1.152291,0.08892719,0.2873195,1.365765,-0.1724676,-0.3769073,1.096608,0.2769268,-0.4223514,1.138308,0.07431068,-0.1457689,1.388754,0.07715683,-0.4526697,1.360602,-0.08530777,0.02654656,1.370427,-0.002468499,-0.4422899,1.328882,-0.1658751,-0.1768425,1.33836,0.3093986,-0.1885625,1.345696,NA,NA,Unknown,Unknown,
-0.7734375,0.5708008,0.4257813,0.8540039,0.574707,0.1225586,3,-2,3,0,-1,-1,-5,13,-43,0,12,6,2,8,13,-1,-13.6875,-13.6875,-13.6875,-4.625,-4.625,-4.625,6.440492,6.291273,4.585185,7.094761,3.467855,1.844613,-0.1547545,-0.4001219,1.1289,0.3137371,-0.4178506,1.154647,0.08945154,0.2871881,1.365615,-0.1715447,-0.3727432,1.101079,0.276292,-0.4314919,1.164154,0.07441086,-0.1460124,1.388864,0.07727339,-0.4530264,1.360915,-0.08518951,0.02664003,1.370559,-0.002386184,-0.442556,1.329065,-0.1650808,-0.1785844,1.338772,0.3082257,-0.1910683,1.347261,NA,NA,Closed,Unknown,
-0.7172852,0.5712891,0.4355469,0.7592773,0.5576172,0.1508789,-6,-8,-11,-15,-8,-4,-2,-5,9,3,5,1,-3,-5,2,-3,0.0625,0.0625,0.0625,2.6875,2.6875,2.6875,6.42978,6.280737,4.584056,7.081105,3.489904,1.866348,-0.1535961,-0.3991002,1.127489,0.3115401,-0.414776,1.15382,0.08984035,0.2870994,1.36535,-0.1937767,-0.4236422,1.129267,0.2784498,-0.4315974,1.172601,0.07463676,-0.1462529,1.388876,0.07734485,-0.4532827,1.361153,-0.08526469,0.02664687,1.370579,-0.002330552,-0.4427403,1.329189,-0.1645694,-0.1795323,1.339208,0.3079473,-0.1914642,1.347793,NA,NA,Closed,Unknown,
-0.6953125,0.5375977,0.4316406,0.8032227,0.5332031,0.1552734,23,9,-4,1,-1,0,3,7,-2,-1,-3,-2,0,-1,-5,11,-1.5,-1.5,-1.5,10.3125,10.3125,10.3125,6.420516,6.26713,4.574346,7.092978,3.499007,1.87208,-0.1521598,-0.3993275,1.127838,0.3087956,-0.4120801,1.153996,0.09010355,0.2869964,1.365171,-0.1698938,-0.3758765,1.095819,0.274055,-0.4337462,1.163369,0.07474254,-0.1464645,1.38892,0.07738819,-0.4535596,1.361425,-0.08514256,0.02668457,1.370751,-0.002300688,-0.4429656,1.329391,-0.1639439,-0.1802003,1.340122,0.3077891,-0.1918319,1.348065,NA,NA,Closed,Unknown,
-0.6855469,0.5380859,0.4233398,0.847168,0.46875,0.09521484,-5,0,-2,-3,-5,-1,13,4,5,0,-2,0,-2,-3,1,-8,-1.9375,-1.9375,-1.9375,7.9375,7.9375,7.9375,6.421743,6.271744,4.575979,7.116261,3.471583,1.860588,-0.152104,-0.4021601,1.131796,0.3090639,-0.4147039,1.153265,0.09031576,0.2868518,1.36501,-0.1701486,-0.3789234,1.098559,0.2754375,-0.4359316,1.166795,0.07482521,-0.1466293,1.388946,0.07742567,-0.4537156,1.361659,-0.08504042,0.02684562,1.371107,-0.002258003,-0.4431316,1.329592,-0.1632114,-0.1811696,1.340698,0.3075778,-0.1922891,1.348203,NA,NA,Unknown,Unknown,
-0.7260742,0.4770508,0.3710938,0.7807617,0.4428711,0.09765625,-6,-2,-1,-1,-3,-1,0,-20,0,0,-2,1,-2,0,0,-6,-13,-13,-13,12.5,12.5,12.5,6.415508,6.323707,4.595218,7.150462,3.422408,1.841462,-0.15352,-0.4104759,1.146351,0.3090038,-0.4226379,1.163216,0.09035911,0.2868496,1.364989,-0.1898247,-0.4379717,1.134185,0.2708459,-0.4278532,1.175963,0.07487801,-0.1467806,1.389057,0.07741044,-0.4539194,1.362047,-0.08545061,0.0267362,1.371317,-0.002274346,-0.4433536,1.329944,-0.1621648,-0.182648,1.341697,0.3075484,-0.1936186,1.348869,NA,NA,Closed,Unknown,
-0.7333984,0.4477539,0.3266602,0.7739258,0.4355469,0.04589844,2,-6,-5,-3,0,1,-3,7,-1,-3,0,1,1,-3,-16,10,-4.0625,-4.0625,-4.0625,25.9375,25.9375,25.9375,6.422579,6.404979,4.619468,7.200367,3.336991,1.825643,-0.1550744,-0.4247143,1.170869,0.3087961,-0.4384918,1.19178,0.09033906,0.2869182,1.364964,-0.1803558,-0.4124437,1.141033,0.2692077,-0.4443586,1.196719,0.07497944,-0.1468851,1.389111,0.07741301,-0.454029,1.362354,-0.08568288,0.0266913,1.371554,-0.002250062,-0.4434635,1.330262,-0.1602827,-0.1863854,1.344621,0.3087839,-0.1967198,1.350761,NA,NA,Closed,Closed,
