ALX,ALY,ALZ,ARX,ARY,ARZ,EMG0L,EMG1L,EMG2L,EMG3L,EMG4L,EMG5L,EMG6L,EMG7L,EMG0R,EMG1R,EMG2R,EMG3R,EMG4R,EMG5R,EMG6R,EMG7R,GLX,GLY,GLZ,GRX,GRY,GRZ,ORL,OPL,OYL,ORR,OPR,OYR,LHNX,LHNY,LHNZ,RHNX,RHNY,RHNZ,HX,HY,HZ,LTX,LTY,LTZ,RTX,RTY,RTZ,SpineMidX,SpineMidY,SpineMidZ,SpineBaseX,SpineBaseY,SpineBaseZ,ShoulderLeftX,ShoulderLeftY,ShoulderLeftZ,ShoulderRightX,ShoulderRightY,ShoulderRightZ,ElbowLeftX,ElbowLeftY,ElbowLeftZ,ElbowRightX,ElbowRightY,ElbowRightZ,Myo_Pose_left,Myo_Pose_Right,Kinect_pose_left,Kinect_pose_right
-0.984375,0.1855469,0.1396484,0.934082,0.2519531,0.02539063,-2,-2,-1,-3,0,-2,0,-2,0,-3,-1,-3,0,2,1,-1,0.75,0.75,0.75,-0.625,-0.625,-0.625,6.442801,7.115725,4.651932,7.350482,2.912119,1.571305,-0.1356976,-0.4946183,1.325736,0.2993559,-0.4949529,1.30877,0.08598809,0.2856238,1.360046,-0.1746048,-0.4820328,1.327491,0.2586284,-0.4674209,1.30465,0.07231595,-0.1503018,1.39178,0.07299408,-0.4568229,1.372104,-0.09141045,0.02224237,1.377131,-0.006266822,-0.4462504,1.341742,-0.1369012,-0.2358646,1.373994,0.2985118,-0.229864,1.375637,NA,NA,NotTracked,NotTracked,
-0.9794922,0.1835938,0.1303711,0.9384766,0.246582,0.02929688,-2,-2,0,-1,1,-2,-1,-1,-1,-1,-2,1,0,-1,3,-1,1.375,1.375,1.375,-0.8125,-0.8125,-0.8125,6.4457,7.117698,4.652312,7.347323,2.910494,1.573834,-0.1358638,-0.494051,1.325894,0.3009584,-0.4945926,1.309271,0.08656112,0.2854256,1.359792,-0.175536,-0.4898714,1.327548,0.2588146,-0.4710533,1.304575,0.07264622,-0.15038,1.391717,0.07331431,-0.4569046,1.372091,-0.09059469,0.02246081,1.377033,-0.005947416,-0.4463078,1.341722,-0.1364119,-0.235849,1.373928,0.2989754,-0.2300972,1.375536,NA,NA,NotTracked,NotTracked,
-0.9775391,0.1884766,0.1342773,0.9404297,0.2519531,0.02636719,-1,-2,-1,0,-2,-1,-2,0,-1,1,1,-2,-1,1,2,-2,0.8125,0.8125,0.8125,-2.125,-2.125,-2.125,6.446612,7.117232,4.653655,7.342457,2.909998,1.576833,-0.134949,-0.4942511,1.325787,0.3013506,-0.4811276,1.311008,0.08716167,0.285313,1.35953,-0.174955,-0.4842632,1.327322,0.2616678,-0.4782733,1.305064,0.07319812,-0.1503889,1.391568,0.07386185,-0.4568983,1.372005,-0.0901328,0.02233213,1.376905,-0.00540678,-0.4462711,1.341628,-0.1360447,-0.2356674,1.373814,0.2993971,-0.2300126,1.375457,NA,NA,NotTracked,NotTracked,
-0.9785156,0.1845703,0.1323242,0.9482422,0.2485352,0.02587891,-1,-1,-1,-3,-1,-3,0,-2,-1,0,-3,-2,-1,-2,0,1,-0.5625,-0.5625,-0.5625,0.375,0.375,0.375,6.447672,7.118042,4.654629,7.340121,2.910146,1.578056,-0.1347203,-0.4944639,1.326384,0.3011446,-0.4810232,1.312063,0.08775685,0.2853324,1.359052,-0.17512,-0.4852642,1.327572,0.2604203,-0.4744553,1.304744,0.0734843,-0.1503561,1.391541,0.0740824,-0.4568869,1.37202,-0.09000818,0.0223094,1.376915,-0.005190654,-0.4462523,1.341632,-0.1357632,-0.2355382,1.373722,0.2997911,-0.230085,1.375441,NA,NA,NotTracked,NotTracked,
-0.9765625,0.1826172,0.1328125,0.940918,0.2451172,0.02832031,0,0,-1,-2,0,0,-2,0,-3,-4,-3,0,0,0,5,-4,0.3125,0.3125,0.3125,-0.0625,-0.0625,-0.0625,6.449307,7.119007,4.655599,7.340173,2.910035,1.577912,-0.1349389,-0.4941149,1.325385,0.300944,-0.4814474,1.311708,0.0883344,0.2852732,1.358761,-0.1742419,-0.4874359,1.327587,0.2592964,-0.4659336,1.302782,0.07386917,-0.1504091,1.391371,0.07421783,-0.4568998,1.371999,-0.08974683,0.02229098,1.376714,-0.00505723,-0.446239,1.341644,-0.1356037,-0.2354128,1.373667,0.3001285,-0.2302226,1.375309,NA,NA,NotTracked,NotTracked,
-0.9853516,0.1791992,0.1274414,0.9394531,0.2504883,0.02636719,-1,-1,0,-1,-1,-1,-2,1,-1,-2,0,-1,0,-2,0,-2,0.5625,0.5625,0.5625,-0.0625,-0.0625,-0.0625,6.450542,7.11913,4.657125,7.340785,2.910261,1.577838,-0.1346073,-0.4936782,1.324991,0.3019071,-0.4803092,1.311182,0.08876282,0.2851863,1.358567,-0.1744677,-0.4865019,1.326706,0.2624483,-0.4768955,1.304063,0.07403662,-0.1504515,1.391312,0.07441724,-0.4569856,1.371989,-0.08952665,0.02201569,1.37658,-0.004870543,-0.4463092,1.341585,-0.1352178,-0.2349611,1.373415,0.3004803,-0.2303146,1.375257,NA,NA,NotTracked,NotTracked,
-0.980957,0.1860352,0.1293945,0.9746094,0.2485352,-0.03613281,-2,-1,-1,-2,-3,-2,0,-3,3,-14,-4,8,1,0,50,7,-0.5,-0.5,-0.5,-4.0625,-4.0625,-4.0625,6.451582,7.119481,4.658348,7.334938,2.913245,1.579764,-0.1352184,-0.49455,1.325663,0.3008701,-0.4810496,1.31167,0.08900902,0.285131,1.358388,-0.1749097,-0.4878216,1.326654,0.2585064,-0.4579298,1.301727,0.07427867,-0.1504595,1.391254,0.07472268,-0.4569971,1.371891,-0.08950894,0.02196861,1.376601,-0.004586933,-0.4463331,1.341514,-0.1351046,-0.2348907,1.373374,0.3006399,-0.2302721,1.375182,NA,NA,NotTracked,NotTracked,
-0.9804688,0.1801758,0.1313477,1.036133,0.3022461,-0.1132813,0,-2,-1,-1,0,1,-1,-2,3,36,14,15,5,2,-1,2,-1.0625,-1.0625,-1.0625,-38.3125,-38.3125,-38.3125,6.451166,7.119585,4.658824,7.268252,2.965061,1.607582,-0.1345565,-0.4941785,1.324775,0.3002875,-0.4782655,1.30705,0.08923879,0.2851173,1.358236,-0.1740886,-0.4880226,1.327328,0.2569141,-0.4493356,1.298857,0.07448861,-0.1504984,1.391147,0.07485291,-0.4570155,1.371807,-0.08892986,0.02227281,1.376423,-0.004464389,-0.446347,1.341444,-0.1348701,-0.2349492,1.373292,0.3010792,-0.2301881,1.375174,NA,NA,NotTracked,NotTracked,
-0.9829102,0.2124023,0.109375,1.149414,0.5029297,0.1162109,-2,0,0,-2,-1,-1,-1,0,7,40,56,16,8,-2,-1,6,-12.6875,-12.6875,-12.6875,-19.125,-19.125,-19.125,6.456148,7.114031,4.678452,7.099988,3.120189,1.728494,-0.1350221,-0.4941992,1.324367,0.2953673,-0.4576243,1.282074,0.08925933,0.2851182,1.358101,-0.1737829,-0.4843225,1.324909,0.2561978,-0.4446854,1.28202,0.07449757,-0.1504758,1.391105,0.07483041,-0.4569986,1.371773,-0.08899125,0.02213689,1.376427,-0.004488548,-0.4463143,1.341388,-0.1346965,-0.2350842,1.37315,0.3064675,-0.2230413,1.378362,NA,NA,NotTracked,NotTracked,
-0.9799805,0.2260742,0.1381836,0.8696289,0.9038086,0.3457031,-2,0,-2,-1,-1,0,0,-1,-9,-41,-22,-14,2,-1,-1,-2,-16,-16,-16,11.75,11.75,11.75,6.456337,7.10092,4.704797,6.976058,3.55138,1.873084,-0.1350654,-0.4929581,1.321237,0.2838115,-0.4131577,1.22459,0.08933444,0.2851743,1.357945,-0.174795,-0.480548,1.324709,0.2507528,-0.4024179,1.215904,0.07438963,-0.1504973,1.391006,0.07439407,-0.4570688,1.371408,-0.08892912,0.02201793,1.376372,-0.00503163,-0.446294,1.340811,-0.1346706,-0.2351324,1.373137,0.3146442,-0.2084899,1.381697,NA,NA,NotTracked,NotTracked,
-0.9926758,0.1962891,0.1577148,0.5424805,1.04541,0.4467773,0,-1,-2,1,-1,0,-1,1,-36,-82,-100,-27,-15,-13,-19,-25,-16.625,-16.625,-16.625,12.6875,12.6875,12.6875,6.441026,7.077051,4.722925,6.968416,4.038141,1.910463,-0.1345556,-0.4919165,1.315035,0.26254,-0.3219732,1.14865,0.08934597,0.2851514,1.357894,-0.1749793,-0.4891804,1.320148,0.2224825,-0.3543057,1.1635,0.07377017,-0.1504174,1.390867,0.07240102,-0.4567355,1.370723,-0.08852962,0.02233525,1.376454,-0.007037203,-0.4456924,1.340199,-0.1346614,-0.2349786,1.373083,0.3174116,-0.185018,1.376347,NA,NA,NotTracked,Unknown,
-0.9750977,0.2314453,0.1630859,0.2729492,0.9824219,0.2670898,0,-1,-2,-1,-2,-2,2,-3,24,45,55,43,16,2,10,11,-11.375,-11.375,-11.375,55.5,55.5,55.5,6.42543,7.061011,4.719868,7.029812,4.768764,1.941718,-0.1332966,-0.4903925,1.309174,0.2619309,-0.179887,1.111115,0.08945286,0.2851063,1.357962,-0.1737577,-0.486212,1.310212,0.2389193,-0.2038382,1.122919,0.07336181,-0.1502821,1.390943,0.07153516,-0.4564978,1.370436,-0.08844453,0.02233126,1.376452,-0.007881284,-0.4454243,1.339944,-0.1346744,-0.234591,1.372904,0.3498799,-0.1621743,1.36596,NA,NA,NotTracked,Unknown,
-1.0625,0.28125,0.1845703,-0.2910156,1.125,0.2207031,-1,-2,2,-2,-3,-1,-2,-1,-10,-21,-9,-10,-5,-3,-9,-5,-16.1875,-16.1875,-16.1875,73.25,73.25,73.25,6.370731,6.984272,4.695108,7.159777,5.339815,1.995191,-0.1320452,-0.4857811,1.298349,0.2680435,-0.02531198,1.111255,0.08986044,0.2852217,1.3585,-0.1710128,-0.488674,1.302,0.2362426,-0.02833552,1.128056,0.07270193,-0.1500617,1.391189,0.07087863,-0.4561461,1.370089,-0.08778639,0.02293392,1.376416,-0.008560492,-0.4450344,1.339744,-0.1349537,-0.23332,1.372407,0.3636028,-0.1937574,1.337814,NA,NA,NotTracked,Closed,
-0.9672852,0.230957,0.1694336,-0.5195313,0.9995117,0.2324219,1,-1,1,0,2,-3,-1,0,4,6,18,0,0,3,-5,-1,-26.3125,-26.3125,-26.3125,79.0625,79.0625,79.0625,6.318894,6.940936,4.668183,7.319985,5.87386,2.082544,-0.1277242,-0.4890953,1.281226,0.263425,0.09506996,1.154082,0.09003758,0.2851963,1.359059,-0.1650719,-0.4839458,1.281961,0.2258605,0.1032616,1.191941,0.07249627,-0.1494355,1.391439,0.07035592,-0.4547688,1.36915,-0.08791052,0.02354874,1.377196,-0.009195032,-0.4436041,1.338899,-0.1355138,-0.231034,1.372064,0.3804497,-0.1524649,1.324641,NA,NA,NotTracked,Unknown,
-0.9287109,0.2246094,0.2402344,-0.6274414,0.6855469,0.175293,-2,-1,0,-2,1,1,-2,-2,-2,0,2,2,-2,-25,6,-17,-16,-16,-16,75.8125,75.8125,75.8125,6.271705,6.881662,4.641321,7.555424,6.350955,2.251181,-0.125578,-0.4792074,1.263167,0.2593596,0.1807869,1.2073,0.08968923,0.2852618,1.360131,-0.1620471,-0.4851536,1.26836,0.2376109,0.1610891,1.250792,0.0731373,-0.1475573,1.390736,0.07055428,-0.4504755,1.367175,-0.08773081,0.02359134,1.377388,-0.009388178,-0.4398978,1.33708,-0.1369564,-0.2251811,1.372517,0.3934854,-0.100736,1.27698,NA,NA,NotTracked,Unknown,
-0.8701172,0.3652344,0.3520508,-0.746582,0.3212891,-0.002441406,2,4,7,4,4,0,1,0,-1,3,4,4,6,15,16,6,-3.125,-3.125,-3.125,49.125,49.125,49.125,6.230481,6.704103,4.597688,8.094378,6.847548,2.740944,-0.1225334,-0.4709308,1.249613,0.2119889,0.2721376,1.2738,0.09002888,0.2848206,1.362106,-0.161632,-0.4819286,1.260882,0.1600583,0.2285752,1.3085,0.07436715,-0.1460846,1.389488,0.07115737,-0.4479655,1.365721,-0.08576291,0.02590663,1.378139,-0.00908998,-0.4375679,1.336024,-0.1377441,-0.2218285,1.373206,0.3988237,0.05780922,1.211149,NA,NA,NotTracked,Unknown,
-0.8759766,0.3569336,0.3701172,-1.058105,0.1777344,-0.03515625,-2,-4,-2,-8,-3,-1,-2,-4,-4,-4,-1,2,5,-4,7,-15,-15.1875,-15.1875,-15.1875,22.9375,22.9375,22.9375,6.2124,6.636774,4.60255,8.777418,7.024041,3.409687,-0.1224963,-0.4633167,1.239785,0.2410271,0.2757432,1.289698,0.09166063,0.2849527,1.364006,-0.161874,-0.4752406,1.2509,0.1882148,0.2495028,1.266333,0.07581328,-0.1446972,1.38844,0.07232472,-0.4456426,1.364469,-0.08399528,0.02801392,1.378773,-0.008109811,-0.4350637,1.334982,-0.1383922,-0.2174084,1.373796,0.3983644,0.06796101,1.211992,NA,NA,NotTracked,Unknown,
-0.8398438,0.3564453,0.3735352,-0.8398438,0.03613281,-0.159668,-1,1,6,6,0,-1,2,2,9,-1,-1,0,-6,1,6,-17,-11.125,-11.125,-11.125,14.9375,14.9375,14.9375,6.204526,6.600403,4.609098,9.52151,7.052985,4.158847,-0.1221947,-0.4566213,1.230948,0.2392615,0.2820145,1.302192,0.09292749,0.285144,1.36609,-0.1598169,-0.4682854,1.240429,0.2350941,0.243805,1.320089,0.07629187,-0.1439288,1.387856,0.07258074,-0.4440182,1.363639,-0.0830529,0.02905908,1.378884,-0.007949091,-0.4335991,1.334863,-0.1388067,-0.214645,1.374195,0.388507,0.09505766,1.20914,NA,NA,NotTracked,NotTracked,
-0.8198242,0.3911133,0.3886719,-0.5688477,0.01025391,-0.1826172,1,0,1,-3,-2,-2,-1,1,3,-3,-4,-1,0,1,6,-1,0.75,0.75,0.75,-8.75,-8.75,-8.75,6.210036,6.539064,4.627009,9.996166,7.048654,4.636644,-0.1240855,-0.4503132,1.225592,0.2365492,0.2870193,1.306465,0.09333785,0.2853513,1.366856,-0.1617158,-0.4664311,1.231863,0.1981139,0.2748607,1.313857,0.07678884,-0.1430792,1.387372,0.07267238,-0.4429033,1.363062,-0.08266572,0.02955887,1.379017,-0.007887023,-0.4324126,1.335129,-0.1395394,-0.2126442,1.374301,0.3834528,0.1057172,1.207629,NA,NA,Closed,NotTracked,
-0.8115234,0.4233398,0.4101563,-0.4311523,0.003417969,-0.2788086,1,-1,1,1,0,0,-2,-3,-1,-1,-1,4,3,-6,-2,-10,8,8,8,-21.0625,-21.0625,-21.0625,6.239291,6.48964,4.637885,9.624632,7.078018,4.298947,-0.1253697,-0.4452897,1.218615,0.230771,0.2924046,1.295646,0.0941372,0.2855476,1.367518,-0.162729,-0.4592305,1.22284,0.183222,0.2477507,1.272571,0.07711253,-0.142453,1.386844,0.07293128,-0.4415361,1.362275,-0.0821735,0.03019633,1.379106,-0.007773438,-0.4311796,1.335241,-0.1403302,-0.2101041,1.374227,0.3806533,0.1091662,1.205624,NA,NA,Closed,NotTracked,
-0.7924805,0.4160156,0.4287109,-0.6489258,0.2094727,-0.1401367,-3,-3,-6,-2,-2,0,5,-3,6,-2,-3,-4,-2,2,-6,-5,-7.125,-7.125,-7.125,-47,-47,-47,6.243298,6.450222,4.648497,8.562777,7.028129,3.261943,-0.1283559,-0.4386193,1.214019,0.2308495,0.295995,1.259912,0.09457095,0.2856082,1.367591,-0.1665106,-0.4454751,1.217675,0.177511,0.2508926,1.295695,0.07733703,-0.1423317,1.386592,0.07327561,-0.4409959,1.362051,-0.08196016,0.03077423,1.379533,-0.007465316,-0.4305525,1.335179,-0.1429834,-0.2056921,1.374886,0.3808748,0.1051345,1.203927,NA,NA,Unknown,NotTracked,
-0.815918,0.4257813,0.440918,-0.6225586,0.5180664,0.1479492,2,-1,0,-3,-2,-2,-2,0,-3,-13,-9,-7,-4,-3,-11,16,-4.5625,-4.5625,-4.5625,-41.0625,-41.0625,-41.0625,6.242877,6.426408,4.656119,7.605615,6.578234,2.326558,-0.1301574,-0.433011,1.20764,0.2483087,0.2569284,1.188616,0.09292435,0.2852257,1.368136,-0.1695793,-0.4379442,1.216964,0.2381819,0.2287375,1.230518,0.07748798,-0.1422857,1.386442,0.07357803,-0.4413502,1.361813,-0.08247648,0.03110652,1.3808,-0.007157427,-0.430938,1.334549,-0.1445814,-0.203338,1.374388,0.3933209,-0.008886713,1.209181,NA,NA,Unknown,Unknown,
-0.8012695,0.4458008,0.4418945,-0.6240234,0.9033203,0.3017578,0,1,8,0,-4,-2,-3,-2,-28,-12,0,2,-3,-7,-5,-20,-5.1875,-5.1875,-5.1875,-58.9375,-58.9375,-58.9375,6.243161,6.379908,4.667988,7.349838,6.119984,2.106687,-0.1312137,-0.4247834,1.200767,0.2607749,0.179515,1.127422,0.09039453,0.2850414,1.368927,-0.1676325,-0.4313542,1.20172,0.2457171,0.1580896,1.1959,0.07594463,-0.1424548,1.388345,0.07361493,-0.442202,1.36199,-0.08387769,0.02984365,1.381076,-0.007032818,-0.4319272,1.33463,-0.146668,-0.2001355,1.374639,0.3852577,-0.075325,1.239868,NA,NA,Closed,Lasso,
-0.7929688,0.5249023,0.4951172,-0.4594727,1.196289,0.2900391,-3,-13,-8,6,-2,-2,-1,-4,12,0,1,-3,-5,-6,4,-26,-0.5625,-0.5625,-0.5625,-77.9375,-77.9375,-77.9375,6.250648,6.304598,4.675453,7.198486,5.688086,2.029885,-0.1304768,-0.4145026,1.193261,0.2677568,0.08282439,1.0934,0.08887358,0.2854236,1.369316,-0.1662017,-0.4342213,1.1962,0.2950163,0.1256087,1.1247,0.07472783,-0.142936,1.389907,0.07398672,-0.4441701,1.362286,-0.08576518,0.02907983,1.382345,-0.006353212,-0.4344909,1.334587,-0.1488316,-0.1959485,1.37542,0.3671644,-0.1206885,1.275192,NA,NA,Closed,Unknown,
-0.7592773,0.4931641,0.4970703,-0.2861328,1.206543,0.4628906,-2,-2,1,-3,1,-2,0,1,6,13,5,2,-12,2,7,1,-10.3125,-10.3125,-10.3125,-64.4375,-64.4375,-64.4375,6.243365,6.258591,4.680049,7.030888,5.217577,2.012644,-0.1267176,-0.4007719,1.179207,0.267301,-0.02024052,1.079884,0.08819512,0.2857308,1.369489,-0.1649468,-0.3820651,1.180919,0.2875926,0.01772352,1.093375,0.07451642,-0.1436142,1.390581,0.07505893,-0.4471123,1.362417,-0.08617686,0.02878928,1.382561,-0.005062615,-0.4377286,1.334081,-0.1502041,-0.1913671,1.376895,0.3424492,-0.1493243,1.30225,NA,NA,Closed,Closed,
-0.7172852,0.5561523,0.5512695,-0.2441406,1.27832,0.3466797,4,12,10,-2,-1,0,2,4,-11,-26,-34,-17,-3,-1,-3,-1,6.125,6.125,6.125,-67.25,-67.25,-67.25,6.249573,6.161665,4.685667,6.91748,4.94878,2.03713,-0.1260706,-0.3743632,1.164582,0.2560804,-0.09526919,1.084032,0.08797715,0.2858567,1.369601,-0.163642,-0.3957169,1.167857,0.2248204,-0.06956884,1.102,0.07435474,-0.1442821,1.390993,0.07536355,-0.4488448,1.362519,-0.08678638,0.02825094,1.383181,-0.004660171,-0.439494,1.333698,-0.1509642,-0.1851998,1.378316,0.3309898,-0.1593483,1.314044,NA,NA,Unknown,Closed,
-0.5141602,0.5966797,0.605957,0.09033203,1.170898,0.3544922,7,3,9,7,1,-1,-2,6,-11,-11,-25,-9,-3,0,-3,-10,-9.375,-9.375,-9.375,-28.8125,-28.8125,-28.8125,6.232209,5.987973,4.697063,6.853432,4.765086,2.062569,-0.122848,-0.3451158,1.147059,0.2461712,-0.1445437,1.09606,0.08792188,0.2858779,1.369614,-0.1377635,-0.3887406,1.151667,0.2230241,-0.1104673,1.105846,0.07431631,-0.1447364,1.391227,0.07556231,-0.4499806,1.362582,-0.08673862,0.02814509,1.383226,-0.004414948,-0.4405195,1.333474,-0.1511822,-0.1794372,1.380872,0.3399925,-0.1600862,1.349155,NA,NA,Closed,Closed,
-0.496582,0.6054688,0.5927734,0.1479492,1.01123,0.4038086,-1,1,7,4,1,-1,-2,-3,35,-4,-3,-2,1,1,5,18,-11.875,-11.875,-11.875,-1.625,-1.625,-1.625,6.227327,5.897566,4.701303,6.832093,4.676756,2.089153,-0.1206581,-0.3120649,1.137591,0.2432819,-0.1677305,1.104676,0.08794505,0.285971,1.369635,-0.1133748,-0.3757995,1.151667,0.2118262,-0.1331507,1.106333,0.07421511,-0.1449134,1.39144,0.07540826,-0.4503437,1.362745,-0.0867516,0.02802568,1.383328,-0.004483136,-0.4407077,1.333424,-0.1522436,-0.1790418,1.3831,0.3629116,-0.1474706,1.357663,NA,NA,Closed,Closed,
-0.5439453,0.6533203,0.6669922,0.1181641,1.024902,0.3647461,-5,-8,-13,-8,-4,-3,-3,0,65,11,7,6,2,0,-1,9,23.3125,23.3125,23.3125,14.125,14.125,14.125,6.232958,5.713272,4.681842,6.849347,4.676431,2.106875,-0.1146111,-0.2857082,1.125485,0.2389222,-0.1762505,1.087789,0.08805557,0.286029,1.369732,-0.1130534,-0.3463664,1.134714,0.2057878,-0.1546633,1.09021,0.07422625,-0.1451028,1.391713,0.07535892,-0.4506184,1.362969,-0.08663081,0.02792184,1.383284,-0.004466883,-0.4408068,1.33347,-0.1522834,-0.1791396,1.382525,0.3447582,-0.1588749,1.324813,NA,NA,Closed,Closed,
-0.5576172,0.6547852,0.6821289,0.2553711,0.9765625,0.4472656,1,24,35,15,7,3,1,-3,-54,-23,-10,-6,-6,-5,-5,-14,23.1875,23.1875,23.1875,33.25,33.25,33.25,6.244749,5.639486,4.655027,6.890105,4.705831,2.144683,-0.1018351,-0.2420125,1.115212,0.235031,-0.1622567,1.091287,0.08820604,0.2861445,1.369953,-0.1090406,-0.2879105,1.116072,0.2018767,-0.1410258,1.1252,0.0739786,-0.1452863,1.392101,0.0750218,-0.4509925,1.363362,-0.08691846,0.02740115,1.383695,-0.004685787,-0.4409861,1.33378,-0.1423967,-0.1783403,1.297977,0.3404249,-0.1549631,1.294647,NA,NA,Closed,Closed,
-0.215332,0.71875,0.7148438,0.1865234,0.8833008,0.4169922,1,-8,-12,-7,-5,-1,-3,-2,-8,5,0,-3,-1,-1,3,-3,1.25,1.25,1.25,35.9375,35.9375,35.9375,6.244924,5.38807,4.555842,6.929679,4.772695,2.216323,-0.0812703,-0.1828579,1.108602,0.2270864,-0.131571,1.092394,0.08828378,0.2862179,1.370088,-0.09649222,-0.2144132,1.094965,0.235678,-0.09777199,1.097789,0.07381077,-0.1453582,1.392602,0.07470161,-0.4511521,1.363887,-0.08668551,0.02754712,1.383576,-0.004952824,-0.4408845,1.334303,-0.2061883,-0.1494078,1.406505,0.3468066,-0.1624072,1.346485,NA,NA,Closed,Unknown,
-0.01074219,0.6313477,0.6220703,0.09082031,0.7758789,0.3339844,5,7,3,4,4,-2,-1,0,7,3,-4,0,1,4,4,11,6.0625,6.0625,6.0625,2.9375,2.9375,2.9375,6.228429,5.079535,4.429433,6.947365,4.867453,2.352398,-0.05884823,-0.1265382,1.107252,0.2159019,-0.1053383,1.113384,0.08828941,0.2862968,1.370173,-0.01990263,-0.1258545,1.113462,0.1745514,-0.106033,1.120714,0.07361515,-0.1452982,1.392984,0.07429851,-0.4511403,1.364486,-0.08625165,0.02783366,1.383581,-0.005238644,-0.4406943,1.334582,-0.1892308,-0.1609273,1.33238,0.3343023,-0.1663705,1.323282,NA,NA,Closed,Unknown,
0.01660156,0.6357422,0.5942383,0.09716797,0.6811523,0.3125,32,20,15,17,7,1,-7,0,-28,-4,-3,-1,-3,-8,7,25,6.4375,6.4375,6.4375,-26.4375,-26.4375,-26.4375,6.245971,4.930649,4.355361,6.911804,4.817538,2.394969,-0.04906125,-0.1013895,1.10035,0.2084414,-0.1047153,1.126294,0.08825836,0.2864086,1.370183,-0.04899434,-0.06742134,1.101158,0.1864599,-0.06713393,1.119125,0.07352073,-0.1452498,1.393391,0.07412946,-0.4510367,1.364948,-0.08628298,0.02787237,1.383628,-0.005362459,-0.4404735,1.334999,-0.181075,-0.1615091,1.316278,0.3700162,-0.1740575,1.329429,NA,NA,Closed,Closed,
-0.03125,0.6254883,0.5322266,0.0078125,0.7109375,0.2314453,8,7,3,1,-2,1,0,12,25,-1,-4,1,-4,-26,-32,34,3.0625,3.0625,3.0625,-2.4375,-2.4375,-2.4375,6.255371,4.976192,4.333067,6.891975,4.660238,2.357384,-0.05157519,-0.1187933,1.091796,0.2106784,-0.1385478,1.124381,0.08826106,0.2864612,1.370181,-0.01420494,-0.1062282,1.101429,0.2035868,-0.09876778,1.1219,0.07339267,-0.1452139,1.393702,0.07380392,-0.4509438,1.36535,-0.08611238,0.0280843,1.383557,-0.005647485,-0.4402331,1.335383,-0.1787124,-0.1613534,1.312538,0.3565473,-0.16325,1.313661,NA,NA,Closed,Unknown,
-0.06542969,0.7041016,0.4780273,0.3178711,0.8823242,0.1879883,-1,9,2,-1,-1,4,11,14,6,5,7,4,2,2,16,8,14.3125,14.3125,14.3125,-11.625,-11.625,-11.625,6.287151,5.194833,4.393378,6.883004,4.266606,2.204224,-0.07037347,-0.1788538,1.078457,0.2296216,-0.2011502,1.110148,0.08834577,0.2865576,1.370328,-0.0188196,-0.1955655,1.09825,0.1903071,-0.2093398,1.10625,0.07328783,-0.1451916,1.39412,0.07351366,-0.4509254,1.365814,-0.08544418,0.02879306,1.383702,-0.005857763,-0.4401181,1.335567,-0.1970366,-0.157638,1.37846,0.359181,-0.1544229,1.345339,NA,NA,Unknown,Unknown,
-0.5009766,0.65625,0.5927734,1.192383,0.7836914,0.5161133,-6,9,19,15,5,6,9,5,6,-10,-8,1,1,-13,-21,10,21.875,21.875,21.875,-43.4375,-43.4375,-43.4375,6.327816,5.604518,4.525386,6.899303,3.958042,2.052897,-0.1036677,-0.2630498,1.080159,0.2611779,-0.284871,1.113133,0.0885445,0.2866334,1.370821,-0.05769766,-0.275192,1.091539,0.2226775,-0.3005629,1.113231,0.07340924,-0.1452776,1.394362,0.07384655,-0.4511868,1.366025,-0.08545584,0.02833467,1.383286,-0.005562964,-0.4403664,1.33576,-0.1772465,-0.1675847,1.341068,0.3286654,-0.1750014,1.343825,NA,NA,Unknown,Unknown,
-0.7324219,0.703125,0.7099609,0.7607422,0.753418,0.284668,-2,1,0,-1,2,-2,2,-15,-5,8,2,1,4,9,-16,-3,-22.9375,-22.9375,-22.9375,11.625,11.625,11.625,6.34998,5.785374,4.612906,6.956855,3.751603,1.949885,-0.1283499,-0.3296806,1.095297,0.2850279,-0.3495237,1.12838,0.08874584,0.286712,1.371065,-0.09209091,-0.3476475,1.113737,0.2566357,-0.3543828,1.095882,0.07366019,-0.1454338,1.394562,0.07458436,-0.4515156,1.366203,-0.08546489,0.02799192,1.383302,-0.004882456,-0.4407402,1.335828,-0.1754178,-0.1690647,1.343349,0.3190787,-0.1806594,1.356768,NA,NA,Closed,Unknown,
-0.9194336,0.7182617,0.5703125,0.6386719,0.7167969,0.28125,-17,-12,-11,-7,-2,-2,-9,-3,-23,5,20,10,2,1,-4,0,-27.6875,-27.6875,-27.6875,6,6,6,6.383017,6.058658,4.7197,6.958657,3.657562,1.917318,-0.141204,-0.3582003,1.119397,0.2945849,-0.3746331,1.144381,0.08904609,0.2866986,1.371141,-0.09872806,-0.3806909,1.127333,0.2618427,-0.3808405,1.122816,0.07396641,-0.1455658,1.394627,0.07511839,-0.4517373,1.366354,-0.08532234,0.02804776,1.38315,-0.004371209,-0.4410071,1.335943,-0.163605,-0.1751129,1.357686,0.317138,-0.1845129,1.361392,NA,NA,Unknown,Unknown,
-0.6713867,0.6352539,0.6328125,0.6513672,0.6601563,0.2333984,2,-11,-7,-5,-1,-2,2,4,23,0,6,14,4,-16,-47,61,4.5625,4.5625,4.5625,-23.5625,-23.5625,-23.5625,6.361247,6.131212,4.725785,6.931077,3.671049,1.927454,-0.1438284,-0.3644246,1.130526,0.2945293,-0.3794563,1.149562,0.0893408,0.2867443,1.371099,-0.1001539,-0.3790974,1.140016,0.3284318,-0.3667605,1.132326,0.07426514,-0.1457197,1.394522,0.07583196,-0.4519707,1.366336,-0.08493958,0.02801356,1.382519,-0.003695737,-0.4412596,1.335775,-0.160593,-0.1763063,1.363734,0.3163482,-0.187116,1.365582,NA,NA,Unknown,Unknown,
-0.5424805,0.6914063,0.5380859,0.730957,0.6518555,0.234375,-11,-12,0,2,3,2,0,-6,8,8,-2,-8,-9,-10,2,-7,-18.9375,-18.9375,-18.9375,9.3125,9.3125,9.3125,6.359394,6.130078,4.733353,6.918204,3.684768,1.933131,-0.1438074,-0.3654996,1.132481,0.2923357,-0.3792688,1.148876,0.08956736,0.2867262,1.371007,-0.1210084,-0.3504831,1.101153,0.2952405,-0.4205163,1.173,0.07458881,-0.1459636,1.394364,0.07642569,-0.4523461,1.366269,-0.08480085,0.02787686,1.382418,-0.003123004,-0.4416779,1.335582,-0.1589685,-0.1769857,1.366689,0.3155853,-0.1892011,1.368472,NA,NA,Unknown,Unknown,
-0.6201172,0.6293945,0.4980469,0.7382813,0.6030273,0.215332,6,2,-9,-7,-2,-1,-5,-11,6,4,-3,-1,0,5,-3,-20,-4.0625,-4.0625,-4.0625,3,3,3,6.318271,6.108026,4.745601,6.917574,3.691762,1.944862,-0.1432829,-0.3649459,1.131758,0.2904605,-0.3785158,1.146689,0.08989239,0.2867797,1.370803,-0.1255127,-0.3433057,1.100851,0.3431574,-0.3872971,1.1675,0.07483276,-0.146152,1.394277,0.07696996,-0.4526412,1.36637,-0.08441006,0.02788041,1.381779,-0.002626922,-0.4419636,1.335513,-0.1575308,-0.1773196,1.368804,0.3152103,-0.1903477,1.369572,NA,NA,Unknown,Unknown,
-0.6616211,0.5380859,0.5253906,0.7382813,0.5698242,0.2109375,7,-2,-5,-4,-3,-3,4,9,14,-6,-13,-6,-4,-7,-4,10,-2.5625,-2.5625,-2.5625,8,8,8,6.305378,6.106838,4.743543,6.931211,3.679056,1.946277,-0.1417646,-0.3650429,1.132453,0.2894221,-0.3794451,1.146674,0.09007002,0.2868162,1.370787,-0.1585288,-0.3443936,1.107634,0.3307404,-0.3919779,1.137125,0.07506187,-0.1461892,1.394193,0.07737726,-0.4526777,1.366405,-0.08442496,0.02786375,1.381747,-0.002248744,-0.4420266,1.335429,-0.1566724,-0.1776265,1.369655,0.3148233,-0.1905894,1.37008,NA,NA,Unknown,Unknown,
-0.640625,0.5556641,0.4863281,0.7299805,0.5639648,0.1972656,-21,-11,-3,-5,-4,-7,-6,-39,7,-2,0,0,0,3,0,15,2.4375,2.4375,2.4375,4.1875,4.1875,4.1875,6.311455,6.119515,4.740955,6.951053,3.639948,1.933024,-0.1408273,-0.370102,1.136842,0.2913524,-0.385374,1.148926,0.09025843,0.2868825,1.37059,-0.1576198,-0.3502799,1.111099,0.2963634,-0.4344034,1.190333,0.07522298,-0.1462317,1.394139,0.07752979,-0.4526685,1.366484,-0.08441539,0.0278258,1.381688,-0.002105688,-0.4420484,1.335505,-0.156198,-0.1778255,1.369743,0.3147534,-0.1906936,1.370208,NA,NA,Unknown,Unknown,
-0.6328125,0.5161133,0.4624023,0.7080078,0.5332031,0.1743164,2,1,2,0,-1,-1,-3,6,-17,-3,-3,2,-1,-6,-9,-2,-1.125,-1.125,-1.125,4.9375,4.9375,4.9375,6.312575,6.166061,4.745612,6.981789,3.561145,1.905495,-0.1427989,-0.3864795,1.152535,0.2951992,-0.4045282,1.162444,0.0903751,0.2868937,1.37028,-0.1576346,-0.3642439,1.123603,0.2762921,-0.4500632,1.203438,0.07546811,-0.146375,1.394009,0.07780161,-0.4528159,1.366591,-0.0844538,0.02777436,1.381545,-0.001854073,-0.442239,1.335627,-0.1548438,-0.1783676,1.369537,0.3146575,-0.1914701,1.370415,NA,NA,Unknown,Unknown,
-0.6328125,0.5019531,0.4189453,0.8051758,0.425293,0.1499023,0,2,0,0,1,1,-1,15,10,-2,-11,-3,0,0,-4,4,-3.625,-3.625,-3.625,17.9375,17.9375,17.9375,6.33002,6.258148,4.771094,7.050182,3.381148,1.847383,-0.1453952,-0.4183924,1.180613,0.2996145,-0.4235002,1.19106,0.09051555,0.2868983,1.369989,-0.1603717,-0.3993213,1.145118,0.2619809,-0.4256701,1.205,0.07556812,-0.1465439,1.393939,0.0779033,-0.4531823,1.366951,-0.0844003,0.02778623,1.381283,-0.001752133,-0.4426,1.335963,-0.1537168,-0.1834158,1.368482,0.3149899,-0.1943026,1.3709,NA,NA,Unknown,Closed,
