ALX,ALY,ALZ,ARX,ARY,ARZ,EMG0L,EMG1L,EMG2L,EMG3L,EMG4L,EMG5L,EMG6L,EMG7L,EMG0R,EMG1R,EMG2R,EMG3R,EMG4R,EMG5R,EMG6R,EMG7R,GLX,GLY,GLZ,GRX,GRY,GRZ,ORL,OPL,OYL,ORR,OPR,OYR,LHNX,LHNY,LHNZ,RHNX,RHNY,RHNZ,HX,HY,HZ,LTX,LTY,LTZ,RTX,RTY,RTZ,SpineMidX,SpineMidY,SpineMidZ,SpineBaseX,SpineBaseY,SpineBaseZ,ShoulderLeftX,ShoulderLeftY,ShoulderLeftZ,ShoulderRightX,ShoulderRightY,ShoulderRightZ,ElbowLeftX,ElbowLeftY,ElbowLeftZ,ElbowRightX,ElbowRightY,ElbowRightZ,Myo_Pose_left,Myo_Pose_Right,Kinect_pose_left,Kinect_pose_right
-0.9619141,0.2192383,0.175293,0.9331055,0.2827148,0.01269531,0,-1,-1,-2,-2,0,-1,-3,17,1,-1,-1,0,0,0,2,-0.375,-0.375,-0.375,-0.8125,-0.8125,-0.8125,6.40068,7.040499,7.729476,7.464426,2.949982,9.900975,-0.1129471,-0.4850717,1.307769,0.3141125,-0.5084459,1.303263,0.09828241,0.2881469,1.378866,-0.07546231,-0.4773013,1.2883,0.3533787,-0.507319,1.29858,0.08580555,-0.1515352,1.400495,0.08708132,-0.4592672,1.377103,-0.08087482,0.01646356,1.388892,0.007952462,-0.448516,1.348094,-0.1186475,-0.2336949,1.372088,0.3061256,-0.2352383,1.36943,NA,NA,NotTracked,NotTracked,
-0.9692383,0.2172852,0.1708984,0.9296875,0.2900391,-0.01220703,0,-2,-2,-2,-1,-2,-2,0,1,-2,-1,-1,-1,1,-1,2,0.1875,0.1875,0.1875,-0.5,-0.5,-0.5,6.401596,7.040769,7.729756,7.456257,2.950262,9.909174,-0.1126879,-0.485498,1.308287,0.3135878,-0.5087141,1.303701,0.09817582,0.288184,1.379178,-0.07586713,-0.4792266,1.288114,0.3517304,-0.4980707,1.299202,0.08571376,-0.151569,1.400799,0.08708452,-0.4592574,1.377194,-0.08093797,0.01629435,1.389073,0.007969757,-0.4485087,1.348227,-0.1185941,-0.2336976,1.372154,0.3061411,-0.2351605,1.3695,NA,NA,NotTracked,NotTracked,
-0.9682617,0.2192383,0.1689453,0.9306641,0.2583008,0.008789063,-2,0,-2,-2,-1,-2,-3,-1,-1,-2,0,-2,-1,0,0,1,0.3125,0.3125,0.3125,0.3125,0.3125,0.3125,6.401794,7.041389,7.729665,7.445224,2.951288,9.918753,-0.1129854,-0.4853467,1.308368,0.3135357,-0.5087294,1.303034,0.09820913,0.2882074,1.379405,-0.07701663,-0.4841098,1.28664,0.3534575,-0.5054364,1.274429,0.08580099,-0.1514849,1.400938,0.08712781,-0.4591346,1.377287,-0.08114768,0.01620579,1.389445,0.008018663,-0.4484081,1.348292,-0.1185891,-0.2336477,1.372254,0.3061626,-0.2352103,1.369559,NA,NA,NotTracked,NotTracked,
-0.9746094,0.2182617,0.1645508,0.9291992,0.2978516,0.008300781,-2,-1,-2,-1,-2,0,-1,-2,-1,-2,-3,-1,0,-3,-4,-3,1.25,1.25,1.25,-1.5,-1.5,-1.5,6.406589,7.041344,7.733104,7.445479,2.95169,9.918516,-0.1126177,-0.4865113,1.306624,0.3130065,-0.5086671,1.302712,0.0981929,0.2882087,1.379596,-0.0767335,-0.483529,1.286187,0.3519738,-0.508332,1.300667,0.08578733,-0.151531,1.40103,0.08716635,-0.459194,1.37731,-0.08114017,0.01616867,1.389556,0.008056862,-0.4484728,1.348321,-0.1185338,-0.2336773,1.372312,0.3061545,-0.2352473,1.369548,NA,NA,NotTracked,NotTracked,
-0.9726563,0.2138672,0.171875,0.9370117,0.2675781,0.00390625,-1,0,-1,0,0,0,-1,0,-6,1,0,-1,-2,0,-1,-1,-0.75,-0.75,-0.75,0,0,0,6.40711,7.041357,7.7337,7.445399,2.95236,9.915725,-0.1123408,-0.4854503,1.307816,0.3132306,-0.5089658,1.302504,0.09816273,0.2882478,1.379775,-0.0745854,-0.4715683,1.289071,0.3521391,-0.505556,1.294904,0.08585222,-0.1514684,1.401112,0.08717716,-0.459132,1.377362,-0.08111019,0.01626023,1.389763,0.008071939,-0.4484158,1.348406,-0.1184878,-0.2336412,1.372393,0.3061323,-0.2351789,1.369622,NA,NA,NotTracked,NotTracked,
-0.9658203,0.2172852,0.168457,0.9375,0.2695313,0.02587891,-2,-3,-1,-1,-1,-2,-1,1,3,-2,-2,-2,-1,-2,-2,-1,-1.0625,-1.0625,-1.0625,-5.25,-5.25,-5.25,6.41259,7.040696,7.742339,7.439994,2.953594,9.915576,-0.1124113,-0.485252,1.30863,0.3136332,-0.508351,1.303073,0.09815998,0.2883565,1.380051,-0.07561421,-0.4771049,1.288764,0.3546451,-0.5037684,1.271572,0.08585506,-0.151502,1.401229,0.08715926,-0.4591519,1.377458,-0.08106665,0.01626305,1.390096,0.008060907,-0.4484408,1.348529,-0.1184555,-0.2335525,1.372558,0.306143,-0.235202,1.369654,NA,NA,NotTracked,NotTracked,
-0.9624023,0.21875,0.171875,0.9287109,0.2827148,0.01074219,0,-1,0,-2,-3,0,-2,0,-1,-1,0,0,1,-1,2,-1,-2.0625,-2.0625,-2.0625,1.625,1.625,1.625,6.418139,7.038871,7.750251,7.442949,2.950536,9.913363,-0.1125546,-0.4852429,1.308597,0.3140316,-0.5092106,1.303382,0.09819996,0.2883433,1.380208,-0.07556466,-0.4776108,1.288744,0.3541027,-0.5111763,1.292212,0.08585509,-0.1514951,1.401291,0.08713923,-0.4591429,1.377492,-0.08110639,0.01633542,1.390566,0.008040196,-0.448428,1.348631,-0.1183603,-0.2336675,1.372757,0.3061322,-0.235318,1.369703,NA,NA,NotTracked,NotTracked,
-0.9672852,0.2177734,0.1708984,0.9453125,0.2680664,0.01025391,-1,-1,-1,-1,0,-1,0,0,-3,2,2,0,-1,1,1,2,-2.3125,-2.3125,-2.3125,-3.125,-3.125,-3.125,6.414946,7.038266,7.750668,7.454247,2.949681,9.89805,-0.1126048,-0.4852796,1.308432,0.3146128,-0.508503,1.303772,0.09822585,0.2884579,1.380417,-0.07566248,-0.4778339,1.287988,0.3532014,-0.5059755,1.298713,0.0858826,-0.1514824,1.401407,0.08708026,-0.4592168,1.377619,-0.0810434,0.01622457,1.390663,0.008002423,-0.4484632,1.348708,-0.1181789,-0.2338711,1.372898,0.3062328,-0.2353633,1.369796,NA,NA,NotTracked,NotTracked,
-0.9672852,0.2216797,0.1704102,0.9946289,0.3994141,-0.1152344,-1,0,-1,-1,1,-1,-1,-2,3,-11,-5,-7,-1,3,4,-10,-0.6875,-0.6875,-0.6875,-24.5,-24.5,-24.5,6.40867,7.039211,7.746191,7.474616,2.963245,9.865023,-0.1123059,-0.4846254,1.307826,0.3140075,-0.5083841,1.302504,0.09823288,0.2884172,1.380475,-0.07690143,-0.4887914,1.285162,0.3532192,-0.5071337,1.297302,0.08588739,-0.1515183,1.401417,0.08711652,-0.4592597,1.377584,-0.08099469,0.0161077,1.390631,0.008031456,-0.4485141,1.348668,-0.1181067,-0.2339539,1.372926,0.30625,-0.2353655,1.369783,NA,NA,NotTracked,NotTracked,
-0.9716797,0.21875,0.1621094,1.105469,0.2880859,0.01123047,-3,-1,-1,-1,0,0,-2,-1,-12,-14,-4,-5,-3,-1,-2,-2,-2.0625,-2.0625,-2.0625,-59.6875,-59.6875,-59.6875,6.397887,7.040421,7.738234,7.274006,3.042873,9.968954,-0.1121818,-0.4853581,1.308806,0.3155263,-0.5025477,1.293836,0.09822203,0.2884367,1.380583,-0.07584447,-0.4813884,1.288084,0.357453,-0.4695032,1.289818,0.08590206,-0.15154,1.401499,0.08711256,-0.4592675,1.377599,-0.0808118,0.01620368,1.390677,0.008022387,-0.448511,1.348694,-0.1180656,-0.2338809,1.373066,0.3067898,-0.2347742,1.370098,NA,NA,NotTracked,NotTracked,
-0.9604492,0.2197266,0.171875,1.000977,0.5483398,0.1176758,-1,-2,0,-2,-2,-2,-1,-2,-2,2,8,-4,2,-1,-1,-3,-4.9375,-4.9375,-4.9375,45.25,45.25,45.25,6.395878,7.03744,7.745899,7.124729,3.194454,0.1574443,-0.1119412,-0.4850207,1.307858,0.3168986,-0.4853579,1.257737,0.0981473,0.2884896,1.380719,-0.07509179,-0.4792082,1.288297,0.3596822,-0.4697653,1.256316,0.08588073,-0.1515341,1.401589,0.0870487,-0.4593069,1.377651,-0.08079704,0.01614049,1.39068,0.007924924,-0.4485594,1.348777,-0.1180395,-0.2338992,1.373129,0.3098363,-0.2284745,1.371502,NA,NA,NotTracked,NotTracked,
-0.9692383,0.2119141,0.1850586,0.7958984,0.6245117,0.3071289,-1,-2,-1,0,1,0,0,-1,-3,-5,5,3,-1,8,8,29,0.5,0.5,0.5,-8.5,-8.5,-8.5,6.387034,7.036465,7.739979,6.921208,3.569348,0.4019454,-0.1127516,-0.4873806,1.307504,0.3031211,-0.4449528,1.204201,0.0980481,0.2884943,1.3809,-0.07612737,-0.4809614,1.287473,0.3240183,-0.4209632,1.18871,0.08579104,-0.1514997,1.401685,0.08687166,-0.4592486,1.377735,-0.08082496,0.01611792,1.390733,0.007707051,-0.4485168,1.348884,-0.1179274,-0.2338558,1.373202,0.3145399,-0.2134831,1.373045,NA,NA,NotTracked,NotTracked,
-0.9707031,0.2080078,0.1723633,0.5200195,0.8300781,0.4179688,0,-1,-1,-2,-2,0,0,-3,6,-9,-2,-5,0,0,-2,11,9.1875,9.1875,9.1875,45.3125,45.3125,45.3125,6.387115,7.040409,7.725225,6.886896,3.91113,0.5216946,-0.1114496,-0.4870206,1.307096,0.2846085,-0.3904013,1.148452,0.0978894,0.2883811,1.380941,-0.07545819,-0.4796539,1.287599,0.3277824,-0.4128359,1.185,0.08558034,-0.1514604,1.401781,0.08617544,-0.4591173,1.377775,-0.08089798,0.01629354,1.391018,0.006978978,-0.4484265,1.349089,-0.1178367,-0.2336903,1.373302,0.3155816,-0.1992128,1.369826,NA,NA,NotTracked,Unknown,
-0.9707031,0.2104492,0.168457,0.4389648,0.7006836,0.3706055,0,-2,-2,-1,0,-2,0,-1,-2,1,-8,-6,-8,16,8,0,11.375,11.375,11.375,39.375,39.375,39.375,6.39659,7.040329,7.716462,6.903236,4.316236,0.640568,-0.1126497,-0.4869822,1.306284,0.2578366,-0.3174092,1.114775,0.09778198,0.2882254,1.381093,-0.075742,-0.4802158,1.287451,0.2734529,-0.3723243,1.154167,0.0851601,-0.1513204,1.402022,0.08496194,-0.4587487,1.377516,-0.08085184,0.01631168,1.391058,0.005824313,-0.4481144,1.34908,-0.1177373,-0.2336088,1.373248,0.3136159,-0.1851322,1.362463,NA,NA,NotTracked,Unknown,
-0.9790039,0.21875,0.1557617,0.2822266,0.8217773,0.328125,-1,-1,-2,-1,-3,-2,-3,0,-54,-10,-2,-2,30,13,9,-44,6.8125,6.8125,6.8125,48.1875,48.1875,48.1875,6.406609,7.03881,7.711424,6.944379,4.564594,0.744701,-0.1113224,-0.4868351,1.30546,0.2360826,-0.2852013,1.060814,0.09757881,0.2881672,1.381612,-0.07567919,-0.4814115,1.286705,0.2480598,-0.2925795,1.044214,0.08486587,-0.1511732,1.40233,0.08431602,-0.458617,1.37741,-0.0806458,0.01634129,1.391166,0.005070191,-0.4479391,1.349264,-0.1176564,-0.2334111,1.373234,0.2981956,-0.1771515,1.270932,NA,NA,NotTracked,Unknown,
-0.9677734,0.2241211,0.1572266,0.1015625,0.8320313,0.2543945,-2,-3,-3,-2,-2,0,0,-1,-25,-24,-11,-7,-29,-18,-11,-16,-3.4375,-3.4375,-3.4375,20.1875,20.1875,20.1875,6.411999,7.034235,7.71558,6.971838,4.750247,0.8544049,-0.1108126,-0.4864432,1.3035,0.2156627,-0.2064098,1.095247,0.09724738,0.2882189,1.38198,-0.07566383,-0.4830249,1.285245,0.2402399,-0.206935,1.070569,0.08450871,-0.150929,1.402674,0.08355992,-0.4582464,1.377261,-0.08051111,0.01637749,1.391366,0.004320188,-0.4475557,1.349468,-0.1175178,-0.2334045,1.373224,0.3425,-0.1701499,1.317268,NA,NA,NotTracked,Unknown,
-0.9672852,0.215332,0.1689453,0.1943359,0.777832,0.3378906,-3,-1,-2,-2,-3,-2,0,-1,-5,-11,-13,2,21,-3,-2,-29,-8.625,-8.625,-8.625,26.9375,26.9375,26.9375,6.403641,7.028929,7.719699,7.003067,4.84113,0.9167246,-0.1109327,-0.4867442,1.304549,0.2006482,-0.1913775,1.09695,0.0966159,0.2881216,1.383008,-0.07553131,-0.4824552,1.285299,0.2399931,-0.2181118,1.063467,0.08383437,-0.1505813,1.40338,0.0825581,-0.4574982,1.377276,-0.08044971,0.01644098,1.391696,0.003406158,-0.4467992,1.350131,-0.1174146,-0.2332611,1.373253,0.3908497,-0.1442066,1.342101,NA,NA,NotTracked,Unknown,
-0.9628906,0.215332,0.171875,0.1269531,0.890625,0.324707,-2,-4,-2,-2,-2,-1,-2,-5,-36,2,11,-1,5,-12,-31,-95,-15.4375,-15.4375,-15.4375,14.1875,14.1875,14.1875,6.375041,7.027314,7.721504,7.022753,4.856133,0.9859631,-0.1107793,-0.4873872,1.30602,0.1924647,-0.1860961,1.098841,0.09608924,0.2880219,1.383639,-0.07530975,-0.4827794,1.286016,0.2330958,-0.2190274,1.05904,0.0834372,-0.1502137,1.403882,0.08186058,-0.456813,1.377282,-0.08052703,0.01641368,1.392046,0.002817236,-0.4461959,1.350624,-0.1173561,-0.2331819,1.373321,0.390841,-0.1428164,1.33625,NA,NA,NotTracked,Open,
-0.9658203,0.2265625,0.1826172,0.1357422,0.9204102,0.3120117,-1,1,-1,-1,0,1,0,0,-29,-8,-3,-5,0,-11,-1,-46,-17.25,-17.25,-17.25,8.9375,8.9375,8.9375,6.353905,7.024993,7.727966,7.037601,4.845039,1.01391,-0.1116139,-0.4875803,1.306652,0.1878154,-0.1859561,1.100377,0.09502085,0.287956,1.384523,-0.07503789,-0.4815635,1.28662,0.2301158,-0.2168049,1.057667,0.08273322,-0.1499337,1.404221,0.08116782,-0.4563198,1.377248,-0.08101387,0.01605017,1.392689,0.002293844,-0.4458335,1.350963,-0.1174006,-0.2332665,1.373467,0.3945657,-0.1393615,1.337527,NA,NA,NotTracked,Open,
-0.9672852,0.2207031,0.1982422,0.06738281,0.9428711,0.2973633,-1,-1,-1,0,-3,-2,0,1,-4,8,3,-1,0,-1,-10,-15,-8.4375,-8.4375,-8.4375,2,2,2,6.340894,7.022424,7.735788,7.038404,4.841359,1.036211,-0.1116696,-0.4879657,1.307679,0.1851945,-0.1840755,1.10253,0.09385376,0.2878618,1.385337,-0.07696635,-0.4864123,1.286137,0.2287887,-0.2186056,1.056325,0.08226816,-0.1496019,1.404546,0.08033668,-0.4556969,1.377305,-0.0812534,0.01602554,1.393295,0.001677241,-0.4453533,1.351287,-0.117411,-0.2334842,1.373907,0.3946997,-0.138588,1.336774,NA,NA,NotTracked,Open,
-0.9658203,0.2192383,0.199707,0.1088867,0.9614258,0.3955078,-3,0,-1,-1,-1,-1,0,-1,2,2,7,2,-1,0,-3,-7,3.4375,3.4375,3.4375,-1.4375,-1.4375,-1.4375,6.346328,7.020652,7.743592,7.032259,4.850946,1.039939,-0.1118711,-0.4996585,1.304695,0.1839573,-0.1837424,1.098682,0.09319701,0.2877715,1.385866,-0.07436506,-0.4783262,1.293848,0.2306454,-0.2139828,1.055035,0.08166209,-0.1493761,1.404902,0.07932242,-0.4553762,1.377509,-0.08147129,0.01592832,1.393656,0.0006918713,-0.4450268,1.351855,-0.1177551,-0.2334897,1.374432,0.3947285,-0.1379678,1.335487,NA,NA,NotTracked,Open,
-0.9658203,0.2197266,0.1801758,0.1005859,0.6210938,0.2192383,0,-2,-2,-1,1,-2,-1,-1,-34,-63,-39,-10,-20,-20,-67,-42,4.0625,4.0625,4.0625,-4.5625,-4.5625,-4.5625,6.358034,7.01762,7.745737,7.010674,4.813088,1.108277,-0.1123664,-0.4996454,1.304786,0.1845622,-0.1658954,1.089391,0.09274069,0.2876672,1.386409,-0.07567522,-0.4852626,1.287973,0.2404366,-0.1803363,1.080522,0.08127288,-0.1493927,1.405278,0.078793,-0.4552678,1.377647,-0.08170881,0.01574406,1.394172,0.0001988783,-0.4449459,1.352166,-0.1180265,-0.2338075,1.374937,0.3847364,-0.1420673,1.317831,NA,NA,NotTracked,Open,
-0.9609375,0.222168,0.1791992,0.04980469,1.137695,0.2895508,-2,0,-1,0,-1,-3,-2,-2,-112,-74,-20,12,-9,-16,-36,-83,-1,-1,-1,54,54,54,6.362351,7.016167,7.74953,7.079836,4.737008,1.091069,-0.1125157,-0.4996565,1.305023,0.1778432,-0.1133559,1.084113,0.09217098,0.2875492,1.386975,-0.07547711,-0.4846816,1.288571,0.2060425,-0.08477682,1.053864,0.08110847,-0.1494012,1.405416,0.07853474,-0.4553013,1.377682,-0.08195182,0.01565554,1.394792,-0.0001252378,-0.4450134,1.352392,-0.1182262,-0.2336479,1.375265,0.3329381,-0.1595257,1.286202,NA,NA,NotTracked,Unknown,
-0.9624023,0.222168,0.184082,-0.046875,0.8925781,0.1699219,-1,1,-3,-1,-1,0,-1,-3,12,-15,-2,26,-8,-2,-1,20,-2.9375,-2.9375,-2.9375,-95.0625,-95.0625,-95.0625,6.359803,7.014785,7.75096,7.072083,4.813812,0.9989619,-0.1125537,-0.4993822,1.304936,0.1933043,-0.02852829,1.074526,0.09201273,0.2875233,1.387087,-0.0776076,-0.4880345,1.286041,0.2129504,-0.02848479,1.047833,0.08069553,-0.1494048,1.405623,0.07800515,-0.4552443,1.377798,-0.08216094,0.01549499,1.395261,-0.0006435208,-0.4449928,1.352734,-0.118528,-0.2336133,1.375484,0.3182791,-0.1598759,1.278107,NA,NA,NotTracked,Unknown,
-0.9624023,0.222168,0.184082,0.04638672,0.9941406,0.2597656,-1,-2,0,0,-1,-4,-2,-1,10,24,31,41,12,16,27,-44,-2.9375,-2.9375,-2.9375,-2.5,-2.5,-2.5,6.359803,7.014785,7.75096,7.032053,4.844145,0.970409,-0.1128511,-0.4991934,1.305892,0.2014054,-0.09091024,1.116992,0.09174985,0.2874749,1.387489,-0.07505091,-0.4796034,1.291924,0.2485869,-0.05461331,1.09112,0.08029929,-0.149527,1.405895,0.07764786,-0.4553308,1.37781,-0.08255717,0.01502466,1.395879,-0.001029056,-0.4451617,1.353031,-0.1186668,-0.2338701,1.375936,0.3066449,-0.1615878,1.268157,NA,NA,NotTracked,Open,
-0.9638672,0.2324219,0.1801758,0.03466797,1.016602,0.25,-2,-1,-1,-1,0,-1,-2,-2,6,-35,-31,4,-13,-7,-5,10,-5.5625,-5.5625,-5.5625,6.6875,6.6875,6.6875,6.369331,7.008471,7.777391,7.038686,4.858068,0.9521936,-0.112971,-0.4990666,1.305134,0.203921,-0.08680315,1.119,0.09160037,0.2873175,1.387866,-0.07547688,-0.4792788,1.290325,0.2251674,-0.03183532,1.103333,0.08020955,-0.1495373,1.406032,0.07751609,-0.4553896,1.3778,-0.08272576,0.01481732,1.396602,-0.001181515,-0.4453039,1.353197,-0.118902,-0.2339868,1.376244,0.3055172,-0.1632363,1.267569,NA,NA,NotTracked,Open,
-0.9663086,0.2324219,0.2006836,0.1416016,0.9399414,0.3056641,-3,-1,-1,-2,0,-1,0,-1,-33,-11,-5,-12,-9,-6,-8,-40,-5.8125,-5.8125,-5.8125,8.1875,8.1875,8.1875,6.377899,6.999707,7.796092,7.044048,4.854809,0.954096,-0.1133384,-0.4991196,1.304493,0.2047122,-0.08570449,1.119185,0.0915249,0.2870437,1.388509,-0.07587124,-0.4806871,1.289465,0.2408398,-0.04466981,1.095829,0.08029156,-0.1497727,1.406473,0.07747634,-0.4555538,1.37777,-0.08279502,0.01427737,1.397117,-0.001206044,-0.4455378,1.353257,-0.1192107,-0.2341393,1.376748,0.3061512,-0.1650149,1.269311,NA,NA,NotTracked,Open,
-0.965332,0.2480469,0.1992188,0.04296875,0.9355469,0.2866211,-1,-2,-1,0,0,0,-1,0,-13,9,11,-7,2,2,-15,-2,2.5,2.5,2.5,-0.9375,-0.9375,-0.9375,6.419408,6.985209,7.841401,7.050254,4.858604,0.9609611,-0.1143286,-0.4865985,1.306971,0.2045373,-0.08505452,1.118931,0.09129036,0.2870016,1.389196,-0.07568087,-0.4801071,1.289996,0.2538437,-0.05516407,1.089692,0.08065394,-0.1497701,1.40685,0.07744155,-0.4555726,1.377756,-0.0825062,0.01422908,1.397452,-0.001222905,-0.4455516,1.353259,-0.1193075,-0.2341593,1.376885,0.3067723,-0.1656878,1.270341,NA,NA,NotTracked,Open,
-0.9609375,0.2558594,0.2021484,0.04296875,0.9726563,0.2700195,1,0,-1,-1,-2,-2,-2,0,-67,-50,-40,-50,-14,-15,-33,-20,5.4375,5.4375,5.4375,-1.5625,-1.5625,-1.5625,6.43147,6.983332,7.850813,7.048803,4.86868,0.9585825,-0.1137098,-0.4861409,1.307099,0.2057945,-0.08458659,1.118293,0.09011094,0.2874369,1.390701,-0.07632454,-0.4809678,1.289483,0.2467866,-0.04894567,1.093089,0.08240838,-0.1494662,1.407489,0.07738567,-0.4555711,1.377772,-0.08208036,0.01381037,1.397436,-0.001274168,-0.4455419,1.353247,-0.1193426,-0.234202,1.376992,0.3067458,-0.1655085,1.269616,NA,NA,NotTracked,Open,
-0.9643555,0.2490234,0.1679688,0.05761719,0.9736328,0.2915039,-1,0,-1,-1,0,0,-1,-3,-14,-28,-9,-4,4,2,-33,16,13.5,13.5,13.5,-1.3125,-1.3125,-1.3125,6.503078,6.986845,7.89396,7.038865,4.877461,0.951341,-0.1137588,-0.4853414,1.306343,0.1853748,-0.03362453,1.09115,0.08776221,0.2880619,1.393,-0.07667879,-0.4852165,1.289168,0.2044719,-0.004602414,1.071583,0.08565456,-0.1490641,1.407606,0.07732847,-0.4555817,1.377779,-0.08146102,0.01324344,1.397123,-0.001379993,-0.4455222,1.353084,-0.1193841,-0.2340903,1.377032,0.3017763,-0.1612763,1.258619,NA,NA,NotTracked,Open,
-0.9501953,0.253418,0.1621094,0.09912109,0.9638672,0.2915039,-1,-2,-1,-1,-1,1,0,-2,30,17,5,-8,-4,7,15,-37,11.8125,11.8125,11.8125,0.9375,0.9375,0.9375,6.517885,6.987623,7.902404,7.037193,4.875486,0.9484129,-0.1142078,-0.4848437,1.306719,0.2089261,-0.08429338,1.115498,0.08570512,0.288033,1.395078,-0.07647073,-0.4753839,1.288973,0.2268364,-0.03120743,1.106059,0.08983543,-0.1482912,1.406879,0.07732482,-0.4555502,1.377752,-0.080621,0.01270517,1.396653,-0.001402233,-0.4454417,1.352882,-0.1194695,-0.2337904,1.377151,0.3035794,-0.1628682,1.260155,NA,NA,NotTracked,Open,
-0.9462891,0.2436523,0.1547852,0.06591797,0.9545898,0.2973633,-2,-1,-2,-2,-2,-1,-1,-1,2,30,49,27,10,2,-14,43,-5,-5,-5,2.6875,2.6875,2.6875,6.54841,6.985807,7.933986,7.040778,4.872483,0.9514893,-0.1141447,-0.4852769,1.305811,0.209236,-0.08429828,1.114077,0.08377664,0.2880592,1.396278,-0.07544564,-0.4838469,1.292844,0.2557209,-0.05765544,1.082445,0.09062537,-0.147918,1.406861,0.07702528,-0.4552381,1.377739,-0.08005428,0.01251959,1.396565,-0.001737183,-0.4451255,1.352692,-0.1195332,-0.2336556,1.377222,0.3038628,-0.162061,1.258187,NA,NA,NotTracked,Open,
-0.949707,0.2587891,0.1762695,0.08056641,0.949707,0.2900391,-1,-1,-1,-2,-1,0,-1,-2,-13,3,6,-2,-6,-7,-30,-32,-7.4375,-7.4375,-7.4375,2.75,2.75,2.75,6.534296,6.986944,7.930679,7.043014,4.864453,0.9574589,-0.1140747,-0.4859095,1.308074,0.2092617,-0.08416099,1.113544,0.08194488,0.288229,1.397667,-0.07634992,-0.481441,1.289639,0.2526095,-0.05516772,1.08876,0.09274693,-0.1468665,1.406457,0.07669264,-0.454598,1.377905,-0.08139335,0.01232695,1.395845,-0.002022959,-0.4445902,1.352669,-0.1195635,-0.2336334,1.377408,0.3039648,-0.1612244,1.257218,NA,NA,NotTracked,Open,
-0.9575195,0.2548828,0.1650391,0.08935547,0.9428711,0.2905273,-1,0,-3,0,0,-1,-1,-1,-31,-15,-1,28,4,-6,-42,-75,-9.125,-9.125,-9.125,-0.5625,-0.5625,-0.5625,6.506525,6.994202,7.915119,7.042774,4.860524,0.9594995,-0.1137808,-0.4849293,1.308665,0.2090579,-0.08558628,1.112698,0.08050478,0.2886603,1.398376,-0.07661778,-0.4814554,1.289095,0.2505741,-0.05416825,1.089259,0.09419143,-0.1459635,1.406016,0.07659946,-0.4538498,1.377939,-0.0820891,0.01235933,1.395524,-0.002092804,-0.44398,1.352555,-0.1194897,-0.2336904,1.377533,0.3041538,-0.1609029,1.256772,NA,NA,NotTracked,Open,
-0.9575195,0.2548828,0.1650391,0.09814453,0.9301758,0.2910156,-1,-2,-1,-2,-1,-1,-1,-1,-15,-1,18,11,5,-12,-28,-56,-9.125,-9.125,-9.125,-3.125,-3.125,-3.125,6.506525,6.994202,7.915119,7.038589,4.852398,0.9587952,-0.1139969,-0.4859214,1.309572,0.209422,-0.08668776,1.112436,0.07948069,0.2888532,1.399259,-0.07654613,-0.4826714,1.289473,0.2570198,-0.06269661,1.081722,0.09484316,-0.1456261,1.405896,0.0763016,-0.4534387,1.378087,-0.08158621,0.01216337,1.395872,-0.002359977,-0.4435939,1.352654,-0.1194578,-0.2335575,1.377721,0.3082967,-0.1634126,1.261794,NA,NA,NotTracked,Open,
-0.9575195,0.2548828,0.1650391,0.1430664,0.9204102,0.3037109,-2,-1,-2,-1,-2,-1,-1,-1,23,15,10,9,5,5,2,47,-9.125,-9.125,-9.125,-6,-6,-6,6.506525,6.994202,7.915119,7.027159,4.836236,0.9513988,-0.1134044,-0.4857676,1.308064,0.2104782,-0.08826035,1.110778,0.07888907,0.2887341,1.39947,-0.07755792,-0.4838445,1.287775,0.2616288,-0.06774556,1.083294,0.09520373,-0.1455613,1.40573,0.07616738,-0.4533665,1.378073,-0.08067013,0.01203922,1.39591,-0.002530881,-0.4434794,1.352575,-0.1193858,-0.2336187,1.377745,0.3112429,-0.1647277,1.2642,NA,NA,NotTracked,Open,
-0.9604492,0.2475586,0.1738281,0.2143555,0.859375,0.3286133,-2,-1,-2,-1,-2,0,-2,0,-2,12,26,27,3,4,3,-32,6.8125,6.8125,6.8125,-22.3125,-22.3125,-22.3125,6.45886,7.002008,7.87243,7.000606,4.799097,0.9297887,-0.1127467,-0.486023,1.308545,0.215216,-0.09930848,1.11154,0.07872952,0.2887727,1.399621,-0.07662007,-0.4816389,1.289223,0.2642191,-0.0859158,1.088278,0.09559707,-0.1455201,1.405638,0.0761117,-0.4533747,1.378107,-0.08014656,0.01173958,1.396089,-0.002605838,-0.4435053,1.352606,-0.1191879,-0.2336659,1.377868,0.3131219,-0.166183,1.266193,NA,NA,NotTracked,Open,
-0.9589844,0.2392578,0.1669922,0.2529297,0.8383789,0.3168945,-3,0,-1,-1,-1,-1,0,0,-3,-1,-9,-14,-11,-7,6,-29,-2.1875,-2.1875,-2.1875,-31.625,-31.625,-31.625,6.457778,7.004635,7.867594,6.952747,4.714592,0.891423,-0.1127528,-0.4842457,1.307551,0.225268,-0.1248292,1.114042,0.07864263,0.2888355,1.399522,-0.07714225,-0.4962791,1.290375,0.2695898,-0.1090392,1.0821,0.09600871,-0.1454416,1.405491,0.07605688,-0.4533643,1.378097,-0.08109549,0.01183364,1.395506,-0.002676846,-0.4434771,1.352554,-0.1189899,-0.2337455,1.377885,0.3157809,-0.1723748,1.273512,NA,NA,NotTracked,Open,
-0.9589844,0.2392578,0.1669922,0.3095703,0.8139648,0.3339844,-1,-1,0,0,-3,-1,-2,-1,2,-18,-24,-12,-5,-1,6,-1,-2.1875,-2.1875,-2.1875,-52.9375,-52.9375,-52.9375,6.457778,7.004635,7.867594,6.873672,4.521151,0.8335572,-0.112541,-0.4842121,1.307366,0.2385629,-0.1631791,1.122537,0.07868933,0.2889804,1.399308,-0.07691468,-0.4824296,1.287704,0.2613354,-0.1242765,1.062667,0.09626484,-0.1455303,1.405326,0.07602544,-0.4535071,1.378027,-0.08014826,0.01175566,1.395391,-0.00274956,-0.44358,1.352274,-0.1189059,-0.2337498,1.377894,0.3265875,-0.174709,1.306502,NA,NA,NotTracked,Unknown,
-0.9516602,0.2397461,0.1723633,0.3110352,0.8037109,0.3666992,-1,0,-1,-3,0,1,-3,-1,8,7,6,-2,1,1,10,37,-8,-8,-8,-48.6875,-48.6875,-48.6875,6.443074,7.005461,7.862422,6.814703,4.331024,0.7811251,-0.1126088,-0.4867274,1.307607,0.2822607,-0.1924443,1.073094,0.07905593,0.2893201,1.398714,-0.07707364,-0.4844459,1.287452,0.2951075,-0.2045992,1.056111,0.09651832,-0.1457312,1.405123,0.07597817,-0.4538745,1.377864,-0.0799361,0.0117784,1.3955,-0.002889319,-0.4439225,1.35172,-0.118599,-0.2340925,1.377875,0.3262361,-0.1781832,1.327157,NA,NA,NotTracked,Unknown,
-0.9731445,0.2382813,0.1953125,0.4638672,0.8442383,0.3447266,-2,0,-1,-2,0,0,-2,-2,17,4,2,0,4,13,19,9,-2,-2,-2,-37.3125,-37.3125,-37.3125,6.392826,7.012253,7.828192,6.764892,4.101322,0.7209002,-0.1117727,-0.4871944,1.3081,0.2574545,-0.2636639,1.136661,0.08018269,0.2895845,1.397479,-0.07609041,-0.4830306,1.288514,0.3083519,-0.2710572,1.097,0.09672942,-0.1462012,1.404932,0.07602723,-0.4547469,1.377778,-0.07986894,0.01151083,1.395459,-0.002891996,-0.4446696,1.3512,-0.1181076,-0.2348679,1.377862,0.3145139,-0.1880938,1.354233,NA,NA,NotTracked,Lasso,
-0.9658203,0.230957,0.1865234,0.4291992,0.7075195,0.340332,-2,0,-1,-1,-3,-2,0,-3,26,0,-3,-8,-4,0,4,0,4.1875,4.1875,4.1875,-74.0625,-74.0625,-74.0625,6.385197,7.017781,7.816009,6.698192,3.812548,0.6223482,-0.1123372,-0.4875447,1.307734,0.2769007,-0.3395889,1.157311,0.08209544,0.2900781,1.395764,-0.07380236,-0.47036,1.290021,0.2687789,-0.327859,1.109765,0.09708471,-0.1467409,1.404546,0.07685778,-0.4555904,1.377393,-0.07985987,0.01139573,1.395463,-0.001941896,-0.4455655,1.350064,-0.1180118,-0.235176,1.377769,0.3166886,-0.1818005,1.378806,NA,NA,NotTracked,Lasso,
-0.9663086,0.2260742,0.1860352,0.7055664,0.5883789,0.3266602,0,0,0,-2,-1,-2,0,0,0,1,3,1,-2,-4,-7,-9,10.6875,10.6875,10.6875,-32.6875,-32.6875,-32.6875,6.394719,7.020981,7.809699,6.722721,3.583312,0.4939727,-0.1126719,-0.4865444,1.307597,0.2916924,-0.4089399,1.205522,0.08424254,0.2902263,1.394179,-0.07549394,-0.4801331,1.288463,0.2793281,-0.3784285,1.175803,0.09713989,-0.1473314,1.404223,0.07735962,-0.4563189,1.377171,-0.07980698,0.0112371,1.395097,-0.001413209,-0.4462516,1.349187,-0.1177829,-0.235387,1.377487,0.314927,-0.189011,1.388753,NA,NA,NotTracked,Lasso,
-0.9589844,0.222168,0.1831055,0.7255859,0.5664063,0.2866211,-2,-2,-2,-1,-1,0,-1,-3,7,-7,-11,4,0,0,4,-12,13.75,13.75,13.75,-44.3125,-44.3125,-44.3125,6.40278,7.023748,7.80313,6.768507,3.342631,0.3542183,-0.1113835,-0.4867327,1.306316,0.3028479,-0.4477588,1.248175,0.08637759,0.290219,1.392332,-0.07565749,-0.4855759,1.285,0.3315,-0.4374358,1.223333,0.09727807,-0.1481303,1.403764,0.07860681,-0.4572266,1.376899,-0.07990016,0.0111076,1.394741,-0.0001469796,-0.4469802,1.348117,-0.1174841,-0.2359322,1.376877,0.3153459,-0.2019894,1.394886,NA,NA,NotTracked,Lasso,
-0.9682617,0.2172852,0.159668,1.176758,0.2041016,0.3100586,1,-1,0,0,0,-1,0,-1,18,4,3,3,1,1,2,2,17.4375,17.4375,17.4375,4.5625,4.5625,4.5625,6.427628,7.031181,7.788733,6.916992,3.099627,0.1536275,-0.1112599,-0.4869609,1.305635,0.3138404,-0.4848034,1.290143,0.08847006,0.2900914,1.39101,-0.07494801,-0.478377,1.2886,0.3521843,-0.4454391,1.292667,0.09772138,-0.1489171,1.403517,0.08052412,-0.4583307,1.37691,-0.07978774,0.0109655,1.394241,0.001631694,-0.4478599,1.347392,-0.1171709,-0.2363094,1.376169,0.3157235,-0.222178,1.395808,NA,NA,NotTracked,NotTracked,
