ALX,ALY,ALZ,ARX,ARY,ARZ,EMG0L,EMG1L,EMG2L,EMG3L,EMG4L,EMG5L,EMG6L,EMG7L,EMG0R,EMG1R,EMG2R,EMG3R,EMG4R,EMG5R,EMG6R,EMG7R,GLX,GLY,GLZ,GRX,GRY,GRZ,ORL,OPL,OYL,ORR,OPR,OYR,LHNX,LHNY,LHNZ,RHNX,RHNY,RHNZ,HX,HY,HZ,LTX,LTY,LTZ,RTX,RTY,RTZ,SpineMidX,SpineMidY,SpineMidZ,SpineBaseX,SpineBaseY,SpineBaseZ,ShoulderLeftX,ShoulderLeftY,ShoulderLeftZ,ShoulderRightX,ShoulderRightY,ShoulderRightZ,ElbowLeftX,ElbowLeftY,ElbowLeftZ,ElbowRightX,ElbowRightY,ElbowRightZ,Myo_Pose_left,Myo_Pose_Right,Kinect_pose_left,Kinect_pose_right
-0.9492188,0.2504883,0.199707,0.9291992,0.3134766,0.04248047,-1,-1,0,0,0,-3,0,-1,-1,-2,-1,-1,-2,-1,0,-5,-1.3125,-1.3125,-1.3125,-0.3125,-0.3125,-0.3125,6.395293,6.977441,8.703381,7.288626,3.022217,3.90416,-0.01177328,-0.4922461,1.347209,0.3806023,-0.4930959,1.337657,0.1899043,0.2850509,1.428029,-0.0515526,-0.4960741,1.356746,0.3415122,-0.4792413,1.337445,0.1747958,-0.1490056,1.451734,0.1764243,-0.4525471,1.426554,0.005639697,0.01331451,1.439517,0.09779535,-0.4434866,1.398595,-0.02618101,-0.2329976,1.41556,0.3931623,-0.2291816,1.413282,NA,NA,NotTracked,NotTracked,
-0.9555664,0.2446289,0.1938477,0.9213867,0.3115234,0.04052734,-3,-3,-1,-1,0,-1,0,0,-2,0,-2,0,-1,0,-1,0,0.6875,0.6875,0.6875,-1.4375,-1.4375,-1.4375,6.393763,6.977757,8.703024,7.28714,3.021828,3.904506,-0.01202268,-0.4922934,1.347273,0.3805025,-0.4926915,1.337044,0.1899466,0.2850709,1.42791,-0.05221263,-0.4913897,1.358379,0.3391153,-0.4650861,1.336197,0.1748358,-0.1490392,1.45154,0.1763179,-0.4526766,1.426292,0.005719137,0.0132799,1.439352,0.09770138,-0.4436084,1.398375,-0.02620344,-0.2330911,1.415442,0.3931998,-0.2289373,1.412819,NA,NA,NotTracked,NotTracked,
-0.9541016,0.2504883,0.1904297,0.9223633,0.3149414,0.0390625,-1,1,-2,-2,-1,0,1,0,-2,0,0,0,0,-3,-1,-3,0.625,0.625,0.625,-1.9375,-1.9375,-1.9375,6.394875,6.977687,8.702773,7.286814,3.020773,3.901728,-0.01215168,-0.4926433,1.347942,0.3803745,-0.4929182,1.337528,0.1899908,0.2850835,1.427772,-0.05163947,-0.4968449,1.357315,0.3366749,-0.4598125,1.333778,0.1748185,-0.1490343,1.451424,0.176166,-0.4526638,1.426097,0.005827513,0.01336151,1.439258,0.09759843,-0.44359,1.398266,-0.02617627,-0.23302,1.415256,0.3932118,-0.2287961,1.4125,NA,NA,NotTracked,NotTracked,
-0.9614258,0.2451172,0.1953125,0.9199219,0.3144531,0.04199219,-1,-1,-1,-2,-1,0,-2,-2,1,-1,0,-2,1,-2,-2,1,-0.6875,-0.6875,-0.6875,-3.3125,-3.3125,-3.3125,6.396216,6.978452,8.703909,7.288369,3.020063,3.895239,-0.01193499,-0.4922965,1.346821,0.3802842,-0.4925607,1.338106,0.1900467,0.2850602,1.427644,-0.05282922,-0.4877295,1.357862,0.3367568,-0.4594684,1.333878,0.1748261,-0.1490272,1.451248,0.1760678,-0.4526711,1.425969,0.005908171,0.0133645,1.439036,0.09749709,-0.4435871,1.398183,-0.02606566,-0.2329954,1.414957,0.3931842,-0.2287709,1.412405,NA,NA,NotTracked,NotTracked,
-0.956543,0.2446289,0.1933594,0.9135742,0.3125,0.04492188,-1,-1,0,-2,-2,0,-3,1,0,0,-2,-2,0,0,-1,-2,-1.3125,-1.3125,-1.3125,-2.3125,-2.3125,-2.3125,6.396221,6.978412,8.704511,7.29006,3.020224,3.887255,-0.0119409,-0.4921795,1.346148,0.3801147,-0.4933631,1.337842,0.1901362,0.2850032,1.427225,-0.05164572,-0.4963882,1.354309,0.3370181,-0.4748619,1.333636,0.1748614,-0.1491127,1.450944,0.1760788,-0.4527239,1.425642,0.005905031,0.01338368,1.438973,0.09749016,-0.4436277,1.397814,-0.026055,-0.2331826,1.414692,0.3931909,-0.2288797,1.412234,NA,NA,NotTracked,NotTracked,
-0.956543,0.2412109,0.1987305,0.9208984,0.3178711,0.04638672,-1,0,-4,-2,0,-1,0,-2,-1,-1,-2,-1,-2,-1,-2,-2,0.75,0.75,0.75,-2.6875,-2.6875,-2.6875,6.395129,6.978305,8.704412,7.290613,3.021253,3.882209,-0.01283375,-0.4919482,1.345681,0.3800326,-0.493336,1.338068,0.1901929,0.284932,1.42703,-0.05323323,-0.4901936,1.350289,0.3375063,-0.4664774,1.334453,0.1749126,-0.1491598,1.450772,0.1760618,-0.4527639,1.425487,0.005971304,0.01329471,1.438818,0.09746737,-0.4436576,1.397705,-0.02602959,-0.2331951,1.414505,0.3931797,-0.2289983,1.412102,NA,NA,NotTracked,NotTracked,
-0.9633789,0.2485352,0.1933594,0.9238281,0.3217773,0.04296875,1,-2,-2,-2,0,-1,-2,0,0,-1,-2,-2,1,1,0,0,0.3125,0.3125,0.3125,-3.125,-3.125,-3.125,6.395299,6.978515,8.704193,7.290121,3.022842,3.877712,-0.01219407,-0.4925731,1.346321,0.3804769,-0.4930123,1.338069,0.1904323,0.2848752,1.426688,-0.0516381,-0.4959973,1.35257,0.3370493,-0.462841,1.333517,0.1749719,-0.1492498,1.450436,0.176227,-0.4529144,1.425054,0.006026256,0.013097,1.438287,0.09762682,-0.4438891,1.397169,-0.02596517,-0.2333683,1.41414,0.3931445,-0.2290911,1.41197,NA,NA,NotTracked,NotTracked,
-0.9526367,0.2412109,0.1982422,0.9243164,0.315918,0.04394531,-2,-1,-2,-1,-1,0,-1,-2,2,1,-1,-1,-1,-1,0,1,-0.375,-0.375,-0.375,-0.5625,-0.5625,-0.5625,6.396901,6.979312,8.70579,7.290173,3.02339,3.875678,-0.01205691,-0.4918531,1.346437,0.3803865,-0.4926968,1.338285,0.1904877,0.2847095,1.426303,-0.05235245,-0.4939923,1.35706,0.3369575,-0.463044,1.333785,0.1749245,-0.149271,1.450194,0.176227,-0.4529437,1.424839,0.006232524,0.01297168,1.437905,0.09761668,-0.4438945,1.396833,-0.02593922,-0.2332433,1.413744,0.3931014,-0.2290896,1.411871,NA,NA,NotTracked,NotTracked,
-0.9536133,0.2426758,0.1987305,0.9267578,0.3139648,0.03613281,-1,0,-2,-1,-1,-3,-1,0,1,1,-1,0,0,-2,-1,-4,-0.5625,-0.5625,-0.5625,-0.375,-0.375,-0.375,6.394405,6.978658,8.703785,7.289474,3.023814,3.876303,-0.01255253,-0.4915955,1.345567,0.3799445,-0.4929381,1.337129,0.1906949,0.2845776,1.425619,-0.05247523,-0.5051239,1.347867,0.3372826,-0.466985,1.33398,0.175096,-0.1493128,1.449869,0.1763332,-0.4529834,1.424518,0.006330746,0.01288228,1.437493,0.09771303,-0.4439857,1.396529,-0.02599983,-0.2330784,1.413519,0.3929854,-0.2290075,1.411742,NA,NA,NotTracked,NotTracked,
-0.9584961,0.2460938,0.1977539,0.9223633,0.3105469,0.03857422,-1,-2,-2,-1,-1,-1,-1,-1,0,0,-1,0,-1,1,1,1,-0.125,-0.125,-0.125,-1.3125,-1.3125,-1.3125,6.393012,6.978071,8.702484,7.290063,3.023777,3.874974,-0.01243735,-0.4916453,1.345147,0.3796836,-0.4927674,1.337666,0.1907537,0.284474,1.425268,-0.05217377,-0.4979668,1.352388,0.3372641,-0.4788084,1.3338,0.1750278,-0.1494139,1.449614,0.1763708,-0.4531236,1.424117,0.00625049,0.0128236,1.437326,0.09775989,-0.4441655,1.39603,-0.02602163,-0.2330199,1.413281,0.3929003,-0.2289494,1.411589,NA,NA,NotTracked,NotTracked,
-0.9580078,0.2490234,0.1948242,0.9189453,0.3178711,0.04980469,-1,-1,-2,-2,0,-1,0,-2,-1,1,0,-1,-1,0,0,-1,0.375,0.375,0.375,-3.75,-3.75,-3.75,6.393354,6.976305,8.701032,7.289997,3.025691,3.867798,-0.01299935,-0.4907911,1.343935,0.3794526,-0.4931767,1.336912,0.1907713,0.2843146,1.424915,-0.05266746,-0.4858966,1.352594,0.3349291,-0.4749003,1.332663,0.1749288,-0.1495199,1.449317,0.1762258,-0.4531723,1.423724,0.006178139,0.01284269,1.437243,0.09761099,-0.4441964,1.395684,-0.02607075,-0.2330415,1.412865,0.3927588,-0.2289323,1.411547,NA,NA,NotTracked,NotTracked,
-0.9570313,0.2436523,0.1967773,0.9228516,0.3198242,0.04394531,0,-2,-1,0,-1,-1,-1,0,-2,-2,0,-1,-3,-3,-1,-1,1.0625,1.0625,1.0625,-3.3125,-3.3125,-3.3125,6.390817,6.974097,8.697596,7.290884,3.026923,3.86041,-0.01304627,-0.4913062,1.344607,0.379349,-0.4948583,1.336899,0.1907419,0.2843074,1.424717,-0.05208695,-0.5015444,1.353521,0.3359711,-0.4617069,1.332572,0.1748323,-0.1495469,1.449239,0.176216,-0.4531963,1.423523,0.006111668,0.01280622,1.437121,0.09762153,-0.4442599,1.395408,-0.02619555,-0.2329629,1.412622,0.3925646,-0.2292539,1.411429,NA,NA,NotTracked,NotTracked,
-0.9580078,0.2460938,0.2026367,0.918457,0.3193359,0.04150391,-2,-1,0,-1,-1,0,-2,-1,0,-1,-1,0,-1,0,-2,0,3.1875,3.1875,3.1875,-2.625,-2.625,-2.625,6.390987,6.970751,8.692585,7.293039,3.028184,3.853209,-0.01248165,-0.4908631,1.342367,0.3785135,-0.4942777,1.335929,0.1906635,0.2842469,1.424396,-0.05280742,-0.5033195,1.352426,0.3360718,-0.4634344,1.332412,0.1746236,-0.1496044,1.448892,0.1762048,-0.4531717,1.423129,0.005948325,0.01270232,1.436844,0.09759697,-0.4442286,1.394991,-0.02648254,-0.2327686,1.411949,0.3923023,-0.2292988,1.411388,NA,NA,NotTracked,NotTracked,
-0.9516602,0.2485352,0.2070313,0.9189453,0.3168945,0.04199219,1,-2,-1,-3,-1,-1,-1,-1,1,-1,-1,-1,1,-1,-2,0,4.3125,4.3125,4.3125,-0.6875,-0.6875,-0.6875,6.38967,6.966054,8.685009,7.293847,3.02985,3.849678,-0.01125399,-0.5010913,1.338772,0.3788321,-0.4940857,1.335754,0.1905896,0.2841575,1.424152,-0.05029848,-0.5101637,1.344861,0.3360395,-0.4631814,1.332061,0.1745417,-0.1496129,1.448741,0.1764019,-0.4531342,1.422687,0.005752131,0.01272503,1.436682,0.09776693,-0.4442181,1.394494,-0.02668482,-0.2326796,1.411564,0.3920921,-0.2292481,1.411396,NA,NA,NotTracked,NotTracked,
-0.9516602,0.2563477,0.2045898,0.9189453,0.3212891,0.04052734,-1,0,1,0,-1,-2,-1,-2,1,-1,-1,-1,-1,-3,0,-1,6.5625,6.5625,6.5625,-0.625,-0.625,-0.625,6.39395,6.960169,8.674891,7.293847,3.02985,3.849678,-0.01151493,-0.4995325,1.337035,0.3789307,-0.4942615,1.336113,0.1903305,0.2840593,1.424146,-0.04993293,-0.5089372,1.343,0.335954,-0.4633691,1.332111,0.174507,-0.1496899,1.448587,0.1765564,-0.4532527,1.422227,0.005499052,0.01256315,1.436522,0.09789019,-0.4443499,1.394028,-0.02695573,-0.2326837,1.410955,0.3917919,-0.2293102,1.411357,NA,NA,NotTracked,NotTracked,
-0.9584961,0.2578125,0.2006836,0.9223633,0.3203125,0.0390625,1,0,0,-2,0,-2,-2,-2,2,-1,-2,-1,-1,0,-2,6,4.9375,4.9375,4.9375,-2.25,-2.25,-2.25,6.394356,6.954897,8.665748,7.295495,3.030308,3.844855,-0.01120518,-0.5003218,1.337011,0.3789893,-0.4948818,1.33673,0.1902704,0.2840744,1.424138,-0.04856689,-0.5129119,1.340558,0.335942,-0.4630687,1.332386,0.1744252,-0.1496726,1.448521,0.1767012,-0.453144,1.42193,0.005399797,0.01253833,1.436427,0.09799723,-0.4443355,1.393832,-0.02710249,-0.232462,1.410493,0.3916176,-0.229395,1.411414,NA,NA,NotTracked,NotTracked,
-0.9555664,0.253418,0.2041016,0.9238281,0.328125,0.03710938,1,-5,-10,-2,-1,0,0,-1,-1,1,1,-1,0,0,-1,0,3.4375,3.4375,3.4375,-5,-5,-5,6.392716,6.948893,8.657508,7.294196,3.032741,3.838767,-0.01060354,-0.4989095,1.33606,0.3789065,-0.4945537,1.336897,0.1901117,0.283996,1.424276,-0.05025462,-0.505461,1.345892,0.3353362,-0.458356,1.331309,0.1744158,-0.1496613,1.448489,0.1768424,-0.4531289,1.421663,0.005284901,0.01242179,1.436361,0.09812483,-0.4443592,1.393549,-0.02721627,-0.2321789,1.410216,0.391426,-0.2293295,1.411567,NA,NA,NotTracked,NotTracked,
-0.9467773,0.2563477,0.2202148,0.996582,0.3422852,-0.03466797,0,-1,-2,-2,0,0,0,-1,9,13,24,11,4,3,1,19,3.5,3.5,3.5,-7.8125,-7.8125,-7.8125,6.389177,6.937594,8.646097,7.295995,3.03727,3.828247,-0.009942079,-0.4985301,1.33401,0.3787819,-0.4932883,1.337534,0.189918,0.2841716,1.424629,-0.04799176,-0.5139211,1.343597,0.3356575,-0.4556001,1.331602,0.1742828,-0.1495916,1.448514,0.1768527,-0.4529992,1.421595,0.005112858,0.0124217,1.43643,0.09811696,-0.4442932,1.393461,-0.02731765,-0.2317227,1.409709,0.3912001,-0.2291378,1.411932,NA,NA,NotTracked,NotTracked,
-0.9614258,0.2724609,0.2280273,1.032715,0.3623047,0.015625,0,0,3,2,0,0,0,1,8,84,31,8,2,3,1,-4,7.5625,7.5625,7.5625,-84.375,-84.375,-84.375,6.390919,6.926115,8.637083,7.190785,3.103492,3.823334,-0.008223731,-0.4976586,1.332219,0.3758729,-0.4894869,1.332629,0.1897341,0.2842505,1.425055,-0.04611167,-0.5076501,1.339776,0.3360684,-0.4611778,1.332655,0.1742522,-0.1495609,1.44853,0.1769536,-0.4529617,1.42155,0.004888388,0.0123069,1.436451,0.09820625,-0.4442703,1.393416,-0.02735464,-0.2313695,1.409151,0.3909828,-0.2287971,1.412948,NA,NA,NotTracked,NotTracked,
-0.9580078,0.3344727,0.21875,1.170898,0.3325195,0.1079102,2,12,21,11,-1,0,-6,2,-1,-17,19,15,5,3,4,7,-4.875,-4.875,-4.875,-56.6875,-56.6875,-56.6875,6.389825,6.886808,8.625763,6.97775,3.217481,3.923983,-0.004909745,-0.495055,1.325759,0.3598067,-0.4733599,1.306726,0.1894524,0.2844974,1.425536,-0.03835182,-0.5060498,1.328265,0.3266123,-0.4662149,1.315907,0.1742379,-0.1495497,1.448535,0.1771076,-0.4528834,1.421413,0.004614614,0.01214911,1.436435,0.09833629,-0.4442393,1.393267,-0.02732306,-0.2305071,1.408605,0.3918811,-0.224163,1.417314,NA,NA,NotTracked,NotTracked,
-1.040039,0.4443359,0.1591797,0.9663086,0.9643555,0.6303711,6,8,9,5,-5,2,2,0,21,-25,3,11,4,2,13,19,-7.5,-7.5,-7.5,9.375,9.375,9.375,6.3787,6.813625,8.615168,6.73568,3.586245,4.187537,0.006024017,-0.4729444,1.309176,0.3235863,-0.4207825,1.261414,0.1891774,0.2847103,1.426394,-0.02553322,-0.4656087,1.279,0.3061544,-0.4564416,1.279778,0.174064,-0.1494293,1.448545,0.1768263,-0.4526559,1.421247,0.004490972,0.01243539,1.436482,0.09798647,-0.443938,1.393091,-0.02802892,-0.2269498,1.408149,0.3953409,-0.2118182,1.427389,NA,NA,NotTracked,Unknown,
-1.095215,0.4130859,0.3037109,0.3881836,0.8920898,0.5834961,3,-2,11,-10,-14,-10,-15,-5,-8,48,20,25,10,-1,3,0,-28.8125,-28.8125,-28.8125,-54.625,-54.625,-54.625,6.324801,6.717607,8.576959,6.556783,4.051538,4.363426,0.04796469,-0.4404878,1.267842,0.2787534,-0.2912787,1.230175,0.1890772,0.2850803,1.426725,0.03371996,-0.4380327,1.235458,0.2587295,-0.3438245,1.2575,0.174127,-0.1492114,1.448537,0.1771844,-0.452199,1.421234,0.004571479,0.01275729,1.4365,0.09822052,-0.4438717,1.393061,-0.03113702,-0.2174066,1.409762,0.3992934,-0.1919289,1.433959,NA,NA,Unknown,Unknown,
-0.8125,0.4926758,0.7470703,-0.1816406,0.6704102,0.4111328,0,2,0,-2,4,2,0,2,17,-35,-65,-25,-16,-2,-3,-3,13.3125,13.3125,13.3125,28.6875,28.6875,28.6875,6.106685,6.401159,8.332926,6.464998,4.63796,4.542631,0.08633487,-0.371216,1.240691,0.2429793,-0.1365347,1.231494,0.1891204,0.2851674,1.426759,0.07817683,-0.3406792,1.193091,0.2632301,-0.1498275,1.201902,0.1741689,-0.14893,1.448761,0.1773495,-0.4513499,1.422048,0.005188223,0.01369776,1.435448,0.09868141,-0.4433872,1.393863,-0.03796653,-0.1997909,1.408286,0.4281656,-0.1722437,1.382617,NA,NA,Unknown,Unknown,
-0.4829102,0.5893555,0.7138672,-0.3022461,0.7802734,0.4013672,43,14,6,0,-8,-3,8,18,6,-30,-48,-24,-14,-4,-16,-4,18.4375,18.4375,18.4375,79.9375,79.9375,79.9375,6.04581,6.041368,8.201034,6.680068,5.429416,4.862566,0.1227379,-0.2776097,1.21479,0.2270906,-0.003542722,1.257328,0.1892239,0.2851577,1.427128,0.1009819,-0.2540657,1.169206,0.266229,0.03985494,1.267364,0.174137,-0.1487751,1.449166,0.176493,-0.45141,1.423411,0.005823966,0.01490055,1.43423,0.09757569,-0.4436766,1.396743,-0.04520948,-0.1949751,1.398727,0.4451112,-0.1852054,1.399161,NA,NA,Unknown,Unknown,
-0.2978516,0.5732422,0.7089844,-0.265625,0.6801758,0.5102539,-7,-3,-1,4,3,-2,-1,-7,-10,14,25,-2,3,5,8,8,39.5625,39.5625,39.5625,61.8125,61.8125,61.8125,6.046329,5.671503,8.10226,6.898321,5.857199,5.153555,0.1418169,-0.1974532,1.183442,0.1781573,-0.19325,1.173871,0.1868037,0.2865766,1.428638,0.1327579,-0.1694154,1.146021,0.2235161,-0.1740241,1.137952,0.1729639,-0.1480629,1.448708,0.1752123,-0.4515662,1.424368,0.00652899,0.01577873,1.43325,0.09492093,-0.4437275,1.403211,-0.05134244,-0.1898288,1.379853,0.4111421,-0.1714931,1.365093,NA,NA,NotTracked,NotTracked,
-0.2978516,0.5395508,0.6816406,-0.1806641,0.6665039,0.4511719,-7,-7,-14,-10,5,-1,-2,-8,10,-6,10,21,11,-4,-11,-7,55.125,55.125,55.125,27.5625,27.5625,27.5625,6.103864,5.371144,8.02789,7.085683,6.049478,5.394741,0.1560536,-0.1461883,1.174011,0.1735095,-0.140297,1.168992,0.1856197,0.2871094,1.429454,0.1413526,-0.1144137,1.139675,0.1941707,-0.1098587,1.132947,0.1726753,-0.1471772,1.4485,0.1741963,-0.4501643,1.4254,0.00877581,0.01653173,1.43224,0.09389864,-0.441711,1.406624,-0.0514274,-0.1831125,1.35722,0.4070061,-0.164513,1.324499,NA,NA,NotTracked,NotTracked,
-0.2280273,0.6000977,0.6733398,-0.3100586,0.6381836,0.2392578,8,2,-8,-3,-2,-2,-2,5,3,4,6,1,-1,-4,-34,10,53.25,53.25,53.25,-22.875,-22.875,-22.875,6.216645,5.132547,7.948004,7.119378,6.0746,5.504481,0.1721447,-0.1106171,1.164083,0.1844721,-0.1075242,1.161456,0.1853502,0.2867951,1.430188,0.1546855,-0.07637022,1.128976,0.2157584,-0.07936454,1.130463,0.1726227,-0.1461554,1.447789,0.1737457,-0.4481589,1.426214,0.009851581,0.01730072,1.430631,0.09392577,-0.4395256,1.408355,-0.05152368,-0.1724638,1.330623,0.4011306,-0.1621281,1.312678,NA,NA,NotTracked,NotTracked,
-0.1665039,0.6269531,0.6289063,-0.4501953,0.6699219,0.2021484,3,1,2,-1,-12,0,4,2,15,2,3,2,0,1,-5,14,41.6875,41.6875,41.6875,-19.25,-19.25,-19.25,6.290328,5.064866,7.90883,7.054116,6.058733,5.439609,0.1768884,-0.09986284,1.158871,0.1811796,-0.09669055,1.15624,0.1851798,0.2868672,1.431126,0.1556992,-0.06804916,1.124606,0.2093523,-0.06601163,1.123693,0.1725398,-0.1454444,1.447676,0.1736161,-0.4473247,1.426677,0.01194936,0.01887072,1.428514,0.09409115,-0.4386432,1.409263,-0.04932852,-0.1664765,1.319409,0.3975973,-0.1637877,1.312986,NA,NA,NotTracked,NotTracked,
-0.07177734,0.6103516,0.6064453,-0.4501953,0.6699219,0.2021484,-15,-11,-8,-4,-7,-1,4,2,3,1,0,1,-1,-4,-11,-2,33.3125,33.3125,33.3125,-19.25,-19.25,-19.25,6.340665,5.06383,7.899193,7.054116,6.058733,5.439609,0.1861987,-0.1009974,1.146406,0.1731263,-0.1108033,1.150864,0.1844025,0.2902342,1.43299,0.1704809,-0.06380307,1.110093,0.1985823,-0.08961036,1.116918,0.1724373,-0.1450663,1.447504,0.1736265,-0.4472326,1.426716,0.0121447,0.01938023,1.427647,0.09417643,-0.4385631,1.409354,-0.06026271,-0.1550751,1.306767,0.3912257,-0.1668918,1.32319,NA,NA,NotTracked,NotTracked,
-0.05761719,0.6264648,0.6245117,-0.2998047,0.6806641,0.3706055,2,-2,-3,-3,-3,-6,-16,-35,-9,-7,-8,-16,0,-1,-11,-20,15,15,15,-27.25,-27.25,-27.25,6.369982,5.124276,7.909467,6.509666,5.472103,4.839869,0.1582626,-0.1339586,1.146094,0.1728343,-0.1256031,1.139179,0.185338,0.290484,1.434924,0.1549936,-0.100108,1.105457,0.1877417,-0.08709124,1.102679,0.1723157,-0.1443107,1.448882,0.1735547,-0.4475504,1.426819,0.01211168,0.01993045,1.427124,0.09421987,-0.4391002,1.408765,-0.05576974,-0.1548406,1.30387,0.3422494,-0.1628555,1.281299,NA,NA,NotTracked,NotTracked,
-0.2167969,0.6303711,0.6669922,0.00390625,0.7578125,0.6953125,-3,-5,-4,-4,-7,-6,-3,-4,3,-17,-18,7,-15,-1,-18,28,-17.8125,-17.8125,-17.8125,-57.75,-57.75,-57.75,6.349079,5.223813,7.926755,6.369879,5.128948,4.661148,0.19333,-0.1264948,1.134688,0.01328415,-0.1567666,1.246291,0.1895823,0.2893286,1.437045,0.1721356,-0.1201737,1.083889,0.00381403,-0.128069,1.23187,0.1734127,-0.1443684,1.45039,0.1737976,-0.4472024,1.426958,0.01723151,0.01987602,1.422373,0.09579644,-0.4381859,1.403548,-0.04453152,-0.1579357,1.300319,0.3654552,-0.1680743,1.30947,NA,NA,NotTracked,NotTracked,
-0.3393555,0.7509766,0.746582,0.7133789,1.099609,1.471191,-3,-2,-25,11,-8,-3,-2,1,19,11,8,15,14,3,-1,-1,-34.25,-34.25,-34.25,-23.125,-23.125,-23.125,6.288298,5.331762,7.942384,6.281899,4.809235,4.545794,0.2157867,-0.1488422,1.098444,0.06312077,-0.1630607,1.237344,0.1915083,0.2892152,1.437874,0.1812744,-0.1177296,1.022182,0.1104833,-0.1765652,1.153923,0.1743312,-0.1435331,1.452147,0.1746346,-0.445539,1.427033,0.01931308,0.02035784,1.420404,0.09720972,-0.4356541,1.400329,-0.03975061,-0.1594756,1.30013,0.3649884,-0.165081,1.311228,NA,NA,NotTracked,NotTracked,
-0.7265625,0.5009766,0.9511719,0.4648438,0.8540039,0.7333984,-3,-3,-1,1,21,2,-3,-4,-26,-33,-32,-32,-12,-6,-4,-15,4.5,4.5,4.5,12.8125,12.8125,12.8125,6.254152,5.484878,7.913719,6.242866,4.628396,4.537934,0.2216099,-0.1789693,1.098007,0.2199795,-0.1784861,1.098848,0.1927158,0.2889571,1.438321,0.2075702,-0.1671446,1.028714,0.2493551,-0.1373105,1.08204,0.1755646,-0.1431482,1.452939,0.1757131,-0.4445616,1.426772,0.02048592,0.02035988,1.418899,0.09832657,-0.4346553,1.399267,-0.01964123,-0.1759089,1.32074,0.3692672,-0.165557,1.312405,NA,NA,NotTracked,NotTracked,
-0.309082,0.8398438,0.6176758,0.2011719,0.8701172,0.659668,-28,-22,-23,-5,2,-2,-12,-26,-7,-17,-25,-4,-3,-3,-8,-12,-21.125,-21.125,-21.125,15.3125,15.3125,15.3125,6.258596,5.544154,7.91847,6.282197,4.636964,4.542185,0.224869,-0.1823668,1.098799,0.2230128,-0.1806804,1.098374,0.1935116,0.2888318,1.438224,0.1875815,-0.1728602,1.04575,0.2496788,-0.1377413,1.081053,0.1765606,-0.1428832,1.453319,0.1765359,-0.4437543,1.426695,0.02081411,0.02027142,1.418029,0.09896035,-0.4341416,1.39891,-0.01647613,-0.1766661,1.316968,0.3723911,-0.1652772,1.310429,NA,NA,NotTracked,NotTracked,
-0.3168945,0.8652344,0.6616211,0.277832,0.9399414,0.8144531,-2,-39,-92,-47,8,-11,-9,-1,8,-2,1,-1,1,-12,-5,-22,17,17,17,73.6875,73.6875,73.6875,6.277612,5.515195,7.945672,6.381689,4.722798,4.533628,0.2224445,-0.1838367,1.095826,0.2121464,-0.1893182,1.101237,0.1939296,0.2887489,1.438098,0.2023076,-0.1531168,1.042821,0.2408651,-0.1604131,1.066348,0.1771347,-0.1426894,1.453487,0.1771752,-0.4431016,1.426621,0.02151687,0.02029302,1.417418,0.09955399,-0.4335844,1.398563,-0.02025224,-0.1690894,1.305657,0.3779693,-0.163292,1.308485,NA,NA,NotTracked,NotTracked,
-0.3901367,0.9038086,0.5776367,-0.2353516,0.9145508,0.625,-21,5,23,21,17,3,3,-4,-2,2,1,-2,-17,-56,-18,-19,148,148,148,31.625,31.625,31.625,6.526176,5.436781,7.996364,6.51224,5.096416,4.497837,0.2060516,-0.1016862,1.06105,0.2012023,-0.188514,1.096755,0.1944099,0.2885919,1.437424,0.1743672,-0.08994111,1.014304,0.2057118,-0.1406314,1.0764,0.1774411,-0.1423503,1.453444,0.1779405,-0.4418782,1.426281,0.02229677,0.02091395,1.416824,0.1004819,-0.4324501,1.397617,-0.02102903,-0.1623235,1.294818,0.339807,-0.1544642,1.259723,NA,NA,NotTracked,NotTracked,
-0.3735352,0.8574219,0.5429688,-0.3276367,0.7368164,0.6035156,-3,-5,13,4,-22,-3,-1,1,-9,-3,1,2,-1,14,-21,-47,136.8125,136.8125,136.8125,60.1875,60.1875,60.1875,6.674316,5.42333,7.96657,6.570949,5.332466,4.51608,0.2145568,-0.208551,1.091885,0.2180437,-0.2026746,1.094385,0.1951988,0.2885273,1.436391,0.2303863,-0.1771525,1.079926,0.1732986,-0.192391,1.094072,0.1775884,-0.1420393,1.453127,0.1781612,-0.4415049,1.426203,0.02128424,0.02095589,1.417123,0.1008447,-0.4321711,1.397191,-0.02741138,-0.1511528,1.280537,0.3396414,-0.1458653,1.263202,NA,NA,NotTracked,NotTracked,
-0.2436523,0.8251953,0.4355469,-0.3930664,0.59375,0.3310547,-1,5,9,1,-10,-8,-9,-3,-24,-7,-6,-4,1,1,-30,24,131.6875,131.6875,131.6875,84.5,84.5,84.5,6.80335,5.442338,7.907949,6.813647,5.709137,4.609365,0.1470892,-0.1878264,1.121467,0.2203157,-0.2025825,1.098377,0.1949686,0.2881294,1.435572,0.1685936,-0.1700231,1.13325,0.177383,-0.1795894,1.09931,0.1777758,-0.1420228,1.452498,0.178446,-0.4417914,1.425804,0.02263784,0.02275947,1.41225,0.1009925,-0.432603,1.397289,-0.03976127,-0.1352472,1.263817,0.3525252,-0.1391712,1.263694,NA,NA,NotTracked,NotTracked,
-0.3139648,0.9604492,0.3623047,-0.53125,0.4311523,0.2011719,-23,-13,-5,-9,-2,-3,0,-17,-32,-6,-1,0,5,-1,-3,-5,97.1875,97.1875,97.1875,51.75,51.75,51.75,7.059881,5.525673,7.788316,7.004035,5.790457,4.751935,0.1366133,-0.178213,1.135531,0.1516139,0.01255088,1.075752,0.1946376,0.2882037,1.434928,0.1654095,-0.1678526,1.138315,0.1389653,0.05061566,1.121333,0.1778682,-0.1422323,1.451913,0.1786755,-0.4427295,1.425034,0.02134267,0.0228769,1.412911,0.1009961,-0.4336616,1.397247,-0.04698801,-0.1239036,1.2553,0.3984017,-0.0947738,1.226496,NA,NA,NotTracked,NotTracked,
-0.375,0.8540039,0.2700195,-0.578125,0.5756836,0.1459961,7,8,10,18,36,15,9,8,23,3,-3,-1,-3,-11,3,-18,67.875,67.875,67.875,64.25,64.25,64.25,7.199073,5.613337,7.608486,7.131098,5.579939,4.82538,0.2090274,-0.1961755,1.127368,0.1613251,-0.03943254,1.064656,0.1946343,0.2882858,1.434763,0.2172538,-0.179471,1.1399,0.1296347,-0.009364217,1.111928,0.1779728,-0.1421787,1.451537,0.1788428,-0.4427518,1.424669,0.02074891,0.02288688,1.413128,0.1011806,-0.4338058,1.39673,-0.05007888,-0.1204746,1.253372,0.3799834,-0.1160468,1.236207,NA,NA,NotTracked,NotTracked,
-0.4116211,0.859375,0.2119141,-0.6103516,0.921875,0.1611328,-34,-11,2,69,35,4,-8,1,-52,5,-3,-4,-5,4,25,-52,47.375,47.375,47.375,60.375,60.375,60.375,7.24699,5.643888,7.480733,7.221644,5.212444,4.788539,0.2440494,-0.2013092,1.143679,0.1825452,-0.09787988,1.052984,0.1946063,0.2883909,1.434637,0.2547763,-0.1831562,1.1695,0.1206778,-0.09854753,1.085333,0.1781791,-0.1409894,1.451074,0.1791379,-0.4399796,1.42418,0.02323542,0.0249614,1.410135,0.1017452,-0.4314278,1.395819,-0.05005959,-0.1159985,1.249272,0.4024013,-0.1189471,1.233438,NA,NA,NotTracked,NotTracked,
-0.3417969,0.8378906,0.1582031,0.3022461,0.7651367,0.4038086,28,0,3,67,-3,1,-6,27,13,-10,-16,-9,-1,-6,-18,-16,14.9375,14.9375,14.9375,59.625,59.625,59.625,7.227415,5.644619,7.347072,7.300086,4.681705,4.675087,0.2326334,-0.1801039,1.153775,0.178299,-0.208511,0.9992821,0.1946554,0.2883842,1.434593,0.1963216,-0.1747985,1.1884,0.1270745,-0.1929588,1.0225,0.1788508,-0.1403781,1.451337,0.1801858,-0.4382918,1.424176,0.02258012,0.02493541,1.41105,0.1033187,-0.4298167,1.396024,-0.04815369,-0.1151775,1.248219,0.3477235,-0.08490711,1.180564,NA,NA,NotTracked,NotTracked,
-0.4370117,0.8325195,0.07177734,0.925293,1.013184,-0.5297852,13,-3,-4,-10,-40,-7,-4,26,-23,-7,-4,2,6,5,-3,-41,-6.3125,-6.3125,-6.3125,157.5,157.5,157.5,7.202333,5.646751,7.258095,7.707695,4.223083,4.481967,0.2127683,-0.1785155,1.1699,0.194968,-0.2713138,1.001381,0.1946992,0.2883969,1.434603,0.2345593,-0.1592733,1.20375,0.1407556,-0.2740867,1.015867,0.179506,-0.1403941,1.451481,0.1803467,-0.438335,1.424461,0.02305018,0.02584508,1.409717,0.1039307,-0.429534,1.396869,-0.04758701,-0.1166007,1.248977,0.3228244,-0.1043613,1.19355,NA,NA,NotTracked,NotTracked,
-0.4243164,0.8935547,0.03613281,0.5029297,1.225098,-0.203125,-14,-18,-28,-35,-16,-11,-4,6,16,-2,-2,1,-3,-5,-12,-2,-25.0625,-25.0625,-25.0625,-125.1875,-125.1875,-125.1875,7.182599,5.667375,7.235012,7.68665,4.131864,4.41984,0.2103052,-0.1861324,1.181093,0.1921827,-0.2860268,1.003737,0.194635,0.2884166,1.434595,0.2663875,-0.1792047,1.142,0.1376243,-0.2831971,1.015642,0.1796693,-0.1404342,1.45145,0.1800215,-0.4385701,1.424948,0.02276276,0.02642563,1.410093,0.1037061,-0.4292938,1.398135,-0.0485592,-0.1171214,1.250709,0.3083421,-0.1148936,1.193587,NA,NA,NotTracked,NotTracked,
-0.4912109,0.9731445,0.1640625,0.5302734,0.7636719,-0.199707,-14,3,-5,-4,-17,-4,-10,-42,0,-8,-4,-2,-3,-9,1,-18,-5,-5,-5,6.3125,6.3125,6.3125,7.153524,5.688653,7.253018,7.609975,4.118156,4.405625,0.2115362,-0.1881929,1.177159,0.190546,-0.2910424,1.004096,0.1944699,0.2885111,1.434526,0.2765945,-0.2128249,1.147,0.1301245,-0.2887866,1.020143,0.1799518,-0.1405737,1.451206,0.1799572,-0.4387308,1.425131,0.0210011,0.02590827,1.411597,0.1037944,-0.4292386,1.398725,-0.047212,-0.1195515,1.252622,0.3021446,-0.1204939,1.191449,NA,NA,NotTracked,NotTracked,
