ALX,ALY,ALZ,ARX,ARY,ARZ,EMG0L,EMG1L,EMG2L,EMG3L,EMG4L,EMG5L,EMG6L,EMG7L,EMG0R,EMG1R,EMG2R,EMG3R,EMG4R,EMG5R,EMG6R,EMG7R,GLX,GLY,GLZ,GRX,GRY,GRZ,ORL,OPL,OYL,ORR,OPR,OYR,LHNX,LHNY,LHNZ,RHNX,RHNY,RHNZ,HX,HY,HZ,LTX,LTY,LTZ,RTX,RTY,RTZ,SpineMidX,SpineMidY,SpineMidZ,SpineBaseX,SpineBaseY,SpineBaseZ,ShoulderLeftX,ShoulderLeftY,ShoulderLeftZ,ShoulderRightX,ShoulderRightY,ShoulderRightZ,ElbowLeftX,ElbowLeftY,ElbowLeftZ,ElbowRightX,ElbowRightY,ElbowRightZ,Myo_Pose_left,Myo_Pose_Right,Kinect_pose_left,Kinect_pose_right
-0.9609375,0.2290039,0.1782227,0.9301758,0.2949219,0.004394531,0,-1,-2,-1,0,-4,1,0,-7,-2,-2,-1,-1,2,-3,-4,2.1875,2.1875,2.1875,1.1875,1.1875,1.1875,6.409983,7.009404,1.476197,7.451011,2.999379,8.602532,-0.03199508,-0.4955522,1.348032,0.371541,-0.4987546,1.351183,0.1650992,0.2838495,1.433076,-0.07167865,-0.4966964,1.350673,0.3284181,-0.4947795,1.341346,0.1557917,-0.1493664,1.452098,0.1619991,-0.4504079,1.424605,-0.01203308,0.01262105,1.441518,0.08390318,-0.4423827,1.397236,-0.0436127,-0.2338596,1.419075,0.3758655,-0.2347851,1.431626,NA,NA,NotTracked,NotTracked,
-0.9658203,0.2333984,0.1767578,0.9311523,0.2993164,0.01025391,-1,0,0,-2,-2,0,0,1,-2,-1,-1,0,-2,-5,-12,-2,-1,-1,-1,2.375,2.375,2.375,6.408035,7.008555,1.473775,7.442316,3.002148,8.614326,-0.03127272,-0.4953949,1.348576,0.3727692,-0.5007502,1.34995,0.1668997,0.2843034,1.43249,-0.06884062,-0.506153,1.35465,0.3297564,-0.4778916,1.336611,0.1574706,-0.1491786,1.451338,0.1634133,-0.4502668,1.423855,-0.01075524,0.01289974,1.441271,0.08535365,-0.4421812,1.396592,-0.0421259,-0.2336315,1.418399,0.3775035,-0.2350013,1.430232,NA,NA,NotTracked,NotTracked,
-0.9658203,0.2348633,0.1791992,0.9238281,0.3032227,0.01416016,-1,-1,0,1,-3,0,-3,-1,1,-2,-1,0,-2,-9,-3,-2,-2.9375,-2.9375,-2.9375,3.125,3.125,3.125,6.406769,7.007944,1.475684,7.437464,3.0039,8.626579,-0.02798632,-0.4946581,1.346373,0.3737054,-0.4998047,1.346416,0.1686891,0.284558,1.431715,-0.0675943,-0.4931256,1.355022,0.3304734,-0.4946904,1.338329,0.1591495,-0.1491775,1.450358,0.1652598,-0.4505037,1.422578,-0.008810555,0.01296365,1.439944,0.08712603,-0.4424037,1.395275,-0.04029999,-0.233387,1.417418,0.3793718,-0.2352883,1.428161,NA,NA,NotTracked,NotTracked,
-0.9677734,0.2324219,0.1767578,0.9326172,0.3032227,0.02246094,0,0,0,-1,-1,-4,-2,0,-1,-1,-1,0,0,1,8,3,-3.875,-3.875,-3.875,3.125,3.125,3.125,6.41018,7.006301,1.485651,7.434551,3.004296,8.63483,-0.02751909,-0.4965693,1.346103,0.3749352,-0.4995785,1.345356,0.1701583,0.284725,1.431373,-0.0667748,-0.4934072,1.353292,0.3328832,-0.4795572,1.336931,0.1607044,-0.1489788,1.449553,0.1665759,-0.4504016,1.421834,-0.007356909,0.01319093,1.439586,0.08836897,-0.4423252,1.3948,-0.03870599,-0.2336963,1.416763,0.3810006,-0.234892,1.426905,NA,NA,NotTracked,NotTracked,
-0.965332,0.2363281,0.1850586,0.9277344,0.2978516,0.01708984,-1,-2,-2,-2,-1,-3,1,2,0,-1,0,-2,-1,2,-8,-1,-2.6875,-2.6875,-2.6875,3.5625,3.5625,3.5625,6.410603,7.005823,1.492722,7.431143,3.003493,8.644759,-0.02524815,-0.4965957,1.344533,0.3758148,-0.4992732,1.343926,0.1713672,0.2850091,1.430821,-0.06613168,-0.4954416,1.352455,0.3320307,-0.4937923,1.33579,0.1624503,-0.1486331,1.44864,0.168426,-0.4500962,1.420815,-0.005546265,0.01329663,1.438499,0.09013718,-0.442102,1.394202,-0.03692644,-0.2335558,1.416254,0.3825999,-0.234657,1.425084,NA,NA,NotTracked,NotTracked,
-0.9545898,0.2333984,0.1743164,0.9277344,0.2983398,0.02490234,0,0,-1,0,-3,0,-4,-2,-1,0,-1,-3,-2,1,-1,-2,-3.6875,-3.6875,-3.6875,3.8125,3.8125,3.8125,6.401105,7.005968,1.49013,7.420139,3.004085,8.664474,-0.024398,-0.4960858,1.345492,0.376882,-0.4993256,1.343557,0.1729768,0.2853203,1.429931,-0.06373803,-0.4926701,1.358056,0.3341488,-0.4937344,1.337766,0.1638598,-0.1482836,1.448084,0.1693259,-0.4499535,1.420392,-0.004152471,0.01346467,1.437827,0.09095964,-0.4419353,1.394023,-0.03547698,-0.2336339,1.415789,0.384126,-0.2344182,1.423605,NA,NA,NotTracked,NotTracked,
-0.9550781,0.234375,0.184082,0.9165039,0.2983398,0.02001953,-1,1,0,-1,-1,-1,0,-2,-1,-1,-1,0,0,2,-2,-5,-2.3125,-2.3125,-2.3125,2.5625,2.5625,2.5625,6.392568,7.006516,1.484539,7.410665,3.005073,8.680376,-0.02218029,-0.4960504,1.344638,0.3774361,-0.4980823,1.340738,0.1743315,0.2856089,1.429002,-0.06445608,-0.4923022,1.349404,0.3364782,-0.4948276,1.338485,0.1652264,-0.1479722,1.447444,0.1707034,-0.4497349,1.420023,-0.00274217,0.01382497,1.437401,0.09235284,-0.4416914,1.393754,-0.03418812,-0.2336605,1.415228,0.3854634,-0.2339027,1.421816,NA,NA,NotTracked,NotTracked,
-0.9555664,0.2319336,0.1811523,0.9228516,0.2963867,0.01806641,-1,-1,-3,-3,0,-2,-4,1,0,-1,-3,0,0,2,-2,8,0.4375,0.4375,0.4375,3.0625,3.0625,3.0625,6.388272,7.007266,1.479821,7.401642,3.006486,8.694785,-0.02035322,-0.495081,1.343437,0.3771102,-0.4969185,1.338648,0.1753983,0.2856544,1.42834,-0.05885585,-0.489228,1.348773,0.3364139,-0.4968882,1.335151,0.1666177,-0.1478055,1.446653,0.1719991,-0.4497604,1.419686,-0.0009169309,0.01440329,1.436636,0.0936147,-0.4416333,1.393695,-0.03274948,-0.2336387,1.414407,0.3866735,-0.2333235,1.420303,NA,NA,NotTracked,NotTracked,
-0.9628906,0.2402344,0.1738281,0.9189453,0.3037109,0.02148438,-1,-2,-2,0,-1,-3,-2,-1,-2,-1,-2,0,0,-1,3,1,-2.625,-2.625,-2.625,-0.3125,-0.3125,-0.3125,6.391847,7.009012,1.482734,7.396669,3.008355,8.704398,-0.01958538,-0.4954467,1.343657,0.3775208,-0.4964655,1.337759,0.1764415,0.2859298,1.427518,-0.05666718,-0.4952633,1.343581,0.3368106,-0.4830128,1.330105,0.1676814,-0.1475648,1.446259,0.1728994,-0.4495751,1.419387,-0.000388292,0.01443614,1.43624,0.09458908,-0.4414142,1.393488,-0.03151424,-0.2335841,1.413735,0.3875626,-0.2329672,1.419273,NA,NA,NotTracked,NotTracked,
-0.9575195,0.234375,0.1850586,0.9194336,0.2963867,0.02197266,-1,0,-2,-1,-2,-2,-2,-1,-4,-1,-3,-1,-2,-3,-15,-17,-2.6875,-2.6875,-2.6875,-1.3125,-1.3125,-1.3125,6.387112,7.008918,1.482297,7.392005,3.00846,8.705938,-0.01896398,-0.4952382,1.342611,0.3775794,-0.4956371,1.335694,0.1775428,0.2860652,1.426702,-0.05974045,-0.492119,1.347705,0.3357282,-0.4860699,1.331504,0.1686036,-0.1475757,1.44574,0.1735715,-0.4497304,1.419119,0.0006950576,0.01470683,1.435773,0.09522881,-0.4415354,1.393351,-0.03029983,-0.233568,1.413217,0.3884917,-0.2324766,1.417811,NA,NA,NotTracked,NotTracked,
-0.956543,0.2275391,0.1870117,0.9174805,0.3022461,0.01708984,-1,-1,-1,0,-2,-4,-3,0,0,-1,-2,-1,-3,0,-1,-1,0.9375,0.9375,0.9375,-0.625,-0.625,-0.625,6.385885,7.009552,1.481143,7.39332,3.007489,8.705028,-0.01752488,-0.4949318,1.342603,0.3785654,-0.4966252,1.336819,0.1783161,0.2862229,1.425996,-0.06018668,-0.4924365,1.351199,0.3375896,-0.4799795,1.334845,0.1696221,-0.1473718,1.445164,0.1746059,-0.4495076,1.418751,0.001493177,0.0150244,1.435448,0.09627099,-0.4413633,1.393092,-0.0292407,-0.2330958,1.412497,0.3894128,-0.2321317,1.416783,NA,NA,NotTracked,NotTracked,
-0.9663086,0.2304688,0.1787109,0.9179688,0.3110352,0.02148438,-1,-4,-1,-1,0,-2,-1,-3,-3,-4,-2,-2,-4,1,0,-2,1.875,1.875,1.875,-1.1875,-1.1875,-1.1875,6.388706,7.008991,1.480548,7.395211,3.005865,8.70096,-0.01732728,-0.4948519,1.340878,0.3794515,-0.496682,1.336328,0.1791847,0.2862208,1.425541,-0.0590618,-0.4944415,1.349928,0.3407468,-0.4954872,1.334184,0.1705651,-0.1472171,1.444679,0.1755221,-0.449343,1.4184,0.002667306,0.01526293,1.434494,0.09712102,-0.4412032,1.392836,-0.02834165,-0.2332332,1.412078,0.3900604,-0.2314426,1.415926,NA,NA,NotTracked,NotTracked,
-0.9560547,0.2265625,0.1787109,0.9243164,0.2993164,0.02929688,-3,-3,0,0,-2,0,0,-1,1,0,0,1,1,3,14,5,2.25,2.25,2.25,-1.75,-1.75,-1.75,6.389371,7.007636,1.478312,7.391922,3.005403,8.701013,-0.01751861,-0.4944529,1.340128,0.3800829,-0.4960988,1.336463,0.1798526,0.2864365,1.424952,-0.05995359,-0.4916894,1.350773,0.3384444,-0.4849939,1.333777,0.1713685,-0.1471921,1.444199,0.1764928,-0.4494379,1.417956,0.003810505,0.01545381,1.433163,0.09805173,-0.4412397,1.392425,-0.0274249,-0.2330659,1.411327,0.3905859,-0.2312913,1.415284,NA,NA,NotTracked,NotTracked,
-0.9589844,0.2211914,0.1787109,0.9262695,0.3027344,0.0234375,-2,-1,-1,-2,-1,0,0,0,1,0,0,0,-2,-3,-8,-10,4.0625,4.0625,4.0625,-0.375,-0.375,-0.375,6.391119,7.006867,1.470835,7.391107,3.005225,8.70171,-0.016229,-0.494592,1.338625,0.3802017,-0.495732,1.336009,0.1807098,0.2862453,1.424267,-0.05734371,-0.5001163,1.321286,0.3392591,-0.4790814,1.333844,0.1721437,-0.1471153,1.443749,0.1776008,-0.4493465,1.41733,0.004278239,0.01549428,1.432785,0.09912853,-0.4410796,1.391798,-0.02656165,-0.2328005,1.410609,0.3910606,-0.2315099,1.414784,NA,NA,NotTracked,NotTracked,
-0.9628906,0.2353516,0.1748047,0.9331055,0.3032227,0.02539063,-1,-1,-1,-1,0,-1,0,-2,1,1,-1,-1,0,2,3,3,-1.3125,-1.3125,-1.3125,-2,-2,-2,6.400803,7.006166,1.475851,7.384198,3.00604,8.70436,-0.01494249,-0.4937536,1.338199,0.3798566,-0.4960101,1.33464,0.1815086,0.2863047,1.423775,-0.05627498,-0.489882,1.351588,0.3390021,-0.4879583,1.331007,0.1726648,-0.1471996,1.443299,0.1782077,-0.4495372,1.416827,0.004905623,0.01528459,1.431999,0.099706,-0.4412589,1.391264,-0.02578055,-0.2332468,1.409663,0.3915592,-0.2318586,1.414142,NA,NA,NotTracked,NotTracked,
-0.972168,0.2250977,0.1865234,0.9248047,0.3081055,0.01757813,-1,-1,0,0,1,-1,1,-2,-1,-2,-2,-2,-2,-4,-2,-1,-3.3125,-3.3125,-3.3125,-2,-2,-2,6.40093,7.005544,1.477772,7.388368,3.004966,8.698504,-0.01460174,-0.4940035,1.337796,0.3799507,-0.4957301,1.334475,0.1820872,0.2863141,1.423503,-0.05585454,-0.4896918,1.350946,0.3390546,-0.4897001,1.331481,0.1730099,-0.1472126,1.442973,0.1784395,-0.449587,1.416557,0.00532677,0.01528084,1.431479,0.09995129,-0.4412831,1.391013,-0.02548463,-0.2331251,1.409149,0.3919031,-0.2319271,1.413805,NA,NA,NotTracked,NotTracked,
-0.9609375,0.2353516,0.1816406,0.9291992,0.2993164,0.01708984,0,-2,-1,0,-1,-3,1,-1,-1,-1,-1,0,0,7,7,7,-5.375,-5.375,-5.375,-0.6875,-0.6875,-0.6875,6.402226,7.004532,1.484432,7.392481,3.0035,8.690798,-0.01500758,-0.4939044,1.338732,0.3809965,-0.4960094,1.336085,0.1828429,0.2864739,1.423203,-0.05585414,-0.4928357,1.343274,0.3384788,-0.4801286,1.327896,0.1736712,-0.1470895,1.44263,0.1788909,-0.4495508,1.416253,0.005916049,0.01551116,1.431254,0.1003922,-0.4412237,1.390687,-0.02505803,-0.23298,1.409054,0.3922589,-0.2318458,1.413528,NA,NA,NotTracked,NotTracked,
-0.9663086,0.2255859,0.1826172,0.9238281,0.3027344,0.02441406,-2,1,-1,-1,-1,1,-7,-2,-1,-1,-1,0,-2,-1,1,-2,-3.25,-3.25,-3.25,3.125,3.125,3.125,6.403337,7.005169,1.502914,7.39926,2.998819,8.687295,-0.01427668,-0.4938148,1.338437,0.3808814,-0.49803,1.335403,0.1835146,0.2865984,1.423002,-0.05419085,-0.4914487,1.339628,0.3408113,-0.4962822,1.327867,0.1738919,-0.147034,1.442481,0.1789877,-0.4495491,1.416179,0.006330241,0.01565505,1.431189,0.1004929,-0.4412169,1.390635,-0.0247342,-0.2328241,1.408918,0.3925406,-0.2319548,1.413239,NA,NA,NotTracked,NotTracked,
-0.9589844,0.2319336,0.1831055,1.064941,0.3686523,-0.1411133,0,-2,0,-1,-1,-1,1,-1,7,26,42,8,-2,-5,-11,-4,-3.1875,-3.1875,-3.1875,5.5625,5.5625,5.5625,6.406532,7.004775,1.512695,7.404341,3.001959,8.690758,-0.01450239,-0.49406,1.338666,0.3821686,-0.4990022,1.336166,0.1839316,0.286673,1.422984,-0.05531453,-0.4920716,1.346613,0.3393461,-0.4843934,1.330085,0.174169,-0.1469548,1.442382,0.179073,-0.4495332,1.416152,0.006601518,0.01581485,1.431235,0.1005991,-0.4411655,1.390592,-0.02455439,-0.2327069,1.408816,0.3929022,-0.2322719,1.4131,NA,NA,NotTracked,NotTracked,
-0.956543,0.2358398,0.1889648,1.225586,0.5356445,-0.08740234,0,-2,-1,-1,-1,0,1,0,11,62,38,-12,10,6,-3,2,-3.6875,-3.6875,-3.6875,-63.875,-63.875,-63.875,6.403527,7.00437,1.511649,7.30313,3.079367,8.722202,-0.01373207,-0.4939262,1.339738,0.3786396,-0.4923511,1.329448,0.1843163,0.2867761,1.422982,-0.05486609,-0.4916202,1.346725,0.3406509,-0.4863944,1.330672,0.1746163,-0.1467867,1.442228,0.179272,-0.44944,1.416049,0.007146152,0.01599717,1.431135,0.1007669,-0.4410562,1.39055,-0.02435515,-0.2325566,1.408824,0.3946069,-0.2295902,1.413316,NA,NA,NotTracked,NotTracked,
-0.9643555,0.2412109,0.184082,0.9741211,1.025391,0.2861328,-1,-1,0,-3,0,0,-1,-3,18,42,48,30,8,4,-1,6,-5.375,-5.375,-5.375,55.6875,55.6875,55.6875,6.392157,7.004282,1.507792,6.970032,3.422093,9.121429,-0.01496288,-0.4925801,1.338595,0.3597,-0.4494382,1.286851,0.1845876,0.2868593,1.423036,-0.05625386,-0.4852436,1.349885,0.3334174,-0.4640847,1.29635,0.1746649,-0.1467594,1.442213,0.1789247,-0.4493103,1.416015,0.00750477,0.01619457,1.431564,0.1004197,-0.4408374,1.390556,-0.02409152,-0.2323217,1.409018,0.4040055,-0.2126527,1.416174,NA,NA,NotTracked,NotTracked,
-0.9541016,0.2358398,0.2207031,0.6953125,1.043945,0.4208984,-1,-2,-3,1,-1,-2,0,1,0,-27,-24,7,5,2,7,-3,-16.0625,-16.0625,-16.0625,59.0625,59.0625,59.0625,6.36973,6.982814,1.541175,6.914839,3.902922,9.332781,-0.01409304,-0.4936345,1.338192,0.3162512,-0.365239,1.24795,0.1847642,0.2870081,1.423146,-0.05561958,-0.488545,1.3502,0.3283903,-0.4288478,1.271211,0.1744221,-0.146659,1.442188,0.1764555,-0.4487676,1.415673,0.007969502,0.01623795,1.431951,0.0978633,-0.4397336,1.390687,-0.02385769,-0.2315542,1.409439,0.4194767,-0.1886397,1.412241,NA,NA,NotTracked,Unknown,
-0.9423828,0.2451172,0.2231445,0.3129883,0.9902344,0.3637695,0,-1,-1,-1,-2,-4,-1,1,-19,17,9,7,4,-2,-26,-22,8.625,8.625,8.625,72.25,72.25,72.25,6.367434,6.983201,1.538007,6.954368,4.450979,9.484793,-0.01482333,-0.4922317,1.341625,0.3040283,-0.1997124,1.190663,0.1850881,0.2874067,1.423585,-0.0565644,-0.4890568,1.34742,0.261725,-0.2002743,1.24525,0.1742312,-0.1463171,1.442335,0.1751946,-0.447999,1.415721,0.008223295,0.01637561,1.432503,0.09671112,-0.4390407,1.391022,-0.02329569,-0.2302286,1.410305,0.4633032,-0.1550638,1.394489,NA,NA,NotTracked,Unknown,
-0.9555664,0.2421875,0.1943359,-0.1245117,0.9946289,0.2495117,2,-1,0,1,0,-1,0,-1,10,21,9,3,3,16,44,31,17.1875,17.1875,17.1875,174.5625,174.5625,174.5625,6.385536,6.989327,1.539307,7.272282,5.171009,9.675414,-0.01523948,-0.4919316,1.341619,0.2892163,-0.05762229,1.188775,0.1854964,0.2878115,1.424235,-0.05563979,-0.4865119,1.348075,0.2533116,-0.05579457,1.235353,0.1739274,-0.1455085,1.442699,0.17451,-0.4467776,1.415731,0.009400646,0.01693244,1.432564,0.09608656,-0.4379473,1.391526,-0.02319596,-0.2294711,1.410584,0.4752248,-0.1193865,1.33286,NA,NA,NotTracked,Unknown,
-0.9731445,0.2529297,0.1757813,-0.1611328,0.7182617,0.2250977,-2,-3,-1,-1,3,0,-2,-2,13,2,-2,3,2,10,26,10,13.9375,13.9375,13.9375,140.8125,140.8125,140.8125,6.41012,6.994505,1.546075,7.558001,5.595263,9.836645,-0.0165306,-0.4920579,1.34135,0.2867064,0.062295,1.202413,0.1858383,0.2879656,1.425002,-0.05755855,-0.4856916,1.346394,0.2549596,0.05805487,1.238222,0.1721282,-0.1458876,1.443286,0.1731201,-0.4481573,1.415694,0.007671535,0.01639592,1.434015,0.09400754,-0.4398789,1.394079,-0.02311289,-0.2295442,1.410815,0.4897509,-0.08740048,1.292119,NA,NA,NotTracked,Unknown,
-0.9521484,0.2382813,0.2001953,-0.1323242,0.5444336,0.1381836,-2,0,-1,-3,-2,0,1,-1,-2,-3,-8,-4,3,9,-2,0,3.875,3.875,3.875,97.8125,97.8125,97.8125,6.432401,6.988705,1.54486,7.816177,5.849531,9.992104,-0.01666503,-0.4868536,1.340094,0.2843197,0.1411268,1.221504,0.185438,0.2893261,1.425516,-0.05715184,-0.4885519,1.347075,0.2524722,0.1385799,1.273154,0.1727248,-0.142485,1.442323,0.1714019,-0.4422703,1.414311,0.004178723,0.01685365,1.436989,0.09192308,-0.4338747,1.393557,-0.02341994,-0.2210948,1.41096,0.5112497,-0.07320774,1.302181,NA,NA,NotTracked,Lasso,
-0.9628906,0.2607422,0.1879883,-0.1132813,0.484375,0.07617188,-1,-1,-1,-2,-2,0,1,0,2,-1,2,0,10,6,-13,0,5.3125,5.3125,5.3125,35.875,35.875,35.875,6.434008,6.987773,1.53806,7.950568,5.876973,0.1006668,-0.01583437,-0.4833667,1.342962,0.2833007,0.1655709,1.234521,0.1847977,0.2893052,1.425766,-0.05579286,-0.4846923,1.347266,0.2561584,0.1461864,1.283273,0.1727154,-0.1400364,1.442284,0.170278,-0.4363827,1.413242,0.009877261,0.01822381,1.435532,0.09047002,-0.4281508,1.393137,-0.02285834,-0.215873,1.411549,0.5177444,-0.04527066,1.286507,NA,NA,NotTracked,Unknown,
-0.9570313,0.2475586,0.1601563,-0.262207,0.6616211,-0.1748047,-2,0,-1,0,-1,0,0,-3,31,20,-1,1,2,-5,-16,-4,-1.5,-1.5,-1.5,-41.9375,-41.9375,-41.9375,6.433594,6.992702,1.532433,7.967438,5.623144,0.2374473,-0.01670897,-0.4835785,1.344216,0.2740427,0.1513973,1.237593,0.1833808,0.2902301,1.425609,-0.05679951,-0.4845688,1.348891,0.2495807,0.1266704,1.26375,0.172058,-0.1389748,1.441901,0.1695131,-0.4348398,1.412751,0.007759777,0.01803254,1.43646,0.08963299,-0.4265273,1.392847,-0.0229434,-0.2143499,1.411626,0.5221295,-0.03719795,1.286928,NA,NA,NotTracked,Lasso,
-0.949707,0.2441406,0.1689453,-0.4165039,1.073242,-0.4277344,-1,-1,-1,-1,-2,-2,-4,-1,-19,-21,-13,-10,-1,-8,-5,16,-6,-6,-6,-51.8125,-51.8125,-51.8125,6.418991,6.996272,1.522393,7.909141,5.397834,0.3167416,-0.01698067,-0.4840222,1.34487,0.2615597,0.1167911,1.247669,0.1820046,0.290739,1.425158,-0.05632507,-0.4859814,1.347773,0.2447009,0.0814888,1.270846,0.1691742,-0.1395557,1.441413,0.1679486,-0.4359589,1.412445,0.006590934,0.01848412,1.436802,0.08810871,-0.4273518,1.393409,-0.0232594,-0.2150432,1.411594,0.5052776,-0.01012691,1.262227,NA,NA,NotTracked,Unknown,
-0.9755859,0.2431641,0.1855469,-0.5410156,1.224121,-0.5507813,-1,0,-1,-2,0,-1,1,-1,-8,1,1,3,1,6,3,3,-14.0625,-14.0625,-14.0625,24,24,24,6.381422,6.998562,1.515584,7.925734,5.374444,0.3495281,-0.01902123,-0.4863833,1.344264,0.3545774,0.0636232,1.261386,0.1800271,0.2910916,1.425057,-0.05767479,-0.485943,1.350634,0.3884571,0.06835872,1.238621,0.1669377,-0.1408403,1.440937,0.1665077,-0.4384531,1.411975,0.006674292,0.01863962,1.436723,0.0867359,-0.429776,1.394314,-0.02400946,-0.2170461,1.411542,0.5063924,-0.01035085,1.262172,NA,NA,NotTracked,Closed,
-0.9472656,0.2060547,0.2080078,-0.3383789,0.859375,-0.2495117,-1,0,-1,1,-2,-3,-1,5,-3,0,0,1,-3,-1,-15,3,-5.375,-5.375,-5.375,70.9375,70.9375,70.9375,6.37316,6.99663,1.525816,8.062956,5.602422,0.2941474,-0.01954481,-0.4864865,1.345202,0.2125436,0.1592525,1.272886,0.1791053,0.2910644,1.424141,-0.05894492,-0.4837333,1.350692,0.2013655,0.1604643,1.234325,0.1657954,-0.1411041,1.440703,0.1656868,-0.4389197,1.411731,0.006936755,0.01898897,1.436495,0.08595664,-0.4301173,1.394324,-0.02444673,-0.217894,1.411636,0.5071544,-0.007953148,1.262043,NA,NA,NotTracked,Unknown,
-0.9487305,0.2504883,0.1948242,-0.1884766,0.6176758,-0.112793,0,-1,-1,0,1,5,0,-1,-9,0,4,1,-1,-6,-18,-5,5.9375,5.9375,5.9375,38.75,38.75,38.75,6.384856,7.000564,1.527611,8.118779,5.739677,0.2559073,-0.0204566,-0.4853014,1.34561,0.2556109,0.1631045,1.246581,0.1785963,0.2912923,1.423351,-0.05847352,-0.4850575,1.34878,0.2315025,0.1496213,1.302875,0.165395,-0.1407187,1.440724,0.1652187,-0.4375958,1.411331,0.003009788,0.01767232,1.437967,0.08549204,-0.4288452,1.393538,-0.0255267,-0.2162149,1.412094,0.5063285,0.004723177,1.256548,NA,NA,NotTracked,Lasso,
-0.965332,0.2177734,0.1953125,-0.1186523,0.515625,-0.1420898,0,0,-2,-1,-2,-1,-2,-3,-3,4,8,-2,0,-5,-17,-1,1.375,1.375,1.375,-47.875,-47.875,-47.875,6.381887,7.005718,1.523232,8.078276,5.673545,0.2658843,-0.02071255,-0.4850312,1.34562,0.2128751,0.1929243,1.264268,0.1777665,0.291498,1.422775,-0.0597242,-0.4812355,1.348792,0.2236803,0.1677777,1.2973,0.1648536,-0.1400942,1.440679,0.1644159,-0.435995,1.41089,0.005553592,0.01835551,1.43571,0.08455715,-0.4270717,1.392816,-0.02641493,-0.2147323,1.412173,0.5023856,0.01749982,1.250481,NA,NA,NotTracked,Unknown,
-0.9619141,0.2324219,0.1791992,-0.4726563,1.13623,-0.5209961,-2,0,-1,-1,-2,-1,-1,-3,-4,-9,-8,-5,-5,-5,-20,-8,-8,-8,-8,-38.875,-38.875,-38.875,6.354658,7.008933,1.501344,7.984944,5.380089,0.2926337,-0.02157921,-0.4856262,1.345654,0.2071008,0.1542627,1.263629,0.1757512,0.2916884,1.422308,-0.05923291,-0.4836034,1.348454,0.2099421,0.1278957,1.28425,0.1639021,-0.1401156,1.440509,0.1638201,-0.436169,1.410742,0.005509893,0.01837669,1.435711,0.08393686,-0.4272016,1.392919,-0.02667084,-0.2148593,1.412222,0.5031788,0.01545507,1.251831,NA,NA,NotTracked,Lasso,
-0.9814453,0.2348633,0.215332,-0.4765625,1.288574,-0.5380859,-1,-2,-1,0,-1,-2,-1,0,-1,-2,-3,-7,-24,-12,8,5,-12.9375,-12.9375,-12.9375,32.625,32.625,32.625,6.329507,6.999568,1.494769,8.011322,5.38368,0.2848939,-0.02164231,-0.4879477,1.345579,0.1700698,0.1759566,1.307199,0.1727652,0.2912882,1.42225,-0.05917198,-0.4843794,1.349188,0.1862482,0.1759179,1.317134,0.1627396,-0.1409045,1.44012,0.1630404,-0.4378881,1.410512,0.004767144,0.01829712,1.436035,0.08322016,-0.4289875,1.39345,-0.02742816,-0.2182669,1.412533,0.5038958,0.009880645,1.253607,NA,NA,NotTracked,Unknown,
-0.9604492,0.2436523,0.2207031,-0.3012695,0.7988281,-0.2685547,-2,-3,-1,-1,-1,-1,-4,-3,12,-2,2,2,2,-3,-15,13,-1.5625,-1.5625,-1.5625,66.25,66.25,66.25,6.34577,6.991212,1.522355,8.141437,5.679394,0.2800753,-0.02292186,-0.4862415,1.344051,0.2569879,0.1384472,1.243418,0.1723617,0.2913864,1.422191,-0.06157296,-0.4940601,1.35205,0.3107919,0.1605764,1.279857,0.1623788,-0.140968,1.440093,0.1628711,-0.4379089,1.41034,0.004575494,0.0185004,1.436172,0.08307288,-0.4289698,1.393236,-0.02761515,-0.2185699,1.412545,0.5032875,0.01107559,1.252781,NA,NA,NotTracked,Lasso,
-0.9492188,0.2358398,0.2172852,-0.1914063,0.5571289,-0.1401367,-2,0,-1,-3,0,-1,-1,-1,-6,-14,-3,-3,-4,5,5,-4,5.1875,5.1875,5.1875,25.0625,25.0625,25.0625,6.35528,6.989843,1.529918,8.221776,5.84615,0.3038742,-0.02314021,-0.4852329,1.344458,0.2661491,0.1703758,1.249408,0.1723016,0.2913657,1.422126,-0.06255911,-0.4979299,1.346316,0.2600278,0.2001228,1.211167,0.1622706,-0.1404722,1.440138,0.1626188,-0.4360773,1.40982,0.001934903,0.01746244,1.436955,0.08292479,-0.4274065,1.392217,-0.02830856,-0.2164737,1.412253,0.4993823,0.02466047,1.248202,NA,NA,NotTracked,Unknown,
-0.9677734,0.230957,0.1723633,-0.2460938,0.4975586,-0.1279297,-1,-2,0,-1,-1,-1,2,-1,5,-5,-6,-5,-23,-7,28,2,16.5625,16.5625,16.5625,-37.6875,-37.6875,-37.6875,6.432172,6.998398,1.556267,8.200454,5.770601,0.3368149,-0.0247914,-0.4824706,1.343459,0.2670922,0.1730328,1.251659,0.1722762,0.2912104,1.421996,-0.06429949,-0.4919873,1.338576,0.2574646,0.2073797,1.2125,0.1635295,-0.1388432,1.439314,0.1625142,-0.4339113,1.409475,0.001037964,0.01710567,1.43724,0.08284465,-0.4254878,1.3916,-0.02869174,-0.2137654,1.412012,0.4964732,0.03210937,1.245418,NA,NA,NotTracked,Lasso,
-0.9555664,0.2270508,0.1728516,-0.315918,0.894043,-0.4594727,-1,-2,-1,0,-2,0,-1,1,25,15,11,5,6,11,16,4,-4.1875,-4.1875,-4.1875,-78.9375,-78.9375,-78.9375,6.431233,6.996335,1.55026,8.095534,5.50904,0.3666342,-0.02434874,-0.4833212,1.341419,0.2621955,0.13691,1.25208,0.1722416,0.2916228,1.421967,-0.06401061,-0.4851247,1.345796,0.241499,0.1718341,1.213412,0.1632818,-0.1388193,1.439358,0.1625012,-0.4340546,1.409426,0.002672505,0.01740965,1.43546,0.08281638,-0.4256261,1.391489,-0.0288771,-0.2137361,1.411834,0.4966573,0.03117558,1.245638,NA,NA,NotTracked,Lasso,
-0.9506836,0.2148438,0.1860352,-0.4360352,1.225098,-0.5424805,0,-1,-2,0,-1,0,0,0,1,7,6,3,5,13,-5,-5,-5.0625,-5.0625,-5.0625,-0.625,-0.625,-0.625,6.406044,6.992239,1.53006,8.042419,5.402032,0.3664567,-0.02345614,-0.4830147,1.341279,0.2437662,0.1149945,1.26066,0.1718992,0.2915016,1.422103,-0.06373496,-0.4936372,1.346744,0.2306378,0.1398687,1.233582,0.1625821,-0.1394612,1.439161,0.1623505,-0.4358732,1.408992,0.0029226,0.0178702,1.43532,0.08272757,-0.4272669,1.391671,-0.02915836,-0.2166097,1.411408,0.5017338,0.01445835,1.252716,NA,NA,NotTracked,Lasso,
-0.9741211,0.2446289,0.1953125,-0.2504883,0.8227539,-0.3232422,0,0,-2,-2,-1,-2,0,-1,-3,0,-3,-2,-3,-18,-1,-11,-4.25,-4.25,-4.25,33.125,33.125,33.125,6.393636,6.98623,1.521452,8.076227,5.514913,0.3179525,-0.02205837,-0.4846961,1.340513,0.20388,0.1533182,1.283028,0.1718874,0.2912452,1.422362,-0.06083788,-0.4849989,1.345773,0.2107214,0.1356291,1.30325,0.1622423,-0.1397538,1.43916,0.1622274,-0.4365915,1.408935,0.003163455,0.01809614,1.435291,0.08263988,-0.4278364,1.391713,-0.02911567,-0.2177025,1.411231,0.5039715,0.009198154,1.256483,NA,NA,NotTracked,Unknown,
-0.9287109,0.2700195,0.1958008,-0.1254883,0.625,-0.1030273,0,-2,-1,-2,-1,4,-1,0,0,-2,-6,-5,0,4,3,4,3.6875,3.6875,3.6875,3.3125,3.3125,3.3125,6.400471,6.976151,1.534935,8.06681,5.561503,0.2343924,-0.0223015,-0.4843621,1.339539,0.2558038,0.1382255,1.251872,0.172314,0.2916616,1.423055,-0.06208578,-0.4879051,1.347196,0.2265403,0.1305845,1.298821,0.1621844,-0.1397246,1.439214,0.1622164,-0.4365804,1.408911,0.003875173,0.01857607,1.435053,0.0826145,-0.4277847,1.391621,-0.02906903,-0.2176064,1.411046,0.5078001,0.005835182,1.262085,NA,NA,NotTracked,Lasso,
-0.9599609,0.246582,0.1616211,-0.06787109,0.6621094,-0.06738281,-3,0,-1,0,1,0,-1,-2,1,0,-2,-5,-22,-6,-24,5,2.75,2.75,2.75,-72,-72,-72,6.449561,6.984747,1.563636,7.908177,5.387847,0.09221838,-0.02327133,-0.4843512,1.33839,0.2215877,0.1406381,1.254894,0.1726054,0.2918941,1.424064,-0.06269389,-0.488793,1.346622,0.2419409,0.1708787,1.285,0.1621456,-0.1397487,1.43923,0.1622779,-0.4367503,1.408868,0.004294907,0.01926398,1.435148,0.08267167,-0.4279447,1.391637,-0.02886897,-0.2178327,1.410667,0.5112296,-0.000279978,1.267861,NA,NA,NotTracked,Unknown,
-0.9638672,0.2260742,0.1889648,-0.03271484,0.8173828,0.02539063,0,-1,0,-1,-1,-2,1,1,-4,-5,-5,-3,-3,-3,-14,-5,-12.125,-12.125,-12.125,-119.625,-119.625,-119.625,6.437925,6.980362,1.56565,7.713721,5.116735,9.96197,-0.02302862,-0.4845197,1.338338,0.2319693,0.06995557,1.240279,0.1727794,0.2916008,1.425429,-0.06330851,-0.4896723,1.345444,0.2286442,0.05514862,1.273143,0.1621967,-0.1403704,1.43943,0.1623605,-0.4394573,1.409013,0.00430795,0.0192005,1.435199,0.08299067,-0.4310318,1.392536,-0.02863801,-0.2198188,1.410601,0.5188448,-0.02970841,1.293521,NA,NA,NotTracked,Unknown,
-0.9599609,0.2041016,0.1928711,0.03027344,0.8505859,0.1113281,-1,-1,-1,-2,-2,1,-1,-1,4,4,2,4,1,1,15,-27,-9.3125,-9.3125,-9.3125,-140.75,-140.75,-140.75,6.425163,6.979873,1.557918,7.489614,4.739592,9.836913,-0.02207387,-0.4872247,1.339364,0.2652859,-0.03794215,1.227179,0.1743204,0.2914885,1.426471,-0.06199015,-0.4873223,1.347381,0.2656041,-0.07264123,1.2662,0.1631641,-0.1406186,1.439774,0.1627879,-0.4400108,1.409452,0.001751879,0.0180491,1.436899,0.08389795,-0.4318321,1.392366,-0.02846226,-0.222013,1.410402,0.5169726,-0.04931362,1.31866,NA,NA,NotTracked,Unknown,
