ALX,ALY,ALZ,ARX,ARY,ARZ,EMG0L,EMG1L,EMG2L,EMG3L,EMG4L,EMG5L,EMG6L,EMG7L,EMG0R,EMG1R,EMG2R,EMG3R,EMG4R,EMG5R,EMG6R,EMG7R,GLX,GLY,GLZ,GRX,GRY,GRZ,ORL,OPL,OYL,ORR,OPR,OYR,LHNX,LHNY,LHNZ,RHNX,RHNY,RHNZ,HX,HY,HZ,LTX,LTY,LTZ,RTX,RTY,RTZ,SpineMidX,SpineMidY,SpineMidZ,SpineBaseX,SpineBaseY,SpineBaseZ,ShoulderLeftX,ShoulderLeftY,ShoulderLeftZ,ShoulderRightX,ShoulderRightY,ShoulderRightZ,ElbowLeftX,ElbowLeftY,ElbowLeftZ,ElbowRightX,ElbowRightY,ElbowRightZ,Myo_Pose_left,Myo_Pose_Right,Kinect_pose_left,Kinect_pose_right
-0.9750977,0.1967773,0.1469727,0.9526367,0.1811523,-0.02294922,-2,-1,-1,0,-2,-2,-3,-2,0,-3,-1,0,0,1,6,0,-0.1875,-0.1875,-0.1875,-1.5,-1.5,-1.5,6.444201,7.087954,1.804018,7.670005,2.808145,8.37097,-0.02065813,-0.495506,1.354342,0.3946702,-0.5074737,1.369709,0.1929704,0.2847165,1.405392,-0.06233949,-0.4890793,1.359336,0.3555479,-0.498989,1.356106,0.1804977,-0.146816,1.434216,0.1833801,-0.4482042,1.412662,0.01217763,0.01899999,1.423513,0.104746,-0.4395005,1.386884,-0.02399198,-0.2305943,1.410041,0.39939,-0.2379425,1.420382,NA,NA,NotTracked,NotTracked,
-0.9736328,0.1992188,0.1435547,0.9477539,0.1962891,-0.02392578,-1,-2,1,-1,-2,-2,0,0,0,-2,-1,-1,-1,3,12,-4,-0.5,-0.5,-0.5,0.375,0.375,0.375,6.445252,7.08871,1.804541,7.663437,2.809176,8.375561,-0.02001554,-0.4955142,1.354151,0.3942763,-0.5075287,1.370598,0.1930763,0.2847378,1.405418,-0.06237039,-0.4882798,1.361151,0.3555618,-0.4982784,1.355724,0.1805122,-0.1468102,1.434208,0.1834221,-0.4481922,1.412645,0.01222858,0.01896164,1.423504,0.104779,-0.4394895,1.386861,-0.0239955,-0.2306299,1.410013,0.3994082,-0.2378615,1.420244,NA,NA,NotTracked,NotTracked,
-0.9716797,0.1967773,0.1420898,0.9575195,0.1914063,-0.02197266,0,-1,0,0,-3,-2,-1,2,1,-1,0,0,-1,-1,2,4,0.3125,0.3125,0.3125,3.25,3.25,3.25,6.449269,7.089001,1.808918,7.651921,2.810823,8.38864,-0.02060696,-0.4953299,1.354026,0.3944386,-0.5075011,1.370061,0.1932572,0.2847548,1.405621,-0.06368537,-0.4893138,1.35845,0.3556198,-0.4984244,1.355679,0.1805744,-0.1468284,1.43419,0.1834754,-0.4481986,1.412607,0.01227238,0.01894608,1.423514,0.1048333,-0.4394978,1.386836,-0.02389866,-0.2306556,1.410005,0.3994631,-0.2381559,1.420111,NA,NA,NotTracked,NotTracked,
-0.9692383,0.2011719,0.1401367,0.9370117,0.2246094,0.0004882813,-2,-1,-1,-1,0,0,0,-3,-5,-1,-3,-3,-2,-6,-1,-11,0.375,0.375,0.375,2.75,2.75,2.75,6.450251,7.089206,1.808832,7.638375,2.818056,8.408393,-0.02021036,-0.496426,1.354303,0.3942339,-0.507338,1.369252,0.1934586,0.2847262,1.405724,-0.06277374,-0.4876051,1.360579,0.3549922,-0.4999149,1.354267,0.180756,-0.1468418,1.434123,0.1836958,-0.4482138,1.412405,0.01242761,0.01890411,1.423533,0.1050485,-0.4395275,1.386635,-0.023859,-0.2306887,1.410094,0.3995585,-0.2382067,1.420058,NA,NA,NotTracked,NotTracked,
-0.9765625,0.1987305,0.1435547,0.9819336,0.2075195,-0.00390625,0,0,-2,-1,0,0,1,3,1,0,0,1,-1,0,-8,1,-0.625,-0.625,-0.625,2.0625,2.0625,2.0625,6.449906,7.088831,1.8096,7.640184,2.828649,8.409535,-0.01951084,-0.4958088,1.354094,0.3945383,-0.5080163,1.367008,0.1936261,0.2848261,1.405814,-0.06199567,-0.4898831,1.359551,0.354879,-0.4978347,1.352179,0.1808742,-0.1468816,1.43413,0.1837783,-0.4482851,1.412326,0.01252657,0.01886358,1.423593,0.105125,-0.4395742,1.386572,-0.02375686,-0.230765,1.410084,0.3998025,-0.2383643,1.419876,NA,NA,NotTracked,NotTracked,
-0.9760742,0.1992188,0.1430664,0.9418945,0.2124023,0.02392578,-3,-1,-1,-2,-1,-1,-3,-1,-4,-8,-5,-3,-1,3,8,-1,-2,-2,-2,4.75,4.75,4.75,6.451792,7.089337,1.811877,7.590011,2.848085,8.467334,-0.01973868,-0.4960331,1.354797,0.3943148,-0.505714,1.362804,0.1937753,0.2848367,1.406077,-0.06143124,-0.4867333,1.358174,0.3553987,-0.4987584,1.353401,0.1809537,-0.1468841,1.434191,0.1837819,-0.4483149,1.412335,0.01258583,0.01872351,1.423745,0.1051401,-0.4395911,1.386576,-0.02371624,-0.2307527,1.410227,0.3999897,-0.2381148,1.419362,NA,NA,NotTracked,NotTracked,
-0.96875,0.1992188,0.144043,1.040527,0.2973633,-0.2509766,-1,0,1,-1,-1,-2,-1,-1,-4,-1,-11,0,5,-1,1,-6,-2,-2,-2,-34.25,-34.25,-34.25,6.452825,7.087945,1.818767,7.557219,2.87991,8.482533,-0.01988682,-0.4959655,1.354795,0.3927584,-0.5026945,1.356406,0.1939221,0.2848468,1.406231,-0.06205316,-0.4905975,1.359067,0.3552287,-0.4998908,1.352512,0.1810403,-0.1468664,1.434248,0.183789,-0.448301,1.412232,0.01274383,0.01874041,1.424015,0.1051454,-0.4396019,1.386526,-0.0236164,-0.2307084,1.410438,0.4001175,-0.2373841,1.418152,NA,NA,NotTracked,NotTracked,
-0.9770508,0.2026367,0.140625,1.189941,0.4326172,-0.2094727,-1,-2,-1,-3,-4,-1,-3,1,-28,-65,-41,-23,-9,-11,-33,-29,-1.9375,-1.9375,-1.9375,-60.625,-60.625,-60.625,6.455119,7.086906,1.823391,7.355916,2.999415,8.615431,-0.01880075,-0.4957411,1.353813,0.3827586,-0.4889251,1.3338,0.1940459,0.2847994,1.406586,-0.0611621,-0.4887159,1.357905,0.3500256,-0.4783278,1.334609,0.181032,-0.1468831,1.434243,0.1835697,-0.4483847,1.412064,0.01283471,0.01870895,1.424321,0.1049289,-0.4396633,1.386392,-0.02347165,-0.2308089,1.410638,0.403699,-0.2309589,1.416177,NA,NA,NotTracked,NotTracked,
-0.984375,0.2119141,0.125,1.100098,0.9873047,0.3701172,0,-1,-2,-1,2,-1,-4,-2,-28,-42,-45,-42,-12,-9,-4,-12,-9.625,-9.625,-9.625,21.25,21.25,21.25,6.453613,7.08292,1.831556,6.993453,3.421668,8.997828,-0.0194817,-0.4960482,1.354143,0.3568484,-0.4355635,1.269803,0.1941026,0.2848757,1.406801,-0.06128282,-0.4890868,1.357738,0.3294765,-0.463603,1.279857,0.1807981,-0.1468175,1.43407,0.1819697,-0.4481277,1.411437,0.01298616,0.01881428,1.4246,0.1032303,-0.4390956,1.385759,-0.02341991,-0.2306089,1.410765,0.4156265,-0.2106699,1.41482,NA,NA,NotTracked,NotTracked,
-0.9697266,0.1923828,0.1704102,0.5844727,1.10498,0.3886719,0,-1,-1,-2,-2,-1,0,0,-1,-45,-22,-14,-2,8,2,5,0.1875,0.1875,0.1875,65.75,65.75,65.75,6.440034,7.080235,1.832193,6.959492,3.946488,9.171562,-0.01989568,-0.4958018,1.354193,0.3194636,-0.3148746,1.210273,0.1942705,0.2849374,1.407073,-0.06205667,-0.4901419,1.35991,0.2845341,-0.3509193,1.248722,0.180312,-0.1466246,1.433865,0.1785725,-0.4473694,1.41038,0.01311375,0.01881891,1.424648,0.09991123,-0.437931,1.38526,-0.02334411,-0.2304721,1.410945,0.4393415,-0.1730208,1.403046,NA,NA,NotTracked,Unknown,
-0.9692383,0.2241211,0.1762695,0.3134766,0.9638672,0.3120117,-1,0,-1,0,0,0,-2,-2,-14,-22,-18,-2,0,4,16,5,9.1875,9.1875,9.1875,134,134,134,6.459405,7.08178,1.835163,7.103379,4.671031,9.354371,-0.02002941,-0.4958529,1.354564,0.3166831,-0.1636128,1.177409,0.1945137,0.2850819,1.407385,-0.06190623,-0.4894406,1.357885,0.2835654,-0.1867193,1.201909,0.1797967,-0.1462234,1.433968,0.1768773,-0.4465002,1.410061,0.01343419,0.01899344,1.424608,0.09830356,-0.437012,1.385273,-0.02329958,-0.2300703,1.410999,0.470546,-0.1519066,1.385032,NA,NA,NotTracked,Unknown,
-0.9970703,0.2128906,0.1259766,-0.1108398,1.008789,0.2636719,1,-2,0,-1,1,0,0,0,8,-4,-6,-4,-4,1,-6,0,23.0625,23.0625,23.0625,167.6875,167.6875,167.6875,6.50138,7.079872,1.846659,7.27572,5.02178,9.457033,-0.02077711,-0.4920031,1.350553,0.3094779,-0.0291114,1.181379,0.1954761,0.2852404,1.408015,-0.06382383,-0.4882689,1.356204,0.2813452,-0.04406579,1.23075,0.1794418,-0.1458049,1.433974,0.1764185,-0.4459587,1.409616,0.01936024,0.01899798,1.428169,0.09785768,-0.4365807,1.385028,-0.02321223,-0.2288243,1.410586,0.5172927,-0.09624507,1.29565,NA,NA,NotTracked,Unknown,
-0.9833984,0.222168,0.1118164,-0.1621094,0.7631836,0.1899414,0,-3,0,0,0,-1,-7,-3,-6,-12,-10,-4,1,-3,-7,-11,15.75,15.75,15.75,157.75,157.75,157.75,6.537403,7.072971,1.86048,7.683342,5.571286,9.671477,-0.02063945,-0.4907442,1.346533,0.2985482,0.08411798,1.191018,0.1955587,0.2854429,1.408532,-0.06276152,-0.4870118,1.3555,0.2631935,0.08989456,1.238364,0.1783555,-0.1457893,1.433779,0.1749653,-0.4469891,1.408985,0.01980751,0.0195173,1.426704,0.09589136,-0.4376067,1.385768,-0.02306328,-0.2277269,1.410187,0.5283346,-0.09474716,1.311059,NA,NA,NotTracked,Unknown,
-0.9663086,0.1953125,0.1425781,-0.07568359,0.4428711,0.08935547,-1,0,-2,-1,-5,-2,-5,-1,2,-3,-10,-5,-6,-9,9,-2,-2.875,-2.875,-2.875,80.5,80.5,80.5,6.53992,7.057698,1.861758,7.995825,5.836001,9.841958,-0.02065151,-0.4822828,1.344718,0.295529,0.1501477,1.206772,0.1958713,0.286252,1.408899,-0.06173633,-0.48322,1.354378,0.2668871,0.1409114,1.261625,0.1786074,-0.1426277,1.432976,0.1723378,-0.4406121,1.407322,0.02115375,0.02082461,1.425377,0.09236185,-0.4303173,1.384665,-0.02237083,-0.216662,1.408413,0.5353972,-0.05550835,1.289486,NA,NA,NotTracked,Unknown,
-0.9545898,0.2236328,0.1333008,-0.06005859,0.4638672,-0.01171875,1,-2,-3,-1,3,-1,-2,-2,-6,3,3,2,-6,-10,12,3,2,2,2,8.8125,8.8125,8.8125,6.548922,7.047883,1.855365,8.080635,5.782316,9.924841,-0.02048428,-0.480455,1.346016,0.2906011,0.1688349,1.213907,0.1956305,0.2862676,1.409121,-0.05874857,-0.4793457,1.34764,0.2710945,0.1464987,1.262294,0.1804413,-0.1407288,1.433937,0.1711247,-0.4364482,1.406347,0.02566825,0.02061315,1.43006,0.09105668,-0.4262957,1.384328,-0.02225998,-0.211397,1.40786,0.5364165,-0.02609875,1.274513,NA,NA,NotTracked,Unknown,
-0.96875,0.2299805,0.1108398,-0.1630859,0.581543,-0.1054688,-1,-2,0,1,0,0,-2,0,0,-9,-1,3,4,4,-11,0,-11.875,-11.875,-11.875,-58.5,-58.5,-58.5,6.537158,7.053567,1.850308,8.040983,5.550296,0.003107053,-0.02053091,-0.4813351,1.347919,0.2824612,0.1439499,1.216065,0.1952085,0.2879555,1.409171,-0.06082188,-0.4879153,1.354,0.244004,0.141597,1.2656,0.1810275,-0.140125,1.434205,0.1705962,-0.4353118,1.405954,0.02540383,0.02144385,1.429822,0.09040494,-0.4251516,1.384328,-0.02225714,-0.2106021,1.407834,0.5442,-0.02116518,1.281158,NA,NA,NotTracked,Unknown,
-0.9604492,0.2299805,0.1142578,-0.4755859,1.387207,-0.550293,-2,-1,-1,-2,-1,1,-3,0,11,34,7,-2,-3,-1,6,-9,-20.625,-20.625,-20.625,-41.6875,-41.6875,-41.6875,6.525072,7.055544,1.849378,7.92082,5.254977,0.05801706,-0.02090382,-0.4821115,1.348853,0.2665193,0.09891687,1.225962,0.1934624,0.2884747,1.409533,-0.05906932,-0.4750658,1.353853,0.2867365,0.1333522,1.24475,0.1809495,-0.1404185,1.434084,0.1697279,-0.4369844,1.405518,0.02300478,0.02228433,1.428407,0.08936913,-0.4268914,1.3854,-0.02236521,-0.2124117,1.408342,0.5469635,-0.02131402,1.283398,NA,NA,NotTracked,Unknown,
-0.9560547,0.2197266,0.1660156,-0.4511719,1.272461,-0.527832,0,0,-2,-2,1,-2,-3,-2,-12,-2,-7,-8,-6,-9,-5,-21,-24.25,-24.25,-24.25,21.75,21.75,21.75,6.483651,7.056563,1.851466,7.941518,5.326017,0.06529833,-0.02123947,-0.4842701,1.347751,0.2622306,0.09075462,1.230202,0.1913399,0.288739,1.409525,-0.06135343,-0.4858731,1.35239,0.237264,0.08945604,1.271625,0.1766129,-0.1419604,1.429992,0.1685877,-0.4396993,1.404971,0.02032621,0.02251058,1.427733,0.08845266,-0.4295149,1.386433,-0.02253313,-0.2158102,1.40824,0.513841,-0.007930697,1.241932,NA,NA,NotTracked,Unknown,
-0.9589844,0.2290039,0.1640625,-0.3051758,0.9023438,-0.2724609,-1,-2,-1,0,0,0,-2,0,-2,2,-3,-1,-17,-6,12,12,-2.4375,-2.4375,-2.4375,66.0625,66.0625,66.0625,6.481464,7.045342,1.888619,8.034331,5.524527,0.0451443,-0.02106325,-0.4833943,1.345304,0.2713828,0.1242474,1.225806,0.1909765,0.289014,1.409414,-0.0615321,-0.4816642,1.349509,0.2885484,0.1493683,1.250667,0.1771692,-0.1420679,1.430383,0.1682387,-0.4398363,1.404576,0.0195362,0.02295204,1.427231,0.0880471,-0.4295691,1.386136,-0.02286135,-0.2164366,1.408222,0.5150034,0.007995427,1.241859,NA,NA,NotTracked,Unknown,
-0.9643555,0.2094727,0.1621094,-0.1762695,0.6635742,-0.1416016,1,0,-1,0,-1,0,0,0,-4,0,4,4,1,-11,-26,-8,13.875,13.875,13.875,40.3125,40.3125,40.3125,6.508185,7.037642,1.89791,8.111002,5.673908,0.03612909,-0.02274101,-0.4822777,1.342967,0.2748002,0.1552375,1.225044,0.1908839,0.2896657,1.40881,-0.0629679,-0.4780918,1.352912,0.2470168,0.1396069,1.272143,0.17808,-0.1412542,1.430971,0.167762,-0.4382052,1.403685,0.01962423,0.02318839,1.426328,0.08741933,-0.427627,1.384774,-0.02317517,-0.2140162,1.407306,0.5151061,0.0107568,1.244193,NA,NA,NotTracked,Unknown,
-0.96875,0.2167969,0.1333008,-0.1557617,0.5722656,-0.1850586,-2,-1,-3,1,2,0,-1,-2,-4,-15,-9,-5,5,-3,8,-12,17.3125,17.3125,17.3125,-43.25,-43.25,-43.25,6.531341,7.040674,1.889004,8.087394,5.615673,0.06092481,-0.02322672,-0.4805677,1.341486,0.2764454,0.1557418,1.227875,0.1906636,0.2900512,1.408285,-0.06253344,-0.4801802,1.347997,0.2594644,0.1234605,1.253177,0.1781388,-0.140129,1.430362,0.167664,-0.4365936,1.402847,0.01962298,0.02259423,1.424319,0.08723663,-0.4260352,1.383584,-0.02377992,-0.2115397,1.406233,0.5134192,0.01622403,1.241961,NA,NA,NotTracked,Unknown,
-0.96875,0.2167969,0.1333008,-0.3852539,1.075684,-0.4858398,-1,-1,-1,0,-1,-1,-1,-1,6,12,6,1,-5,-4,-7,0,17.3125,17.3125,17.3125,-49.1875,-49.1875,-49.1875,6.531341,7.040674,1.889004,8.007937,5.425733,0.07462149,-0.02245881,-0.4809857,1.342083,0.2679246,0.1270337,1.230642,0.1896188,0.2905263,1.407531,-0.06160742,-0.4769616,1.350972,0.3025338,0.1641914,1.2725,0.1767076,-0.1401701,1.429038,0.1673256,-0.4366903,1.402519,0.0187507,0.0230834,1.423953,0.08689976,-0.4260792,1.383282,-0.02397241,-0.2117008,1.405785,0.5140866,0.0155088,1.241467,NA,NA,NotTracked,Lasso,
-0.9941406,0.2382813,0.1386719,-0.5322266,1.182129,-0.5883789,-2,2,0,-2,-1,0,3,0,29,18,7,1,3,4,-11,9,-14.6875,-14.6875,-14.6875,36.875,36.875,36.875,6.461689,7.041338,1.831229,8.040092,5.425336,0.07675753,-0.02256089,-0.4834692,1.341308,0.2655391,0.1134719,1.233418,0.1879501,0.2899565,1.407412,-0.06154776,-0.4842528,1.346412,0.2503487,0.1284128,1.199656,0.1738933,-0.1409417,1.426263,0.1663362,-0.4382909,1.401895,0.0175729,0.02310101,1.423641,0.08598124,-0.4276232,1.383147,-0.02456169,-0.2146925,1.404758,0.516277,0.01283077,1.241501,NA,NA,NotTracked,Unknown,
-0.9770508,0.2260742,0.1694336,-0.3930664,0.8525391,-0.3369141,-1,-1,-1,-1,0,0,-5,-1,4,0,-2,-5,-4,-2,3,-14,-12.75,-12.75,-12.75,67.5625,67.5625,67.5625,6.465023,7.039482,1.851044,8.148045,5.617662,0.06259465,-0.02276601,-0.4835111,1.341475,0.2697823,0.139994,1.231701,0.1875774,0.2900375,1.40714,-0.06232558,-0.4805089,1.34737,0.2574193,0.1575819,1.198517,0.1733254,-0.1406965,1.425731,0.1660732,-0.4381142,1.401606,0.01683681,0.02321282,1.423143,0.08570135,-0.4273765,1.382587,-0.02500313,-0.2148761,1.404397,0.5207467,0.01037303,1.246799,NA,NA,NotTracked,Unknown,
-0.9536133,0.2280273,0.1865234,-0.2148438,0.5742188,-0.1484375,-2,-2,-1,0,-2,-3,-3,0,0,-7,-5,-1,-2,-8,-1,9,5.5625,5.5625,5.5625,41.3125,41.3125,41.3125,6.479514,7.039217,1.866481,8.226229,5.777032,0.05498618,-0.02359053,-0.4830095,1.340221,0.2762944,0.1688399,1.234225,0.1874128,0.2898565,1.406821,-0.06298291,-0.4829086,1.346769,0.269369,0.1838397,1.198444,0.1734613,-0.1400228,1.425739,0.1660702,-0.4356932,1.400834,0.01740234,0.02266091,1.421624,0.08583859,-0.4250514,1.381258,-0.02601269,-0.2125278,1.403713,0.5199341,0.02039441,1.245737,NA,NA,NotTracked,Unknown,
-0.9677734,0.2109375,0.1767578,-0.1367188,0.5029297,-0.1499023,0,0,-1,-1,-1,0,0,-1,14,30,29,11,6,-1,7,0,6.875,6.875,6.875,-44.1875,-44.1875,-44.1875,6.493328,7.040441,1.873613,8.200895,5.7499,0.0736455,-0.02396206,-0.481064,1.340086,0.2803705,0.1710708,1.233991,0.1872769,0.2896951,1.406805,-0.06336483,-0.4824867,1.345572,0.2648574,0.1384531,1.271846,0.1761211,-0.1387967,1.427756,0.1658399,-0.4342844,1.400239,0.02082018,0.02157416,1.423494,0.08556937,-0.4236576,1.380568,-0.02658287,-0.209943,1.403402,0.5150831,0.03419997,1.242372,NA,NA,NotTracked,Unknown,
-0.9643555,0.2133789,0.1391602,-0.3579102,0.8881836,-0.4370117,-3,0,-3,-2,-4,-2,-1,-1,-12,-24,-1,-3,-2,-1,23,16,10.0625,10.0625,10.0625,-68.9375,-68.9375,-68.9375,6.512056,7.042788,1.873822,8.060491,5.455907,0.08811183,-0.02311993,-0.4808264,1.341054,0.2713495,0.1372988,1.232753,0.187259,0.2900643,1.406469,-0.06235339,-0.4848685,1.345452,0.2461707,0.1134953,1.2697,0.1768599,-0.1388157,1.428356,0.165835,-0.4343405,1.400036,0.01978269,0.02181656,1.422254,0.08554931,-0.4237191,1.380214,-0.0265755,-0.210082,1.403346,0.517261,0.0158233,1.247593,NA,NA,NotTracked,Lasso,
-0.9799805,0.2431641,0.15625,-0.5175781,1.404785,-0.597168,-2,0,1,-1,-3,0,-1,-2,2,-1,-5,-3,10,18,1,-1,-16.0625,-16.0625,-16.0625,-8.8125,-8.8125,-8.8125,6.46026,7.041595,1.835005,8.001001,5.390429,0.03926461,-0.02268705,-0.4838536,1.341459,0.2644289,0.112179,1.233669,0.1868263,0.2898483,1.406545,-0.06172132,-0.482023,1.345438,0.2863831,0.1625043,1.28074,0.1760648,-0.1396188,1.427485,0.1656211,-0.4360344,1.400062,0.01878736,0.02224846,1.422273,0.0853019,-0.4256618,1.380709,-0.02662501,-0.2139446,1.403431,0.5166369,0.008730426,1.248437,NA,NA,NotTracked,Unknown,
-0.980957,0.2382813,0.184082,-0.46875,1.054199,-0.4453125,-2,-1,0,-2,0,0,-1,-1,15,3,3,-1,-3,-12,-7,8,-8.6875,-8.6875,-8.6875,44.125,44.125,44.125,6.45651,7.04086,1.853307,8.039983,5.562032,9.982309,-0.02275132,-0.4837362,1.342445,0.2716882,0.1349792,1.22764,0.186912,0.2900621,1.406419,-0.06173683,-0.4827741,1.351883,0.2457355,0.1249175,1.2708,0.1750593,-0.1398185,1.426549,0.1655737,-0.4363174,1.400038,0.0181495,0.02231892,1.421496,0.08522306,-0.4260121,1.380745,-0.02663224,-0.2145031,1.403451,0.5179799,0.005511769,1.251106,NA,NA,NotTracked,Unknown,
-0.9345703,0.2285156,0.1889648,-0.3046875,0.6435547,-0.1879883,-1,-1,0,0,1,2,2,0,1,-5,-7,-2,0,-3,-1,13,5.625,5.625,5.625,45.625,45.625,45.625,6.458967,7.043512,1.853127,8.136991,5.797576,9.941323,-0.02363406,-0.4833227,1.341643,0.2888594,0.1640478,1.230345,0.1870556,0.289987,1.406339,-0.06442903,-0.4948123,1.349316,0.2609825,0.1431187,1.277786,0.1772753,-0.13902,1.42835,0.165786,-0.4353175,1.399914,0.02236492,0.02150654,1.427146,0.08548551,-0.4250022,1.380223,-0.02648864,-0.2125643,1.403113,0.5170082,0.0207204,1.248873,NA,NA,NotTracked,Lasso,
-0.9487305,0.2084961,0.1816406,-0.2236328,0.5405273,-0.159668,-1,0,-2,-1,-4,-3,-3,-1,-4,-7,-6,-6,-22,-6,0,-1,19.5625,19.5625,19.5625,1.25,1.25,1.25,6.484091,7.045557,1.851684,8.153846,5.799622,9.927747,-0.02315289,-0.4799452,1.33878,0.2896387,0.1753229,1.233974,0.1871933,0.2895361,1.406427,-0.06227082,-0.4863933,1.342327,0.2688461,0.153762,1.291263,0.1784659,-0.1381771,1.42929,0.1658403,-0.4334987,1.399618,0.02472001,0.02129376,1.428912,0.08550787,-0.4230828,1.379473,-0.02629674,-0.2102675,1.4023,0.5235648,0.02466994,1.258273,NA,NA,NotTracked,Unknown,
-0.9804688,0.1899414,0.121582,-0.2587891,0.6157227,-0.2114258,-1,-1,-1,0,-1,0,0,-2,-6,-12,-12,-9,-6,-9,-18,-13,6.1875,6.1875,6.1875,-44.6875,-44.6875,-44.6875,6.513188,7.039839,1.84673,8.083795,5.665225,9.89616,-0.02233722,-0.478945,1.337511,0.2907932,0.1566545,1.226837,0.1874415,0.2893751,1.406832,-0.06045995,-0.4839509,1.337386,0.2594573,0.146781,1.273133,0.1793995,-0.1377283,1.429899,0.1661759,-0.4328284,1.399476,0.02412155,0.02140967,1.426464,0.08583849,-0.4225114,1.379054,-0.02582061,-0.2091839,1.401872,0.5523987,-0.01721519,1.297652,NA,NA,NotTracked,Lasso,
-0.9633789,0.2392578,0.1362305,-0.2236328,0.8071289,-0.2436523,-1,1,-2,-2,-2,-2,-2,-1,-2,-4,-3,-6,0,5,15,2,-6.0625,-6.0625,-6.0625,-98.4375,-98.4375,-98.4375,6.489313,7.029974,1.818354,7.87887,5.379214,9.808348,-0.0210971,-0.4797248,1.338453,0.2817396,0.1200435,1.220535,0.187753,0.2896597,1.407104,-0.05964885,-0.4909117,1.345091,0.2549568,0.1193883,1.266,0.1780612,-0.1379047,1.428897,0.1661237,-0.4335518,1.399728,0.02387721,0.02192843,1.42798,0.08580642,-0.423165,1.379448,-0.02561096,-0.2096565,1.401896,0.5516146,-0.02123834,1.298056,NA,NA,NotTracked,Unknown,
-0.9604492,0.2333984,0.1518555,-0.002929688,0.987793,0.046875,-2,-1,0,-2,-6,-2,-2,0,5,2,2,5,3,-7,-23,-2,-17.4375,-17.4375,-17.4375,-100.625,-100.625,-100.625,6.469437,7.029054,1.814151,7.708563,5.165712,9.719215,-0.02111872,-0.4847324,1.339415,0.2867845,0.06046837,1.213316,0.1875502,0.2895419,1.40739,-0.06075807,-0.4785517,1.349739,0.2635064,0.05647329,1.282,0.1758427,-0.1395616,1.428259,0.1663351,-0.4383284,1.400482,0.02027611,0.0218795,1.426356,0.08624855,-0.4284691,1.381618,-0.02424866,-0.2168425,1.402023,0.5645163,-0.05050687,1.327511,NA,NA,NotTracked,Unknown,
-0.9614258,0.2412109,0.1547852,-0.03955078,0.9013672,0.01611328,-1,-2,-2,-1,1,-1,2,-2,-1,-2,-6,-4,-1,4,-3,-4,-19.1875,-19.1875,-19.1875,-134.5625,-134.5625,-134.5625,6.460665,7.029766,1.816567,7.479413,4.959456,9.638222,-0.02035445,-0.4869068,1.340124,0.2968185,0.003892337,1.206428,0.1878327,0.289228,1.40782,-0.05944346,-0.4825486,1.351553,0.2817088,-0.0199409,1.261286,0.1755777,-0.140292,1.428496,0.1669956,-0.4402406,1.401166,0.01859343,0.02161777,1.425384,0.08733945,-0.4308093,1.382653,-0.02348251,-0.2211604,1.402621,0.5251858,-0.05952414,1.302456,NA,NA,NotTracked,Unknown,
-0.9663086,0.2202148,0.1728516,0.1591797,0.9516602,0.1538086,0,-2,-1,0,-5,-1,-2,-1,0,-1,-2,-1,1,-3,3,2,-1.625,-1.625,-1.625,-138.5625,-138.5625,-138.5625,6.434811,7.048071,1.825152,7.231441,4.60778,9.479417,-0.01985147,-0.4897536,1.341508,0.3053847,-0.06640901,1.201817,0.18817,0.2889934,1.40781,-0.05902592,-0.4888056,1.348564,0.2808522,-0.08080133,1.25575,0.1756071,-0.140561,1.428567,0.1681189,-0.4408175,1.401607,0.01752068,0.02143298,1.424865,0.08880788,-0.4315903,1.382352,-0.02337401,-0.2224868,1.402868,0.515372,-0.08494432,1.33297,NA,NA,NotTracked,Unknown,
-0.9667969,0.2177734,0.1635742,0.2114258,0.7485352,0.3979492,-2,-2,0,-1,-1,0,-1,0,9,6,3,1,0,-3,-14,0,-2.4375,-2.4375,-2.4375,-66.9375,-66.9375,-66.9375,6.429513,7.050285,1.822503,7.082549,4.305987,9.366293,-0.01904625,-0.490229,1.343309,0.3286387,-0.1560068,1.198087,0.188415,0.2888451,1.407765,-0.05694803,-0.4970866,1.348556,0.3083576,-0.1920785,1.222572,0.1757128,-0.141033,1.428694,0.1688399,-0.4415013,1.402063,0.01663366,0.02088529,1.424459,0.089709,-0.4322528,1.382207,-0.02313671,-0.2235102,1.403322,0.5559356,-0.09027309,1.389458,NA,NA,NotTracked,Unknown,
-0.9697266,0.2246094,0.1606445,0.2724609,1.009277,0.1865234,-1,-1,-1,0,-3,0,-2,-1,10,4,3,-5,-1,2,8,11,-6.75,-6.75,-6.75,-22.6875,-22.6875,-22.6875,6.419749,7.050999,1.821328,7.076097,3.974843,9.280441,-0.0179566,-0.490764,1.343097,0.3473697,-0.2570474,1.212669,0.188642,0.288621,1.407619,-0.05874363,-0.4884904,1.348393,0.3347422,-0.2305161,1.191367,0.1756717,-0.1415065,1.428814,0.1689935,-0.4420905,1.402472,0.01636758,0.02080318,1.424383,0.08989507,-0.4326039,1.382181,-0.02287246,-0.2243618,1.403735,0.5303256,-0.1091096,1.402635,NA,NA,NotTracked,Unknown,
-0.9697266,0.2246094,0.1606445,1.019531,0.6542969,0.2592773,0,-1,-3,0,1,-1,0,-1,-3,1,0,2,-1,-3,-3,-8,-6.75,-6.75,-6.75,-51,-51,-51,6.419749,7.050999,1.821328,7.122112,3.466989,9.124893,-0.01749556,-0.4912021,1.344552,0.3579458,-0.3773588,1.270615,0.1890919,0.2882691,1.407457,-0.05783787,-0.4880304,1.350034,0.3291791,-0.4148383,1.305221,0.1758143,-0.1421503,1.42884,0.1699233,-0.4433021,1.402782,0.01590524,0.02025208,1.423974,0.09080128,-0.4334761,1.381688,-0.02262231,-0.2250426,1.403935,0.4622338,-0.1567763,1.41637,NA,NA,NotTracked,NotTracked,
-0.980957,0.2241211,0.1601563,1.115723,0.5131836,0.1386719,0,-1,0,-1,0,1,-2,-1,-9,-13,-15,-8,-5,-4,11,-25,11,11,11,-29.375,-29.375,-29.375,6.434788,7.051056,1.825415,7.294503,3.108069,8.857292,-0.01672765,-0.4931273,1.342287,0.3932907,-0.4506944,1.303523,0.1900168,0.28789,1.407688,-0.05621438,-0.4927672,1.355455,0.3597885,-0.3997262,1.2865,0.1768055,-0.1433834,1.429174,0.1726905,-0.4456114,1.403802,0.01596112,0.02010182,1.423674,0.09363174,-0.4355654,1.381523,-0.02231304,-0.2258666,1.404042,0.4448375,-0.1897956,1.418828,NA,NA,NotTracked,NotTracked,
-0.9931641,0.2172852,0.1694336,1.437012,0.378418,-0.3330078,-3,-2,0,-1,-4,-3,-1,-1,-1,-2,-3,-1,0,-2,-8,-12,9.3125,9.3125,9.3125,-67.1875,-67.1875,-67.1875,6.456282,7.045669,1.826528,7.832377,2.883356,8.205656,-0.01637262,-0.4916287,1.340322,0.4148284,-0.492691,1.349901,0.1918153,0.2871982,1.407389,-0.0559855,-0.4912639,1.349506,0.3678073,-0.4815589,1.335269,0.1792478,-0.1448182,1.429433,0.1789811,-0.4480411,1.404041,0.0161962,0.01949822,1.42325,0.1003056,-0.4387233,1.380822,-0.02192402,-0.2263351,1.403818,0.4248417,-0.221594,1.418101,NA,NA,NotTracked,NotTracked,
-0.984375,0.2197266,0.1318359,1.117188,0.1782227,-0.4628906,-1,-1,-1,-3,-4,-1,0,-1,3,-1,0,0,2,9,-1,17,6.125,6.125,6.125,-102,-102,-102,6.475569,7.044791,1.83726,8.103354,2.796735,7.761575,-0.01531082,-0.4912238,1.339663,0.4206509,-0.5076929,1.379049,0.1940866,0.2868916,1.407753,-0.05692697,-0.4914286,1.30875,0.3806199,-0.4872847,1.376167,0.1814381,-0.1458634,1.429696,0.1824824,-0.4490151,1.404404,0.0167507,0.01919628,1.42285,0.1037227,-0.439817,1.380625,-0.02139211,-0.2264287,1.403698,0.4150734,-0.2367876,1.418412,NA,NA,NotTracked,NotTracked,
-0.984375,0.2197266,0.1318359,0.8730469,0.3461914,-0.002441406,0,-1,-1,-1,-3,0,-3,0,-6,-4,-2,1,0,-3,3,-14,6.125,6.125,6.125,-23.4375,-23.4375,-23.4375,6.475569,7.044791,1.83726,7.92307,2.782155,7.838036,-0.01458053,-0.4912285,1.340845,0.4098333,-0.5128166,1.386278,0.1966765,0.2865418,1.408009,-0.05465316,-0.4890762,1.348305,0.3763334,-0.5341429,1.333667,0.1827434,-0.1461653,1.430037,0.1840481,-0.4491278,1.404994,0.01742124,0.01906147,1.422433,0.1051486,-0.4399468,1.38061,-0.02071491,-0.2268554,1.403675,0.4117282,-0.2410611,1.42231,NA,NA,NotTracked,NotTracked,
-0.9819336,0.2177734,0.1713867,0.9589844,0.2504883,-0.01464844,0,-2,-1,10,28,5,0,0,-1,0,0,0,0,3,0,-5,2.25,2.25,2.25,-24.8125,-24.8125,-24.8125,6.4619,7.054452,1.829545,7.759232,2.808524,7.957909,-0.01441152,-0.4919643,1.341804,0.4060921,-0.5141901,1.384742,0.1985686,0.2864083,1.408044,-0.05395558,-0.4860321,1.350492,0.3677645,-0.4967119,1.371611,0.1841614,-0.146193,1.4304,0.1857359,-0.4487961,1.405656,0.02125503,0.01924838,1.425734,0.106842,-0.4397832,1.38065,-0.02000353,-0.2271592,1.403758,0.4101421,-0.2424137,1.425145,NA,NA,NotTracked,NotTracked,
-0.9853516,0.2529297,0.1538086,0.9560547,0.215332,-0.009765625,-4,-1,-1,-5,-14,-2,0,-1,-2,0,-2,-3,-2,0,-3,-1,-1.1875,-1.1875,-1.1875,40.75,40.75,40.75,6.48068,7.056665,1.849906,7.761711,2.816539,7.988271,-0.01358664,-0.491808,1.343089,0.4064592,-0.5141059,1.382533,0.2001577,0.2861498,1.408064,-0.05340443,-0.4897368,1.346644,0.3676506,-0.4994024,1.368414,0.1853904,-0.1463482,1.430844,0.1869889,-0.4487692,1.406243,0.02148349,0.01933444,1.424973,0.1080628,-0.4398051,1.381021,-0.01949857,-0.2273057,1.404059,0.4095265,-0.243033,1.42616,NA,NA,NotTracked,NotTracked,
