ALX,ALY,ALZ,ARX,ARY,ARZ,EMG0L,EMG1L,EMG2L,EMG3L,EMG4L,EMG5L,EMG6L,EMG7L,EMG0R,EMG1R,EMG2R,EMG3R,EMG4R,EMG5R,EMG6R,EMG7R,GLX,GLY,GLZ,GRX,GRY,GRZ,ORL,OPL,OYL,ORR,OPR,OYR,LHNX,LHNY,LHNZ,RHNX,RHNY,RHNZ,HX,HY,HZ,LTX,LTY,LTZ,RTX,RTY,RTZ,SpineMidX,SpineMidY,SpineMidZ,SpineBaseX,SpineBaseY,SpineBaseZ,ShoulderLeftX,ShoulderLeftY,ShoulderLeftZ,ShoulderRightX,ShoulderRightY,ShoulderRightZ,ElbowLeftX,ElbowLeftY,ElbowLeftZ,ElbowRightX,ElbowRightY,ElbowRightZ,Myo_Pose_left,Myo_Pose_Right,Kinect_pose_left,Kinect_pose_right
-0.3979492,0.7636719,0.5175781,0.006835938,0.9838867,0.1669922,0,-2,4,-4,2,-1,1,0,-3,-1,0,-1,-4,0,-3,-5,-4,-4,-4,-2.5625,-2.5625,-2.5625,6.534293,5.616082,1.233644,7.232791,4.990191,9.831197,0.2231191,-0.07296678,1.264261,0.03716586,-0.06429461,1.265289,0.1773402,0.2794115,1.432058,0.1947641,-0.04560781,1.297382,0.07806995,-0.02237049,1.299538,0.1591304,-0.1461764,1.450025,0.1628068,-0.4464751,1.412161,0.007595253,0.01391394,1.385591,0.08366176,-0.4369002,1.381779,-0.01522526,-0.1847823,1.285265,0.3122292,-0.1617187,1.280578,NA,NA,NotTracked,NotTracked,
-0.3950195,0.7773438,0.5292969,0,0.9853516,0.1621094,-1,-8,-4,-3,-1,-2,-5,-2,-16,-12,-6,-4,-6,-3,1,-1,-3.375,-3.375,-3.375,-2.3125,-2.3125,-2.3125,6.530737,5.622626,1.239952,7.230138,4.987685,9.830988,0.2226341,-0.07205369,1.265728,0.03465487,-0.06632582,1.265323,0.1772782,0.2794161,1.431463,0.1946598,-0.04486535,1.297672,0.07430487,-0.02352991,1.299411,0.1588792,-0.1462097,1.449535,0.1626718,-0.4465049,1.411713,0.007289833,0.01382174,1.385068,0.08350358,-0.4369366,1.381354,-0.01543171,-0.1849156,1.284808,0.3110736,-0.1607971,1.278809,NA,NA,NotTracked,NotTracked,
-0.3842773,0.7700195,0.5327148,-0.001464844,0.987793,0.1577148,0,2,0,4,-4,-1,1,-4,19,0,-3,17,0,-1,-3,1,-2.5,-2.5,-2.5,-0.5625,-0.5625,-0.5625,6.526142,5.621183,1.241387,7.22804,4.99198,9.832402,0.2220507,-0.07243484,1.265474,0.06613335,-0.06272569,1.267425,0.1773144,0.2794283,1.430995,0.1943378,-0.04498412,1.297802,0.09810793,-0.01926807,1.29756,0.1587895,-0.1461743,1.449121,0.1626616,-0.4464629,1.411343,0.00709006,0.01375647,1.384753,0.08349204,-0.4369123,1.381056,-0.01598321,-0.1850468,1.284733,0.3109858,-0.1607866,1.278722,NA,NA,NotTracked,NotTracked,
-0.3828125,0.7758789,0.5380859,0.01123047,0.9780273,0.1621094,0,0,5,4,-13,1,-4,2,-20,-3,1,-7,-5,-5,-1,-3,-0.25,-0.25,-0.25,0.75,0.75,0.75,6.52643,5.615383,1.242293,7.227679,4.993545,9.833254,0.2222567,-0.07135269,1.265927,0.05076425,-0.06442213,1.265015,0.1772543,0.2794798,1.430671,0.1960747,-0.04471841,1.296795,0.08667704,-0.02097697,1.296919,0.1586574,-0.1460886,1.448781,0.1625146,-0.4463928,1.410986,0.006814959,0.01388674,1.384748,0.0833675,-0.4368697,1.38078,-0.01575195,-0.1848026,1.284336,0.3106884,-0.1612777,1.279116,NA,NA,NotTracked,NotTracked,
-0.3950195,0.765625,0.5166016,0.015625,0.9853516,0.1601563,1,6,14,10,22,3,1,2,18,4,-4,6,0,-2,11,-10,1.25,1.25,1.25,1,1,1,6.531626,5.612678,1.242863,7.229741,4.992457,9.833755,0.2248375,-0.0750205,1.264497,0.05050832,-0.06438974,1.265087,0.1769969,0.2795634,1.430315,0.208478,-0.04464507,1.29671,0.08770847,-0.02322042,1.296076,0.1585874,-0.1461162,1.448529,0.1624923,-0.4463937,1.410745,0.006673083,0.01372922,1.38443,0.08334075,-0.4368898,1.380435,-0.0157718,-0.1850444,1.284177,0.3104953,-0.161307,1.279039,NA,NA,NotTracked,NotTracked,
-0.3964844,0.7685547,0.5166016,0.01171875,0.9814453,0.1660156,-3,-7,-15,-6,-3,-2,-2,3,27,4,-2,-1,-4,2,3,9,2.5625,2.5625,2.5625,-1.4375,-1.4375,-1.4375,6.535444,5.614713,1.24018,7.228572,4.991354,9.832884,0.2249609,-0.07552725,1.264584,0.05682705,-0.06409962,1.266324,0.1768961,0.2795807,1.430094,0.2048861,-0.04471519,1.297372,0.09256556,-0.0231651,1.29529,0.1584523,-0.1461946,1.448302,0.1623645,-0.4464526,1.410558,0.00669234,0.01371094,1.384288,0.08320154,-0.4369327,1.380208,-0.01576309,-0.1850801,1.284076,0.309358,-0.1614361,1.27881,NA,NA,NotTracked,NotTracked,
-0.3837891,0.7783203,0.5229492,-0.005371094,0.9833984,0.1655273,-1,-3,-13,-7,-11,-4,-4,3,-13,0,-3,4,2,-2,3,-17,1.5,1.5,1.5,-1.125,-1.125,-1.125,6.538905,5.616934,1.23788,7.226655,4.990689,9.831141,0.2245782,-0.07619993,1.263895,0.06456641,-0.06472459,1.267006,0.1768261,0.2796122,1.429959,0.2019581,-0.04503811,1.297256,0.09675872,-0.02257402,1.296028,0.1584186,-0.1461682,1.448214,0.1623014,-0.4464306,1.410474,0.006040683,0.01390466,1.384445,0.08315994,-0.4369108,1.380174,-0.01583865,-0.1847658,1.283815,0.3090434,-0.1613565,1.278527,NA,NA,NotTracked,NotTracked,
-0.3837891,0.7822266,0.5307617,-0.01953125,0.9970703,0.15625,-2,-2,-5,-6,-9,-1,-1,0,20,3,-4,-5,-5,-2,-1,4,4.1875,4.1875,4.1875,2.9375,2.9375,2.9375,6.543612,5.617256,1.232865,7.231915,4.985896,9.833214,0.226332,-0.07600912,1.264468,0.06600203,-0.06444388,1.266605,0.1768081,0.279632,1.429986,0.2053787,-0.04401492,1.297417,0.09927834,-0.02133245,1.295666,0.1584282,-0.1461495,1.448153,0.162298,-0.4464178,1.410385,0.005976911,0.01382616,1.384265,0.08315421,-0.4368938,1.3801,-0.01556671,-0.1846303,1.283073,0.3091398,-0.1615854,1.278948,NA,NA,NotTracked,NotTracked,
-0.409668,0.7768555,0.5239258,-0.05761719,1.050781,0.1640625,-1,2,4,-2,-5,3,-2,-3,14,17,2,1,-3,-5,-15,11,6.0625,6.0625,6.0625,8.125,8.125,8.125,6.551429,5.617592,1.226317,7.244687,4.985849,9.837899,0.2251947,-0.07526729,1.264078,0.06745902,-0.06511257,1.266736,0.1768066,0.279727,1.43004,0.2039257,-0.04492442,1.297315,0.1140312,-0.0226217,1.293933,0.1583936,-0.1461235,1.44804,0.1622639,-0.4464287,1.410253,0.006019188,0.0137418,1.384148,0.0831312,-0.4369036,1.380001,-0.01551468,-0.1846582,1.282828,0.308939,-0.1615514,1.278922,NA,NA,NotTracked,NotTracked,
-0.3896484,0.7749023,0.4980469,-0.199707,1.138184,0.1835938,-3,5,21,11,0,-3,0,-1,6,-4,-4,-2,3,-1,-2,-2,5.8125,5.8125,5.8125,21.1875,21.1875,21.1875,6.561467,5.617488,1.222037,7.270197,5.00103,9.852371,0.2250841,-0.07271647,1.261179,0.05768608,-0.05879596,1.248754,0.1768095,0.2797985,1.430122,0.2035793,-0.04444206,1.296907,0.09600115,-0.03705227,1.284833,0.1583754,-0.146037,1.447991,0.1622764,-0.4462413,1.410129,0.005371518,0.01493363,1.384982,0.08315492,-0.4367211,1.379903,-0.01492357,-0.1831165,1.282584,0.3087402,-0.1610143,1.278443,NA,NA,NotTracked,NotTracked,
-0.3623047,0.78125,0.4975586,-0.1889648,0.9453125,0.1342773,-3,7,4,9,10,9,0,1,-11,2,0,-11,2,3,6,-6,-3.5,-3.5,-3.5,68.625,68.625,68.625,6.561221,5.61806,1.217285,7.369893,5.030046,9.9479,0.2271979,-0.06898119,1.249925,0.05410644,-0.05804735,1.265221,0.1768789,0.2798159,1.430452,0.202682,-0.03959566,1.296068,0.1066887,-0.01418289,1.294306,0.1584239,-0.1458994,1.447945,0.1624456,-0.4458956,1.409946,0.006215674,0.01465135,1.383567,0.08333773,-0.4364609,1.37985,-0.01554825,-0.1827463,1.280077,0.3076766,-0.1562321,1.280026,NA,NA,NotTracked,NotTracked,
-0.4277344,0.828125,0.5458984,0.3740234,0.8481445,-0.01855469,0,1,-10,-3,-8,-3,-2,-3,0,10,2,-5,-1,4,-6,22,-0.875,-0.875,-0.875,136.5625,136.5625,136.5625,6.546404,5.622807,1.191721,7.58389,5.007491,0.07055314,0.2268009,-0.05942491,1.236947,0.05268254,-0.05346759,1.249267,0.1770356,0.2798109,1.430907,0.1989525,-0.02603716,1.289,0.07713192,-0.03355199,1.273375,0.1585944,-0.1455294,1.447961,0.1628285,-0.4451566,1.409997,0.01184635,0.01509761,1.381892,0.08382142,-0.4358355,1.379999,-0.02130807,-0.1807538,1.278453,0.301982,-0.1471189,1.279666,NA,NA,NotTracked,NotTracked,
-0.4448242,0.6235352,0.574707,0.3413086,0.984375,-0.1811523,1,2,-1,-5,-2,-6,-3,4,-6,-7,-14,0,-6,-11,-3,3,-9.875,-9.875,-9.875,9.4375,9.4375,9.4375,6.517406,5.625175,1.179974,7.673142,4.967054,0.119577,0.2023721,-0.04833914,1.228602,0.1473938,-0.0552805,1.239576,0.1773574,0.2798339,1.431405,0.173157,-0.02495686,1.242458,0.1843789,-0.03057258,1.2222,0.1587116,-0.1451322,1.447939,0.1631265,-0.4447006,1.410037,0.01281257,0.01498793,1.381333,0.0841276,-0.4354976,1.380096,-0.02372429,-0.1806579,1.278739,0.2811166,-0.2346507,1.295925,NA,NA,NotTracked,NotTracked,
-0.3876953,0.8017578,0.4829102,0.2695313,0.8051758,-0.05566406,1,15,34,22,14,0,-9,0,5,5,-7,22,15,-2,2,-3,-4.25,-4.25,-4.25,6.5625,6.5625,6.5625,6.524988,5.616386,1.201239,7.672688,4.957454,0.1216883,0.1978205,-0.0427801,1.225583,0.1462226,-0.04762986,1.236538,0.1776771,0.2799879,1.431849,0.1647345,-0.01770901,1.246778,0.184718,-0.02039276,1.220259,0.1589653,-0.1448621,1.44799,0.1632399,-0.4445949,1.410138,0.01201731,0.01458168,1.380603,0.08421092,-0.435471,1.380269,-0.02403821,-0.1815232,1.278819,0.2840835,-0.2325513,1.299111,NA,NA,NotTracked,NotTracked,
-0.4008789,0.7797852,0.5229492,0.206543,0.9331055,-0.04785156,1,8,14,3,1,-4,3,2,-16,8,-12,-22,-7,-1,0,-1,6.875,6.875,6.875,-12.3125,-12.3125,-12.3125,6.532141,5.621277,1.201609,7.666439,4.9453,0.1010231,0.1928525,-0.0428398,1.226237,0.1500712,-0.04567289,1.235655,0.1777956,0.2799788,1.432229,0.151903,-0.02290768,1.232611,0.1569234,-0.01956196,1.248727,0.1592312,-0.1446702,1.448047,0.163478,-0.4444408,1.410358,0.01576436,0.01450906,1.379656,0.08436046,-0.4353981,1.380355,-0.02315578,-0.1829339,1.282098,0.2830065,-0.233379,1.298271,NA,NA,NotTracked,NotTracked,
-0.378418,0.7753906,0.5161133,0.1254883,0.9560547,0.007324219,-5,-9,-19,-11,-13,-5,-4,-1,8,26,21,29,13,5,2,7,2.5,2.5,2.5,-18.8125,-18.8125,-18.8125,6.542916,5.624571,1.196105,7.630267,4.922261,0.06792387,0.19446,-0.0454214,1.233016,0.1508636,-0.04717203,1.240261,0.1777855,0.2799741,1.432393,0.1931623,-0.02294677,1.2464,0.1783794,-0.02670816,1.234357,0.1594106,-0.1445128,1.448229,0.1638143,-0.4442102,1.410676,0.01559776,0.01415214,1.379265,0.08470241,-0.4352013,1.38051,-0.02042858,-0.1842821,1.282755,0.2839079,-0.2304774,1.300943,NA,NA,NotTracked,NotTracked,
-0.4008789,0.7666016,0.4995117,0.1318359,1.021484,0.004394531,-1,0,-5,1,-4,-1,-7,-6,18,16,-9,-12,-7,0,0,5,6.6875,6.6875,6.6875,-44.75,-44.75,-44.75,6.54996,5.621309,1.197448,7.570402,4.906299,0.004938729,0.2451913,-0.05905079,1.235382,0.1308881,-0.05611853,1.269239,0.1777697,0.2799879,1.432471,0.2168045,-0.02704674,1.296882,0.1450767,-0.01147426,1.301825,0.1596002,-0.1445046,1.448364,0.1641111,-0.4441748,1.410871,0.01714421,0.01378555,1.379077,0.08508787,-0.4351389,1.380557,-0.01946452,-0.1853275,1.28445,0.3503294,-0.09293757,1.22684,NA,NA,NotTracked,NotTracked,
-0.4243164,0.7583008,0.5209961,-0.04931641,1.02832,0.09277344,-7,-4,7,-2,-3,-1,1,1,-1,-6,-9,7,8,0,-12,16,-15.4375,-15.4375,-15.4375,-37.75,-37.75,-37.75,6.532104,5.609103,1.210064,7.482211,4.931508,9.853868,0.2079156,-0.05538667,1.254316,0.1032011,-0.0410164,1.279746,0.1777657,0.2800066,1.432485,0.1856218,-0.02591384,1.301826,0.1199259,0.005719203,1.309782,0.1597755,-0.1445132,1.448439,0.1644312,-0.4442216,1.411069,0.01922367,0.01370217,1.379556,0.08544752,-0.4351024,1.380579,-0.01929283,-0.1857135,1.286553,0.36767,-0.09616443,1.236489,NA,NA,NotTracked,NotTracked,
-0.390625,0.7700195,0.5332031,-0.4516602,1.077148,0.05224609,2,-5,-18,-1,6,1,-7,-5,-13,-8,-5,-26,23,8,-2,-2,-1.875,-1.875,-1.875,-30.9375,-30.9375,-30.9375,6.522654,5.600304,1.226327,7.422646,4.965419,9.757375,0.1849953,-0.04955876,1.253826,0.1368825,-0.05136049,1.256649,0.177707,0.2800707,1.432423,0.1560615,-0.02989218,1.266625,0.1412804,-0.0256056,1.272,0.1600174,-0.1445313,1.44846,0.1644859,-0.4443032,1.41112,0.02080932,0.0139346,1.380498,0.08546823,-0.4350826,1.380589,-0.01935022,-0.185536,1.288439,0.398918,-0.1010267,1.252563,NA,NA,NotTracked,NotTracked,
-0.3393555,0.8081055,0.5478516,-0.3544922,1.044434,-0.01611328,4,2,7,6,12,0,-10,-9,2,0,3,-12,-6,-4,-13,7,3.75,3.75,3.75,5.5,5.5,5.5,6.529994,5.600091,1.221736,7.416688,5.008645,9.709436,0.1828632,-0.05074264,1.257127,0.1786483,-0.0541238,1.261365,0.1776437,0.280068,1.432218,0.1564476,-0.03055147,1.266369,0.199341,-0.03439661,1.277385,0.1601437,-0.1446542,1.448488,0.1646867,-0.4445362,1.411232,0.0217496,0.0141836,1.381115,0.0855822,-0.4351582,1.380566,-0.01953702,-0.1851517,1.28929,0.4077576,-0.1037414,1.258371,NA,NA,NotTracked,NotTracked,
-0.3422852,0.7695313,0.5473633,-0.168457,1.11084,-0.03320313,-1,3,12,2,-3,0,1,3,10,-18,-5,1,1,-4,0,7,4.5,4.5,4.5,15.0625,15.0625,15.0625,6.530676,5.600934,1.217855,7.442192,5.047793,9.707849,0.2188625,-0.0591473,1.254332,0.1855181,-0.05593952,1.259123,0.1779293,0.2801181,1.432007,0.2025158,-0.03781111,1.263083,0.2000285,-0.03527078,1.280077,0.1605863,-0.1447384,1.448471,0.1650831,-0.4446826,1.411289,0.02193514,0.01425119,1.381773,0.08600284,-0.4352185,1.380389,-0.01947388,-0.1848217,1.289356,0.4109446,-0.1046083,1.260084,NA,NA,NotTracked,NotTracked,
-0.4345703,0.7470703,0.550293,-0.2680664,1.22168,-0.02050781,0,-6,-23,-4,7,0,10,-10,3,0,3,1,2,1,0,7,1.4375,1.4375,1.4375,-4.9375,-4.9375,-4.9375,6.543559,5.607837,1.193421,7.455833,5.113345,9.705914,0.2321909,-0.05564098,1.255328,0.1339072,-0.05149695,1.265201,0.1783222,0.2801562,1.432111,0.2234871,-0.02711344,1.305743,0.1451652,-0.008749327,1.303348,0.161127,-0.1447759,1.448509,0.1655472,-0.4446803,1.411307,0.02304176,0.01428349,1.381715,0.08662596,-0.4351144,1.380148,-0.0185126,-0.1847188,1.28919,0.4089171,-0.104714,1.259648,NA,NA,NotTracked,NotTracked,
-0.362793,0.7636719,0.4887695,-0.1040039,1.189453,0.2011719,6,15,24,11,9,3,10,0,20,7,-2,-2,-4,2,15,26,3.375,3.375,3.375,-28.75,-28.75,-28.75,6.547968,5.604533,1.192815,7.414094,5.185231,9.724594,0.1828685,-0.03211617,1.234793,0.1726277,-0.03698369,1.236213,0.1787694,0.2800761,1.432276,0.1550129,-0.009763272,1.240231,0.1692131,-0.02054862,1.2153,0.1626971,-0.1448365,1.448538,0.1664549,-0.4447544,1.411398,0.02443805,0.01432741,1.381127,0.08764773,-0.4351392,1.379988,-0.01821862,-0.1848123,1.289518,0.3918207,-0.1028351,1.24962,NA,NA,NotTracked,NotTracked,
-0.3764648,0.7905273,0.4990234,-0.09130859,0.9165039,0.2597656,-4,-5,-5,0,-2,-4,-4,-13,6,3,1,-1,-1,2,19,26,-2.6875,-2.6875,-2.6875,-56.625,-56.625,-56.625,6.553974,5.601143,1.199267,7.318799,5.307812,9.896268,0.06817162,0.002746536,1.23364,0.1549281,-0.01455958,1.228428,0.1800691,0.2798067,1.432806,0.03010817,0.02705155,1.223864,0.152646,0.0001829233,1.202,0.1633633,-0.1450136,1.448817,0.1674599,-0.4451108,1.411473,0.02656222,0.01467053,1.379468,0.08868036,-0.4354702,1.379384,-0.01752491,-0.1849011,1.289725,0.3708839,-0.09488239,1.235853,NA,NA,NotTracked,NotTracked,
-0.3867188,0.7978516,0.5,-0.09619141,0.8569336,0.1743164,-9,-11,-22,-2,10,-1,-5,-3,-23,-9,0,1,2,-1,-56,-26,-5.75,-5.75,-5.75,57.625,57.625,57.625,6.549261,5.606344,1.195553,7.375178,5.415632,0.03598808,0.124036,0.1229913,1.225457,0.1331545,0.01619134,1.234323,0.181017,0.2795859,1.433061,0.06903217,0.147833,1.23304,0.1751257,0.01554503,1.204826,0.1643087,-0.1451906,1.448851,0.1689295,-0.4458121,1.411485,0.03113359,0.01432541,1.372156,0.08999985,-0.4362245,1.377994,-0.01822866,-0.1869515,1.290405,0.3510407,-0.08274408,1.22018,NA,NA,NotTracked,NotTracked,
-0.3935547,0.793457,0.5283203,0.1733398,0.6923828,0.07666016,1,-2,-3,-7,-1,-2,-2,-3,7,-1,0,2,-1,3,21,28,1.5,1.5,1.5,6.1875,6.1875,6.1875,6.542715,5.611402,1.18369,7.436682,5.413548,0.1819063,0.009063514,0.09857475,1.278064,0.05642211,0.06560379,1.263896,0.1819659,0.2795353,1.432941,-0.02709012,0.09985523,1.286428,0.07080179,0.02378599,1.299909,0.1653489,-0.1448627,1.44868,0.1703709,-0.4454883,1.411495,0.03422501,0.01591878,1.345534,0.09124838,-0.4362144,1.376539,-0.01687205,-0.1928868,1.294538,0.3090811,-0.06973854,1.198175,NA,NA,NotTracked,NotTracked,
-0.4277344,0.7529297,0.5234375,0.06591797,0.8354492,-0.05664063,-3,-2,-8,-7,0,1,4,-2,12,-8,-12,-13,0,1,5,61,6.8125,6.8125,6.8125,11.0625,11.0625,11.0625,6.547995,5.616457,1.173355,7.519598,5.253724,0.3102081,0.0003489321,0.09993979,1.300671,0.1143702,0.03049091,1.255335,0.1825649,0.2796558,1.43283,-0.03784541,0.1221783,1.305,0.1139067,-0.003373636,1.278053,0.1659842,-0.1439165,1.448291,0.1709371,-0.4442439,1.411412,0.03477029,0.02324716,1.345644,0.09135939,-0.4351861,1.376062,-0.0134087,-0.1864962,1.29564,0.2885208,-0.06288517,1.188126,NA,NA,NotTracked,NotTracked,
-0.4277344,0.7529297,0.5234375,-0.004882813,0.8393555,-0.03222656,-2,-3,-13,-6,4,-2,-2,0,-5,5,1,-1,6,10,35,-7,6.8125,6.8125,6.8125,7.875,7.875,7.875,6.547995,5.616457,1.173355,7.538782,5.084295,0.3260317,0.03364669,0.2017551,1.291347,0.02636571,0.0432372,1.290186,0.1830539,0.2797713,1.432725,-0.004583437,0.2222304,1.294222,0.04846112,-0.0003700599,1.308,0.1669081,-0.1431471,1.448124,0.1716458,-0.4434726,1.411521,0.03459665,0.0215223,1.353676,0.09193151,-0.4345539,1.376598,-0.01308971,-0.1862783,1.293321,0.282328,-0.05509173,1.188345,NA,NA,NotTracked,NotTracked,
-0.3847656,0.7729492,0.5317383,0.04052734,0.9047852,-0.1323242,2,-5,-2,-2,1,-2,-3,6,-11,-7,-5,-5,-8,-15,-14,-35,6.25,6.25,6.25,-19.0625,-19.0625,-19.0625,6.552492,5.626581,1.162377,7.526544,4.943077,0.2779326,-0.00300838,0.04856098,1.307149,0.06554676,-0.01324715,1.282898,0.1832818,0.2797984,1.432723,-0.03461202,0.05572326,1.2814,0.1033715,0.02689598,1.3251,0.1674148,-0.1426826,1.448071,0.1718061,-0.4432101,1.411599,0.0337152,0.01974813,1.361334,0.0919829,-0.4341034,1.377749,-0.01346247,-0.1857159,1.291245,0.2786782,-0.05035853,1.187822,NA,NA,NotTracked,NotTracked,
-0.3842773,0.765625,0.5361328,0.2304688,0.9140625,-0.009765625,-1,3,11,4,0,-1,-1,-1,4,2,1,6,7,-4,-5,-13,4.6875,4.6875,4.6875,-31.5625,-31.5625,-31.5625,6.55428,5.626671,1.161645,7.484319,4.767095,0.1272156,0.2168379,-0.01330842,1.217022,0.07602931,-0.02556464,1.271614,0.1835694,0.2797855,1.432824,0.2195027,0.01303543,1.243125,0.119807,0.01276445,1.31551,0.167502,-0.142492,1.448093,0.171726,-0.442873,1.4117,0.0323735,0.01854383,1.365875,0.09181257,-0.4335082,1.379082,-0.01309144,-0.1855098,1.2897,0.285056,-0.05645238,1.188974,NA,NA,NotTracked,NotTracked,
-0.3999023,0.7460938,0.5253906,0.09814453,1.058105,0.1445313,3,-2,-4,-8,-8,-3,-1,3,0,5,4,3,3,3,6,16,-0.0625,-0.0625,-0.0625,-45.8125,-45.8125,-45.8125,6.555074,5.625775,1.164095,7.438569,4.627204,0.0007347648,0.215958,-0.04004598,1.217332,0.08964695,-0.06023286,1.259391,0.1835881,0.2797465,1.433003,0.1812568,-0.01917771,1.2874,0.1126061,-0.1074473,1.289382,0.1675794,-0.1422189,1.44829,0.1713903,-0.4420741,1.412047,0.03013085,0.01815245,1.373389,0.09147485,-0.4323935,1.38122,-0.01356818,-0.1823608,1.285738,0.2969122,-0.06644654,1.194519,NA,NA,NotTracked,NotTracked,
-0.3999023,0.7460938,0.5253906,0.4399414,1.199219,0.07910156,5,6,6,6,-3,-3,-1,0,15,4,-2,-2,-5,-6,-4,9,-0.0625,-0.0625,-0.0625,-42.8125,-42.8125,-42.8125,6.555074,5.625775,1.164095,7.398741,4.504257,9.883593,0.2282871,-0.06103242,1.214085,0.01720495,-0.1060341,1.25323,0.1835684,0.2797458,1.43312,0.2258806,-0.02674321,1.248071,0.06104358,-0.05770792,1.296677,0.1677001,-0.1418931,1.448512,0.1712928,-0.4406782,1.412451,0.02782731,0.02030478,1.382611,0.09172159,-0.4310043,1.382515,-0.01158935,-0.176558,1.283807,0.3068226,-0.07446162,1.202419,NA,NA,NotTracked,NotTracked,
-0.3999023,0.7460938,0.5253906,0.4511719,1.151855,0.1054688,2,1,8,5,3,0,5,-13,10,1,0,0,2,0,-3,70,-0.0625,-0.0625,-0.0625,-33.5625,-33.5625,-33.5625,6.555074,5.625775,1.164095,7.341454,4.442093,9.824107,0.2352942,-0.07866185,1.215313,0.09954545,-0.1101802,1.239526,0.1834875,0.279735,1.43321,0.2274613,-0.04178489,1.239952,0.1084533,-0.1630549,1.267328,0.1677188,-0.1415702,1.448801,0.1708854,-0.4396115,1.412853,0.01836462,0.02325692,1.395305,0.09156968,-0.4299858,1.383527,-0.01037043,-0.1700957,1.285249,0.3104142,-0.0834709,1.210061,NA,NA,NotTracked,NotTracked,
-0.340332,0.75,0.6000977,0.1860352,0.9887695,0.06835938,-10,0,6,-1,1,-4,1,6,-5,-2,-1,-3,-6,-6,2,-20,5.8125,5.8125,5.8125,-23.1875,-23.1875,-23.1875,6.529892,5.600084,1.203466,7.292114,4.486739,9.816978,0.2365456,-0.08534823,1.217171,0.09891081,-0.1134575,1.240946,0.18313,0.2795334,1.433405,0.2204466,-0.05148707,1.24193,0.1231568,-0.07096904,1.284827,0.167638,-0.1413709,1.448934,0.1704381,-0.4387808,1.412996,0.01872333,0.02308721,1.396501,0.09132617,-0.4292655,1.384068,-0.01153538,-0.1697957,1.28599,0.3122723,-0.09143315,1.217131,NA,NA,NotTracked,NotTracked,
-0.3696289,0.8706055,0.5092773,0.3916016,0.9418945,0.1157227,-2,1,9,3,-8,-4,-2,0,8,4,-2,-1,1,11,16,51,-9.875,-9.875,-9.875,-0.1875,-0.1875,-0.1875,6.546417,5.603372,1.206912,7.284544,4.475085,9.812311,0.2371396,-0.08815644,1.218089,0.03662826,-0.1301695,1.227207,0.182913,0.2795354,1.433431,0.2478504,-0.052888,1.191708,0.03033385,-0.1740618,1.246639,0.1675513,-0.1412255,1.449036,0.1701671,-0.4383346,1.413124,0.01732559,0.02287359,1.397515,0.09119672,-0.4288826,1.384409,-0.01189137,-0.1697277,1.286161,0.3125274,-0.09408814,1.219249,NA,NA,NotTracked,NotTracked,
-0.4067383,0.7319336,0.5136719,0.296875,0.9335938,0.1401367,-3,2,6,13,9,0,5,10,2,-2,-5,-4,1,-4,2,33,-1.5,-1.5,-1.5,-1.375,-1.375,-1.375,6.530338,5.604028,1.207612,7.278158,4.481658,9.809323,0.237686,-0.0886066,1.219187,0.03711325,-0.1307385,1.228009,0.1825739,0.2795126,1.433711,0.2483484,-0.05481346,1.19156,0.04089298,-0.1739675,1.24926,0.1675431,-0.1409765,1.449205,0.1698763,-0.4375938,1.413447,0.01506178,0.02399646,1.400041,0.09109066,-0.4281568,1.384976,-0.01185548,-0.1680596,1.287013,0.3124454,-0.09582552,1.220785,NA,NA,NotTracked,NotTracked,
-0.3925781,0.7993164,0.5200195,0.3032227,0.9199219,0.121582,-2,-1,-2,3,-1,-1,0,1,4,1,1,-1,2,11,-2,-1,5.125,5.125,5.125,7.75,7.75,7.75,6.540925,5.6069,1.20569,7.288651,4.484124,9.807594,0.2369338,-0.08825069,1.219324,0.03792358,-0.1305231,1.227711,0.1824576,0.279538,1.433855,0.2476977,-0.05386457,1.190927,0.03540949,-0.1736882,1.247901,0.167613,-0.140806,1.449529,0.1697929,-0.4372882,1.413718,0.01768391,0.02289204,1.397564,0.09109174,-0.4278281,1.385408,-0.01257503,-0.169948,1.286984,0.312582,-0.09909045,1.223037,NA,NA,NotTracked,NotTracked,
-0.3852539,0.7729492,0.5302734,0.3061523,0.9067383,0.1079102,-1,-6,-16,-11,-8,-2,6,-1,0,-5,-6,-7,-1,1,8,2,-1.375,-1.375,-1.375,1.875,1.875,1.875,6.539058,5.607145,1.205325,7.297788,4.486123,9.809286,0.2371207,-0.0878816,1.220297,0.0373305,-0.1300344,1.22845,0.1821304,0.2794403,1.434457,0.2138772,-0.0584984,1.242273,0.03710207,-0.1732899,1.248547,0.1675301,-0.1405675,1.449884,0.1695234,-0.43677,1.414163,0.01499427,0.02392865,1.400315,0.09095277,-0.4273766,1.385914,-0.01258566,-0.1684394,1.288061,0.3124653,-0.09946039,1.223159,NA,NA,NotTracked,NotTracked,
-0.3916016,0.7641602,0.5146484,0.3154297,0.9345703,0.121582,1,2,2,4,8,-3,-2,-3,1,1,0,3,5,11,1,-15,-3.5625,-3.5625,-3.5625,0.375,0.375,0.375,6.535354,5.607758,1.206486,7.301974,4.485768,9.808394,0.2808409,-0.07377571,1.227256,0.03753818,-0.1306397,1.22835,0.181883,0.2793595,1.434813,0.2679206,-0.03884065,1.214275,0.04386942,-0.1726398,1.250327,0.1675297,-0.1403791,1.450168,0.1694303,-0.4364022,1.414486,0.01425692,0.02441627,1.40144,0.09094855,-0.4270052,1.386303,-0.0126133,-0.1677922,1.288694,0.3122908,-0.09941675,1.223294,NA,NA,NotTracked,NotTracked,
-0.3862305,0.7705078,0.5141602,0.331543,0.9394531,0.1210938,-1,3,9,6,3,-2,-1,1,-4,-2,-1,0,2,3,-2,-14,-1.4375,-1.4375,-1.4375,1.125,1.125,1.125,6.532927,5.60849,1.208128,7.304287,4.486982,9.807397,0.2367873,-0.08821145,1.219785,0.03692755,-0.1307788,1.228043,0.1817742,0.2793299,1.435212,0.2466613,-0.05405984,1.1921,0.03231068,-0.1742175,1.248482,0.1674524,-0.1402084,1.450532,0.1692957,-0.4361078,1.414819,0.01337913,0.02497606,1.402697,0.09087749,-0.426733,1.386728,-0.01274619,-0.166979,1.28928,0.3121689,-0.09946003,1.22354,NA,NA,NotTracked,NotTracked,
-0.3779297,0.7695313,0.534668,0.2905273,0.9501953,0.1010742,2,4,7,13,-1,3,-2,2,-2,-2,-1,3,2,-11,-10,16,-2.8125,-2.8125,-2.8125,0.25,0.25,0.25,6.529665,5.607014,1.208095,7.305929,4.489732,9.803224,0.2355017,-0.08814105,1.221122,0.03751379,-0.1305253,1.229674,0.181834,0.2794094,1.435516,0.246682,-0.05407095,1.19209,0.02759877,-0.1735682,1.251005,0.1674558,-0.1400918,1.450913,0.16932,-0.4359765,1.415041,0.01731366,0.02372635,1.399234,0.09092541,-0.4266179,1.387068,-0.01351197,-0.1689616,1.288532,0.3122244,-0.09950583,1.223453,NA,NA,NotTracked,NotTracked,
-0.3901367,0.7827148,0.5131836,0.2895508,0.9326172,0.08935547,-2,0,1,-3,-8,0,2,-1,5,-1,-3,-4,-5,-4,8,-1,0.875,0.875,0.875,3.0625,3.0625,3.0625,6.531196,5.607329,1.207469,7.313532,4.503464,9.793629,0.2346601,-0.08733763,1.221176,0.0372238,-0.1290654,1.229414,0.1819202,0.2794449,1.435642,0.2169995,-0.05550028,1.241518,0.02550169,-0.1730816,1.251755,0.1674997,-0.1401253,1.451336,0.1694332,-0.4360801,1.415354,0.02025735,0.02223784,1.396175,0.09106512,-0.426748,1.387418,-0.01410628,-0.1710567,1.287839,0.3122543,-0.09959767,1.223549,NA,NA,NotTracked,NotTracked,
-0.3847656,0.7885742,0.5249023,0.3310547,0.909668,0.09960938,-1,-6,-2,-4,-6,-3,-4,-7,1,3,2,2,4,6,-2,-5,2.625,2.625,2.625,0.0625,0.0625,0.0625,6.534225,5.607696,1.204654,7.318075,4.509077,9.789026,0.233463,-0.08729232,1.221187,0.03772823,-0.129123,1.229649,0.1821865,0.2795373,1.435834,0.2192306,-0.05302611,1.239789,0.0275088,-0.1733337,1.251477,0.1674917,-0.1401431,1.451603,0.1694915,-0.436136,1.41552,0.02177123,0.02143954,1.394446,0.09112011,-0.4268083,1.387563,-0.01453706,-0.1721903,1.287497,0.3123943,-0.09968238,1.223717,NA,NA,NotTracked,NotTracked,
-0.3842773,0.7416992,0.5288086,0.2983398,0.9243164,0.1000977,0,3,8,1,4,-1,-3,-4,2,2,1,0,3,-1,1,-4,1.4375,1.4375,1.4375,-3.8125,-3.8125,-3.8125,6.531473,5.610559,1.203022,7.315709,4.514099,9.788077,0.2335929,-0.08763657,1.220797,0.03746169,-0.1291575,1.229411,0.1822378,0.2794697,1.436023,0.218043,-0.05387653,1.240775,0.03031606,-0.173602,1.250185,0.1674871,-0.1401955,1.451774,0.1695114,-0.4362103,1.41568,0.020044,0.02108898,1.395312,0.09114926,-0.4269016,1.387653,-0.01438095,-0.1723066,1.287213,0.3124076,-0.09964252,1.223884,NA,NA,NotTracked,NotTracked,
-0.3779297,0.7680664,0.5229492,0.2988281,0.9414063,0.1108398,7,7,13,3,-7,-4,1,-1,0,0,0,1,2,6,4,0,-1.75,-1.75,-1.75,-2.4375,-2.4375,-2.4375,6.532379,5.611239,1.202018,7.311588,4.510277,9.785198,0.2338723,-0.08860246,1.221939,0.03807424,-0.1292596,1.229733,0.1823014,0.2794068,1.436206,0.2459428,-0.05422173,1.193512,0.03203018,-0.1736,1.249946,0.1676229,-0.1402419,1.452125,0.1696641,-0.436329,1.416082,0.02132698,0.02065346,1.394077,0.09131933,-0.4270314,1.388052,-0.01470101,-0.1730576,1.287199,0.3124249,-0.09979405,1.224131,NA,NA,NotTracked,NotTracked,
