ALX,ALY,ALZ,ARX,ARY,ARZ,EMG0L,EMG1L,EMG2L,EMG3L,EMG4L,EMG5L,EMG6L,EMG7L,EMG0R,EMG1R,EMG2R,EMG3R,EMG4R,EMG5R,EMG6R,EMG7R,GLX,GLY,GLZ,GRX,GRY,GRZ,ORL,OPL,OYL,ORR,OPR,OYR,LHNX,LHNY,LHNZ,RHNX,RHNY,RHNZ,HX,HY,HZ,LTX,LTY,LTZ,RTX,RTY,RTZ,SpineMidX,SpineMidY,SpineMidZ,SpineBaseX,SpineBaseY,SpineBaseZ,ShoulderLeftX,ShoulderLeftY,ShoulderLeftZ,ShoulderRightX,ShoulderRightY,ShoulderRightZ,ElbowLeftX,ElbowLeftY,ElbowLeftZ,ElbowRightX,ElbowRightY,ElbowRightZ,Myo_Pose_left,Myo_Pose_Right,Kinect_pose_left,Kinect_pose_right
-0.496582,0.7402344,0.4819336,0.02441406,0.9775391,0.1708984,-2,-6,-21,-5,-4,-3,-5,-3,7,4,-1,-8,-4,0,-1,25,1.875,1.875,1.875,-2.5625,-2.5625,-2.5625,6.558259,5.80359,0.7368879,7.221289,4.963482,9.387429,0.3009503,-0.07997506,1.262553,0.09708438,-0.0602953,1.231822,0.2061413,0.2793367,1.429116,0.2615449,-0.0462114,1.310151,0.05830387,-0.1069681,1.235,0.1824341,-0.1367354,1.446999,0.1920476,-0.4328333,1.413404,0.03741211,0.01718004,1.35437,0.1148049,-0.4227554,1.371788,0.04622449,-0.1825924,1.253659,0.3688589,-0.1181747,1.277048,NA,NA,NotTracked,NotTracked,
-0.4970703,0.7304688,0.4799805,0.03173828,0.9882813,0.1655273,-5,-6,5,-1,1,-3,-3,0,-1,-8,-12,5,0,-6,-13,-14,-1.875,-1.875,-1.875,-2,-2,-2,6.559388,5.802989,0.739863,7.219731,4.959545,9.390524,0.3009365,-0.07988282,1.263001,0.09518084,-0.06114804,1.231724,0.2053439,0.2792312,1.42882,0.2621889,-0.04575038,1.310388,0.05863883,-0.1071477,1.237145,0.1821679,-0.1368009,1.446877,0.1918056,-0.4329298,1.413338,0.03709618,0.01712066,1.354306,0.1145525,-0.4228717,1.371707,0.04596738,-0.1827066,1.253725,0.3676037,-0.1181034,1.276651,NA,NA,NotTracked,NotTracked,
-0.4887695,0.7373047,0.4873047,0.02246094,0.9819336,0.1713867,1,1,-1,-4,-18,-4,-4,0,12,-8,3,4,0,-4,-9,6,-1.8125,-1.8125,-1.8125,-2.125,-2.125,-2.125,6.558086,5.801813,0.7450253,7.21588,4.959109,9.393909,0.3010437,-0.07991102,1.263101,0.09430166,-0.06074874,1.231616,0.2046745,0.2792324,1.428506,0.2616982,-0.04607965,1.31035,0.05860015,-0.1070574,1.236233,0.1818142,-0.1369372,1.446699,0.1914978,-0.433058,1.413195,0.03677063,0.0170687,1.35422,0.1142308,-0.4230223,1.371534,0.04540463,-0.1828723,1.253873,0.3670412,-0.1180376,1.276343,NA,NA,NotTracked,NotTracked,
-0.4887695,0.7441406,0.4814453,0.02832031,0.9853516,0.1733398,2,3,12,1,-2,0,-2,0,-2,3,-1,-1,2,3,-4,8,-0.6875,-0.6875,-0.6875,-1.125,-1.125,-1.125,6.559703,5.800914,0.7494932,7.215359,4.957885,9.396789,0.2649865,-0.07686331,1.259588,0.09298582,-0.06152884,1.231878,0.2036972,0.2789715,1.428386,0.2328844,-0.04027826,1.306611,0.07483114,-0.1091577,1.246721,0.1815269,-0.1370162,1.446571,0.191113,-0.4331538,1.413141,0.0364894,0.01702848,1.354121,0.113858,-0.4231285,1.371533,0.04425864,-0.1829557,1.253787,0.3663213,-0.117966,1.275943,NA,NA,NotTracked,NotTracked,
-0.4985352,0.7412109,0.4833984,0.02246094,0.9853516,0.1743164,-2,-9,-30,-17,4,-3,-5,-5,5,1,4,8,5,-1,-7,19,-0.0625,-0.0625,-0.0625,-1.75,-1.75,-1.75,6.560973,5.801197,0.7526016,7.212488,4.956633,9.398632,0.2934777,-0.07818946,1.262934,0.0924383,-0.06158533,1.232399,0.2031474,0.2789939,1.428053,0.2539375,-0.04193917,1.311635,0.05619452,-0.1098335,1.236385,0.1810768,-0.1371256,1.446499,0.190777,-0.4332064,1.413067,0.03621048,0.01696208,1.353994,0.1135365,-0.4232015,1.37153,0.04380386,-0.1831298,1.25389,0.3658926,-0.1179835,1.275884,NA,NA,NotTracked,NotTracked,
-0.5014648,0.7397461,0.4775391,0.02880859,0.9770508,0.1811523,6,1,-1,-1,4,6,-2,-2,-10,-13,-14,-6,-2,2,0,0,-1.125,-1.125,-1.125,-2.25,-2.25,-2.25,6.563409,5.80164,0.7561127,7.207914,4.952532,9.401639,0.2675358,-0.07755729,1.259654,0.09178602,-0.06204138,1.232223,0.202549,0.2790121,1.427924,0.2374625,-0.04110438,1.308038,0.06454948,-0.1095944,1.241666,0.1807643,-0.1371979,1.446455,0.1903673,-0.4332522,1.413032,0.03577549,0.01698899,1.354003,0.1131502,-0.4232429,1.371566,0.04329436,-0.1832199,1.254158,0.3652683,-0.1178699,1.275577,NA,NA,NotTracked,NotTracked,
-0.4892578,0.7348633,0.484375,0.03125,0.9926758,0.1899414,5,6,-3,4,8,0,1,-3,7,-6,-10,-9,-7,-2,2,2,-0.125,-0.125,-0.125,-0.6875,-0.6875,-0.6875,6.562881,5.800915,0.7587042,7.206418,4.947955,9.405288,0.2413215,0.02419219,1.215647,0.09072901,-0.06293055,1.231942,0.2016084,0.2790466,1.427891,0.2115692,0.05957153,1.26406,0.06154542,-0.1095584,1.239374,0.1803275,-0.1371876,1.446397,0.1901483,-0.433305,1.412999,0.03549301,0.01691543,1.353883,0.1129247,-0.4233037,1.371618,0.04244806,-0.1834249,1.25429,0.3640534,-0.1177709,1.275095,NA,NA,NotTracked,NotTracked,
-0.4936523,0.7382813,0.480957,0.04150391,0.9916992,0.1806641,1,-4,-10,-5,0,-2,-1,-3,0,5,-1,-5,-2,-2,-1,-1,-1.8125,-1.8125,-1.8125,0.9375,0.9375,0.9375,6.561355,5.800849,0.7581884,7.20962,4.94124,9.41683,0.2417454,0.02348665,1.215671,0.09039891,-0.06311152,1.232175,0.2008075,0.278956,1.427644,0.2116224,0.0594295,1.264055,0.05470578,-0.1103598,1.233273,0.1798866,-0.1372344,1.446285,0.1897411,-0.4333569,1.412965,0.03519733,0.01682518,1.353791,0.1125211,-0.4233535,1.37169,0.04218473,-0.1834905,1.254146,0.3634383,-0.1176846,1.274544,NA,NA,NotTracked,NotTracked,
-0.4931641,0.7392578,0.4780273,0.02197266,0.9887695,0.1791992,-9,0,5,5,0,-4,3,14,-1,-3,-3,-11,-7,-6,-2,-21,0.3125,0.3125,0.3125,2.875,2.875,2.875,6.566079,5.799661,0.7610454,7.212336,4.942017,9.426963,0.2422086,0.02192542,1.215364,0.0895922,-0.0629519,1.232769,0.2002015,0.2788944,1.427117,0.2118182,0.05875053,1.263946,0.05549843,-0.1100757,1.234087,0.1795745,-0.1372686,1.446212,0.1894584,-0.4333896,1.412959,0.03494376,0.01681283,1.353742,0.1121994,-0.4234086,1.37174,0.04112081,-0.1835293,1.254092,0.3626471,-0.1174031,1.273855,NA,NA,NotTracked,NotTracked,
-0.4980469,0.7583008,0.4726563,-0.02783203,1.038574,0.1699219,-5,2,10,0,3,3,-3,1,-16,-11,-6,-6,-1,0,0,-7,-1.5625,-1.5625,-1.5625,12.5,12.5,12.5,6.567227,5.799749,0.7640716,7.226573,4.945933,9.44025,0.2423319,0.02151125,1.215533,0.08767584,-0.06313514,1.232902,0.199228,0.2786544,1.42667,0.2118955,0.05848483,1.263985,0.05782624,-0.1102406,1.235775,0.1793595,-0.1373379,1.446107,0.1892113,-0.4334522,1.412923,0.03476101,0.01681475,1.353684,0.1119495,-0.423472,1.371848,0.04082857,-0.1835578,1.254095,0.3610822,-0.1168472,1.272697,NA,NA,NotTracked,NotTracked,
-0.4936523,0.7578125,0.4716797,-0.1801758,0.9702148,0.1762695,-1,0,-2,-7,1,-3,-1,-1,-13,0,2,-17,4,0,-2,-5,16.125,16.125,16.125,21.0625,21.0625,21.0625,6.583153,5.805073,0.7576603,7.267487,4.973695,9.462743,0.2685329,-0.04604523,1.267453,0.0724544,-0.07639885,1.23557,0.1988985,0.2786974,1.426562,0.2497147,-0.04518373,1.257727,0.06440199,-0.1373639,1.234214,0.1791226,-0.1373667,1.446109,0.1890153,-0.4334149,1.412918,0.03444139,0.01691862,1.353755,0.1116739,-0.423445,1.372082,0.04013536,-0.1831827,1.253518,0.3572259,-0.115513,1.270336,NA,NA,NotTracked,NotTracked,
-0.4692383,0.7167969,0.4916992,-0.01318359,1.043457,0.1176758,-7,-8,-24,-13,-5,-7,-9,-2,22,0,-3,-16,-5,-9,2,-6,4.3125,4.3125,4.3125,13,13,13,6.599348,5.809837,0.7356716,7.289466,5.026949,9.474211,0.2205,-0.06658094,1.248741,0.08111364,-0.04849507,1.223614,0.1982497,0.2787401,1.426745,0.1825922,-0.02641793,1.29282,0.07956287,-0.06819646,1.184263,0.1787616,-0.1373703,1.446088,0.188738,-0.4333996,1.41292,0.03437603,0.01700669,1.353655,0.1113041,-0.4234473,1.372378,0.03819312,-0.1820483,1.250965,0.3488048,-0.1124787,1.264962,NA,NA,NotTracked,NotTracked,
-0.4863281,0.7036133,0.4897461,-0.06884766,1.083008,0.1040039,-1,0,-1,0,-3,5,-1,-13,-5,-19,-5,6,4,-6,-3,3,-8.625,-8.625,-8.625,24.9375,24.9375,24.9375,6.587905,5.8062,0.7300998,7.32385,5.061169,9.504869,0.2631031,-0.06408608,1.24777,0.06853521,-0.0402276,1.221033,0.1977123,0.2786323,1.426786,0.2297824,-0.02942377,1.298796,0.04648456,-0.008084407,1.2745,0.1783742,-0.1374473,1.446107,0.1885581,-0.4334441,1.412969,0.03437344,0.01708677,1.353535,0.1110105,-0.4235892,1.37277,0.03609079,-0.1807788,1.248204,0.3371404,-0.1074362,1.258041,NA,NA,NotTracked,NotTracked,
-0.5170898,0.7836914,0.453125,0.1806641,0.875,0.1362305,-1,-3,1,1,4,2,-5,-3,-10,-5,4,3,12,2,2,-25,-8.875,-8.875,-8.875,105.9375,105.9375,105.9375,6.577505,5.803236,0.7268653,7.488111,4.99306,9.629975,0.2342707,-0.05177717,1.238607,0.06305482,-0.03607979,1.229552,0.1975318,0.2786758,1.426875,0.1972029,-0.01783684,1.29475,0.03849297,-0.008888738,1.279605,0.177979,-0.1373165,1.446116,0.188288,-0.4333892,1.413079,0.03436062,0.01728401,1.353395,0.110605,-0.4235639,1.373267,0.03038501,-0.1794385,1.245722,0.3281967,-0.1011403,1.250727,NA,NA,NotTracked,NotTracked,
-0.5273438,0.7480469,0.4667969,0.3115234,0.8583984,-0.1450195,2,-4,-2,1,0,2,11,0,-10,-9,-23,-30,-31,-16,-19,-15,1.6875,1.6875,1.6875,31,31,31,6.570404,5.806677,0.7178618,7.585449,4.930116,9.736441,0.2547354,-0.03417518,1.237659,0.06288174,-0.02850427,1.249073,0.1972434,0.2787322,1.426693,0.2328392,-0.003102763,1.295222,0.1041427,-0.01098326,1.287668,0.1776088,-0.1370589,1.445998,0.188127,-0.4331083,1.413186,0.03436835,0.01751244,1.353365,0.1102955,-0.4232372,1.374084,0.02789638,-0.1791075,1.245606,0.3246743,-0.09380003,1.242588,NA,NA,NotTracked,NotTracked,
-0.5322266,0.6552734,0.5043945,0.2773438,0.9814453,-0.1894531,-5,3,17,9,-4,-2,-8,2,-15,6,15,11,10,-13,-3,1,-2.0625,-2.0625,-2.0625,-26.0625,-26.0625,-26.0625,6.571801,5.806641,0.7166967,7.582732,4.952761,9.748967,0.2289186,-0.04321795,1.238193,0.04746549,-0.04079024,1.25463,0.1972143,0.2787445,1.426698,0.1703503,-0.01443515,1.255273,0.05445689,0.001228033,1.294133,0.1772951,-0.1367856,1.446124,0.1879103,-0.4328881,1.413409,0.03417139,0.01782096,1.353571,0.1099166,-0.4230169,1.374965,0.02751546,-0.1794614,1.247191,0.3230852,-0.09111889,1.239354,NA,NA,NotTracked,NotTracked,
-0.5068359,0.7749023,0.4516602,0.2089844,0.8618164,-0.03173828,-3,-4,5,7,-1,-2,-8,-3,2,-10,0,-26,3,7,7,10,2,2,2,-10.8125,-10.8125,-10.8125,6.57956,5.810835,0.7233655,7.559913,4.951382,9.725322,0.2274975,-0.04511234,1.235862,0.047283,-0.04825884,1.25093,0.1970789,0.278787,1.426667,0.2169666,-0.008675834,1.2956,0.05065691,-0.001462225,1.289813,0.1769321,-0.1367209,1.446079,0.1876176,-0.432834,1.413539,0.03422039,0.0178624,1.353526,0.1095805,-0.4230157,1.375294,0.03041795,-0.1807718,1.249872,0.3237414,-0.09006473,1.238235,NA,NA,NotTracked,NotTracked,
-0.5253906,0.7451172,0.4628906,0.2939453,0.980957,0.02880859,-8,-5,-10,5,-5,0,0,14,13,21,29,-33,-4,7,5,0,4.125,4.125,4.125,-9.3125,-9.3125,-9.3125,6.586181,5.806631,0.731507,7.533552,4.958886,9.637324,0.2295809,-0.04510321,1.237972,0.06725985,-0.03029903,1.246641,0.1966343,0.278775,1.426677,0.2272415,-0.01295141,1.3001,0.08354995,0.003753001,1.296717,0.176767,-0.136777,1.446202,0.1874728,-0.4329165,1.413719,0.03422352,0.01789844,1.353559,0.1094803,-0.4230937,1.375373,0.03452441,-0.1826024,1.254009,0.3317325,-0.08931626,1.237426,NA,NA,NotTracked,NotTracked,
-0.5400391,0.7436523,0.4257813,0.0390625,0.980957,0.1513672,0,2,5,17,11,4,-5,-3,-8,-6,-5,0,-20,-9,-1,-7,-38.5,-38.5,-38.5,-9.5,-9.5,-9.5,6.566403,5.79938,0.7477208,7.514985,4.928074,9.583172,0.2211144,-0.04814228,1.244847,0.0922699,-0.03141223,1.251974,0.1956829,0.2787597,1.426964,0.2200429,-0.01648069,1.299125,0.1122064,0.00227503,1.296103,0.1765671,-0.1369345,1.446345,0.1872826,-0.4330454,1.413915,0.03412386,0.01786353,1.353631,0.109353,-0.4232734,1.375198,0.03523678,-0.1839884,1.257273,0.3543212,-0.09217627,1.243423,NA,NA,NotTracked,NotTracked,
-0.4575195,0.7197266,0.4926758,-0.07861328,0.9604492,0.1181641,-5,3,5,0,-3,-2,-3,5,7,3,16,42,5,-1,0,15,-3.5625,-3.5625,-3.5625,-27.6875,-27.6875,-27.6875,6.535342,5.794639,0.7691507,7.471123,4.921897,9.495392,0.2139167,-0.04823291,1.255456,0.1221883,-0.03841309,1.262003,0.1951438,0.2787888,1.426877,0.2142525,-0.01690736,1.296973,0.1408778,0.002063471,1.297282,0.1763346,-0.1370297,1.446447,0.1870117,-0.4331073,1.413994,0.03411755,0.01783874,1.354002,0.1091407,-0.4233502,1.374603,0.03175288,-0.1850662,1.260248,0.3847615,-0.09633476,1.258246,NA,NA,NotTracked,NotTracked,
-0.5102539,0.8022461,0.4921875,-0.4365234,1.063477,0.09472656,-5,3,9,7,3,2,-5,-3,17,26,27,12,-7,5,0,-7,-18.6875,-18.6875,-18.6875,-37.25,-37.25,-37.25,6.537067,5.788712,0.7887533,7.393394,4.899514,9.374379,0.1997502,-0.05136468,1.249327,0.1600033,-0.05186923,1.246891,0.1944918,0.2789983,1.426742,0.1637898,-0.02796296,1.2485,0.1567909,-0.02702991,1.25263,0.1758368,-0.1372482,1.4465,0.1865058,-0.4334118,1.414045,0.03433485,0.01779117,1.354558,0.1086749,-0.4236185,1.374008,0.0303346,-0.1853108,1.261365,0.4197414,-0.1012369,1.281753,NA,NA,NotTracked,NotTracked,
-0.4140625,0.7304688,0.503418,-0.331543,0.9873047,0.02685547,0,7,19,8,7,1,3,17,-8,-19,-4,24,10,-3,6,-2,10.625,10.625,10.625,-28.8125,-28.8125,-28.8125,6.532775,5.781973,0.7893398,7.350646,4.917788,9.315969,0.2150459,-0.0604977,1.25533,0.1716228,-0.05589987,1.253853,0.1941257,0.2789943,1.426518,0.1898016,-0.03639837,1.259087,0.1847863,-0.03386149,1.266923,0.1754609,-0.1374788,1.44654,0.1861015,-0.4336783,1.414134,0.03350358,0.01831338,1.355906,0.1082784,-0.4237956,1.373425,0.02856336,-0.1844849,1.262,0.4294989,-0.1051251,1.292184,NA,NA,NotTracked,NotTracked,
-0.4853516,0.7099609,0.5566406,0.04541016,1.047852,0.04736328,2,-5,-26,-8,4,-1,-7,-4,14,17,7,70,18,-2,2,4,1,1,1,-11.9375,-11.9375,-11.9375,6.528338,5.785565,0.7763215,7.326335,4.952654,9.304993,0.2209421,-0.06540495,1.257695,0.1737844,-0.05992424,1.255681,0.1941188,0.2789829,1.426449,0.2015216,-0.04046754,1.267133,0.1647006,-0.03273782,1.26456,0.1752798,-0.1376888,1.446516,0.1858889,-0.433898,1.414169,0.03355627,0.01845988,1.356297,0.1080088,-0.4239947,1.372749,0.02821192,-0.1841565,1.261963,0.4319531,-0.1089427,1.298103,NA,NA,NotTracked,NotTracked,
-0.5419922,0.715332,0.4975586,0.02783203,1.125,-0.01171875,-4,-6,-1,0,-1,-4,-7,-7,-9,-4,4,-3,0,-4,-7,-7,-4.1875,-4.1875,-4.1875,-0.8125,-0.8125,-0.8125,6.533707,5.786851,0.7596253,7.328366,4.967338,9.312071,0.2210395,-0.06703771,1.257673,0.1724362,-0.06067415,1.254154,0.1943925,0.2789312,1.426066,0.1992348,-0.04009736,1.265267,0.1518361,-0.03535656,1.263222,0.1751529,-0.1378741,1.446673,0.1857553,-0.4342151,1.414426,0.03358713,0.01851217,1.356614,0.1079604,-0.42417,1.372469,0.02808875,-0.1839912,1.262012,0.4298536,-0.1119885,1.299669,NA,NA,NotTracked,NotTracked,
-0.4892578,0.7158203,0.4663086,-0.2216797,1.208496,-0.02832031,2,-2,-6,4,14,3,-4,-5,-6,1,13,12,5,1,-3,-22,-9.5,-9.5,-9.5,17.25,17.25,17.25,6.518854,5.785927,0.76677,7.362737,5.007967,9.285763,0.21722,-0.06173942,1.250582,0.1677767,-0.06174723,1.244261,0.1944925,0.2788756,1.426004,0.2150326,-0.03684351,1.2695,0.1786633,-0.03377187,1.253231,0.175175,-0.1379963,1.446711,0.1857802,-0.4343651,1.414521,0.0338414,0.01851271,1.356818,0.108088,-0.4243278,1.372186,0.02784564,-0.1839377,1.26212,0.4260128,-0.1135871,1.298976,NA,NA,NotTracked,NotTracked,
-0.4433594,0.7973633,0.5131836,-0.04003906,1.272461,0.2016602,4,7,20,14,3,1,1,-3,-41,-4,-5,-8,-10,-11,-19,-32,-1.6875,-1.6875,-1.6875,-10.1875,-10.1875,-10.1875,6.517343,5.78826,0.7754858,7.392769,5.080529,9.254903,0.1996274,-0.04597307,1.231454,0.1604538,-0.04359604,1.22719,0.1949803,0.278735,1.425791,0.1683835,-0.01441922,1.232316,0.1666398,-0.01343647,1.232875,0.1752062,-0.1380236,1.446879,0.1857923,-0.4343713,1.414699,0.03405146,0.01849312,1.356906,0.1081223,-0.424325,1.372196,0.02762127,-0.1840212,1.2624,0.4182905,-0.1109446,1.28963,NA,NA,NotTracked,NotTracked,
-0.487793,0.7426758,0.5107422,-0.3115234,1.142578,0.01513672,-4,-3,-2,0,2,-1,-3,-4,-1,4,5,4,1,3,0,-4,17.1875,17.1875,17.1875,-71.375,-71.375,-71.375,6.534153,5.79086,0.7611985,7.30053,5.191831,9.338181,0.1603682,-0.01179958,1.20874,0.1394041,-0.009714759,1.208036,0.1954706,0.2785841,1.425982,0.1255958,0.01734445,1.1848,0.1415824,0.02121104,1.193222,0.1753496,-0.1381032,1.447235,0.1858547,-0.4344764,1.414916,0.0341617,0.01867951,1.357005,0.1081949,-0.4243371,1.3722,0.02565579,-0.1837093,1.262366,0.4020033,-0.09883315,1.267786,NA,NA,NotTracked,NotTracked,
-0.5170898,0.715332,0.4741211,-0.1635742,0.9355469,0.3056641,-10,-1,0,-2,-4,-1,6,16,22,-12,-12,-6,1,2,-10,31,6.8125,6.8125,6.8125,96.625,96.625,96.625,6.541962,5.794717,0.7392958,7.319636,5.312481,9.411129,0.1481228,0.01902367,1.205209,0.1250559,0.0299819,1.203075,0.1958486,0.2783293,1.426577,0.1118756,0.03680057,1.176001,0.1250295,0.05531227,1.188709,0.1754305,-0.1380861,1.447394,0.1859411,-0.4345343,1.415088,0.03411322,0.01999785,1.357591,0.1082366,-0.4244361,1.372044,0.02694044,-0.1825128,1.263107,0.387364,-0.0797525,1.248156,NA,NA,NotTracked,NotTracked,
-0.5234375,0.7216797,0.4804688,-0.07470703,0.8930664,0.2207031,-1,-5,2,0,-2,1,-2,-4,-3,3,5,5,12,13,13,-7,6.5,6.5,6.5,23.4375,23.4375,23.4375,6.546381,5.804413,0.7197687,7.409024,5.360273,9.544426,0.2419638,0.01399358,1.221285,0.09613253,0.06544054,1.21829,0.1966111,0.2783507,1.427132,0.2063627,0.04907332,1.2062,0.1070013,0.08479535,1.197747,0.175867,-0.1378595,1.447565,0.1861278,-0.4352044,1.415637,0.03415806,0.02074785,1.356994,0.1081981,-0.4251538,1.372079,0.02824439,-0.1819304,1.262805,0.3562499,-0.05331869,1.223521,NA,NA,NotTracked,NotTracked,
-0.5043945,0.7382813,0.4873047,0.07958984,0.8149414,0.03662109,1,2,-3,-5,-4,-6,-10,-9,2,-2,0,-2,-3,-3,2,-9,-2.75,-2.75,-2.75,46.0625,46.0625,46.0625,6.541326,5.809489,0.7097553,7.528264,5.367011,9.711073,0.2533809,0.02390241,1.221144,0.06264828,0.09309276,1.240481,0.1986902,0.2790641,1.427381,0.2233424,0.06329621,1.213926,0.04319164,0.05784988,1.2667,0.1773703,-0.136904,1.447789,0.1867119,-0.4349387,1.416068,0.03476549,0.02312199,1.351849,0.108769,-0.4251955,1.371692,0.02766944,-0.1813918,1.262367,0.3161674,-0.02583139,1.210274,NA,NA,NotTracked,NotTracked,
-0.4941406,0.7148438,0.4970703,-0.03564453,0.6416016,-0.1171875,-7,-1,1,-2,-7,2,2,7,-2,2,-6,-5,-1,-4,-3,28,5.3125,5.3125,5.3125,23.1875,23.1875,23.1875,6.533008,5.809098,0.6906998,7.605106,5.287562,9.817022,0.2581292,0.02898678,1.222156,0.05093066,0.09590797,1.249485,0.2003484,0.2799651,1.426965,0.2366358,0.06371897,1.198143,0.04649863,0.07642275,1.224089,0.1794996,-0.1313612,1.445559,0.187877,-0.4310848,1.415962,0.04139429,0.04018195,1.338776,0.1101693,-0.4216764,1.372608,0.02713837,-0.1698244,1.266547,0.2968425,-0.01088573,1.213728,NA,NA,NotTracked,NotTracked,
-0.5332031,0.7036133,0.5004883,0.2954102,0.7280273,-0.09667969,-4,-3,4,0,7,0,22,18,13,6,6,4,-2,-2,-26,-2,3.6875,3.6875,3.6875,10.375,10.375,10.375,6.534427,5.808467,0.6882758,7.642026,5.13445,9.842021,0.2694846,0.02714718,1.223218,0.0132593,0.07762641,1.27917,0.2004934,0.2800443,1.426951,0.2621324,0.0764185,1.2715,0.0157331,0.0355156,1.301213,0.1800115,-0.1311317,1.4457,0.1883492,-0.4304177,1.416004,0.04008153,0.03671811,1.340644,0.1107168,-0.4210374,1.374099,0.02700427,-0.1724162,1.265269,0.288188,-0.00615841,1.21131,NA,NA,NotTracked,NotTracked,
-0.4980469,0.706543,0.5224609,0.07666016,0.8071289,-0.1254883,5,6,23,13,19,1,-1,0,13,2,-1,1,6,5,30,38,0.625,0.625,0.625,-60.125,-60.125,-60.125,6.540866,5.810218,0.6949067,7.564804,4.941914,9.788828,0.2556035,0.01576665,1.225362,0.006512948,0.05461254,1.268829,0.2005006,0.2800174,1.426981,0.2113292,0.04628727,1.219025,0.01947493,0.02444079,1.234958,0.1802991,-0.1309998,1.445792,0.1888463,-0.4298647,1.416105,0.038808,0.03204062,1.34358,0.1116589,-0.420484,1.376301,0.02769192,-0.1757209,1.263586,0.2868482,-0.007476999,1.211837,NA,NA,NotTracked,NotTracked,
-0.5,0.71875,0.4829102,0.05615234,1.053711,-0.06347656,-2,-3,-3,-7,1,1,1,3,-7,-5,-6,-7,-9,7,0,-18,-6.375,-6.375,-6.375,-68.5,-68.5,-68.5,6.538074,5.809291,0.7043075,7.48445,4.795046,9.681108,0.2249263,-0.01341668,1.227557,0.01720282,0.0379242,1.290551,0.200591,0.2799657,1.427117,0.1643648,0.005965603,1.208731,-0.0220637,-0.0003002604,1.312214,0.1804331,-0.1310373,1.445939,0.1889551,-0.4295469,1.416164,0.03757441,0.02968714,1.348322,0.1116421,-0.4202004,1.377101,0.03071898,-0.1761945,1.262359,0.2421051,-0.07475311,1.165355,NA,NA,NotTracked,NotTracked,
-0.4926758,0.7524414,0.4829102,0.2993164,1.07666,0.08984375,-3,-9,-21,-11,-6,-3,2,-4,4,-3,-7,-8,-2,6,17,0,-5.0625,-5.0625,-5.0625,-52,-52,-52,6.536086,5.805517,0.7195553,7.425913,4.623746,9.572327,0.2327562,-0.04238036,1.22665,0.02566529,0.02695188,1.326125,0.2008699,0.2799364,1.427311,0.1981567,-0.02556432,1.19771,-0.01852413,-0.01011894,1.299739,0.180425,-0.1314147,1.44655,0.1888575,-0.429336,1.41627,0.03639646,0.02744678,1.352509,0.1113009,-0.4199553,1.377846,0.03365599,-0.1765078,1.261197,0.2467793,-0.09166787,1.166935,NA,NA,NotTracked,NotTracked,
-0.5083008,0.7490234,0.4560547,0.5229492,1.09082,0.1645508,2,1,4,-1,-1,-1,-1,-5,2,1,0,4,1,-4,-9,-4,-3.5625,-3.5625,-3.5625,-34.125,-34.125,-34.125,6.535983,5.801925,0.7345912,7.376202,4.413527,9.411427,0.241363,-0.07094845,1.225035,0.007680278,-0.1096919,1.253176,0.2011391,0.2798946,1.427632,0.262807,-0.03567721,1.198037,-0.001403785,-0.1630911,1.236506,0.1803857,-0.1314946,1.446851,0.1885835,-0.4289081,1.416476,0.03360161,0.02641889,1.358187,0.1107721,-0.4194034,1.378718,0.03317168,-0.1749115,1.260433,0.2606725,-0.09508713,1.180104,NA,NA,NotTracked,NotTracked,
0.1337891,0.7866211,0.5253906,0.5610352,1.162598,0.07470703,7,3,1,12,10,5,1,1,7,3,-1,-1,-5,-7,-14,-12,-8.75,-8.75,-8.75,-69.125,-69.125,-69.125,6.515435,5.781351,0.7184235,7.310157,4.352967,9.324463,0.301307,-0.07275135,1.243157,0.06540537,-0.1358451,1.207877,0.2012699,0.2797203,1.427959,0.2946764,-0.02436707,1.259513,0.08539572,-0.1776885,1.224218,0.1805047,-0.1315961,1.447181,0.1882303,-0.4283109,1.416747,0.03262571,0.02652946,1.361703,0.1102646,-0.4186616,1.37967,0.02743379,-0.1739127,1.262054,0.3296798,-0.0908323,1.244327,NA,NA,NotTracked,NotTracked,
-0.3999023,0.7651367,0.4394531,0.3452148,1.116699,0.1958008,-1,0,5,3,0,-2,0,1,5,-3,-3,-2,0,-2,-11,48,-3.3125,-3.3125,-3.3125,-23.625,-23.625,-23.625,6.522369,5.780369,0.7547988,7.236522,4.340745,9.316185,0.2745354,-0.09371263,1.234851,0.06765737,-0.1440986,1.204287,0.2013468,0.2796479,1.428055,0.2513397,-0.0587256,1.249391,0.09112614,-0.188011,1.225514,0.1804663,-0.1317666,1.447477,0.1879028,-0.4280316,1.417029,0.03224912,0.02631041,1.362871,0.1099013,-0.4183493,1.380289,0.02351037,-0.1739754,1.263152,0.3293092,-0.09575415,1.24785,NA,NA,NotTracked,NotTracked,
-0.574707,0.6645508,0.4536133,0.4194336,0.9223633,0.09521484,-2,2,8,7,5,2,3,3,1,-1,-2,0,7,10,8,20,4.3125,4.3125,4.3125,4.375,4.375,4.375,6.518001,5.784761,0.7613035,7.231584,4.367561,9.314534,0.2999077,-0.08365149,1.245411,0.06788179,-0.1426752,1.203773,0.2015042,0.2795795,1.428081,0.2878124,-0.03660924,1.259185,0.08715831,-0.1852826,1.225491,0.1805467,-0.1318881,1.447709,0.1877124,-0.4278002,1.4173,0.03209165,0.02614178,1.363402,0.1097224,-0.4180958,1.380696,0.02280493,-0.1740583,1.26355,0.3295679,-0.0998854,1.251375,NA,NA,NotTracked,NotTracked,
-0.5107422,0.7749023,0.4819336,0.4125977,0.9238281,0.1274414,-13,-2,2,-1,2,0,-2,-7,-3,3,3,5,-1,-3,-5,10,-9.9375,-9.9375,-9.9375,17.6875,17.6875,17.6875,6.525165,5.781421,0.7686183,7.265847,4.366754,9.314565,0.3005477,-0.08171699,1.244517,0.06864671,-0.140657,1.20328,0.2016867,0.2794797,1.428315,0.2940322,-0.03393579,1.255786,0.08690877,-0.1853747,1.226551,0.1805762,-0.1318798,1.448052,0.1874978,-0.427106,1.417799,0.0318118,0.02745128,1.368712,0.1095293,-0.4173426,1.381371,0.02270158,-0.1708814,1.264723,0.3294761,-0.1007982,1.251395,NA,NA,NotTracked,NotTracked,
-0.4931641,0.7402344,0.5004883,0.3613281,0.8789063,0.1538086,1,2,10,3,6,0,-2,-3,3,-2,-2,0,-1,-1,2,-3,6,6,6,5.3125,5.3125,5.3125,6.532311,5.787025,0.7606045,7.279633,4.374546,9.313399,0.231305,-0.1082678,1.21969,0.06825086,-0.1415142,1.204286,0.2019338,0.2794311,1.428269,0.2307378,-0.07382678,1.234303,0.08891402,-0.1858136,1.225754,0.1805725,-0.1319802,1.448303,0.1874381,-0.4269803,1.418037,0.03173867,0.02704339,1.368303,0.1094985,-0.4172394,1.381623,0.02259401,-0.1714372,1.26464,0.3293544,-0.1010044,1.250957,NA,NA,NotTracked,NotTracked,
-0.4960938,0.7265625,0.5107422,0.387207,0.8989258,0.1210938,1,-7,-10,-5,-4,-3,-8,0,-1,-2,0,3,-1,0,-5,-4,1.25,1.25,1.25,0.625,0.625,0.625,6.532774,5.787515,0.7599723,7.283389,4.379009,9.31198,0.2927717,-0.08163325,1.239041,0.06828123,-0.141167,1.204466,0.2021564,0.2793242,1.428344,0.2846101,-0.03550889,1.258167,0.08774562,-0.1860936,1.225679,0.1805939,-0.1319736,1.448438,0.1873168,-0.4267175,1.418193,0.03143623,0.02912162,1.372914,0.1093472,-0.4169762,1.381847,0.0226283,-0.1678036,1.265932,0.3291657,-0.1012982,1.250821,NA,NA,NotTracked,NotTracked,
-0.5126953,0.7231445,0.5009766,0.3735352,0.8891602,0.09423828,-6,4,12,4,10,3,9,19,0,0,-3,0,1,6,1,15,6.5,6.5,6.5,-0.3125,-0.3125,-0.3125,6.538054,5.794012,0.757701,7.282887,4.386962,9.310805,0.2826929,-0.0870956,1.235479,0.06770437,-0.1398355,1.205345,0.2024107,0.2792482,1.428495,0.2515465,-0.05478645,1.258917,0.08808003,-0.1855277,1.22591,0.1805312,-0.1319736,1.44879,0.1871082,-0.4265059,1.418449,0.03137262,0.02970641,1.373732,0.1091089,-0.4166775,1.382295,0.0222458,-0.1669875,1.266299,0.3290825,-0.1018758,1.249929,NA,NA,NotTracked,NotTracked,
-0.4907227,0.7285156,0.5043945,0.3637695,0.9189453,0.1191406,-1,-2,-12,-9,-10,-2,0,-2,4,1,-5,-5,-5,2,0,10,-8.5625,-8.5625,-8.5625,3.8125,3.8125,3.8125,6.533483,5.792774,0.7593614,7.289561,4.386832,9.309138,0.2868856,-0.08501351,1.23616,0.06850185,-0.1397076,1.203535,0.2027095,0.2792629,1.428577,0.2742116,-0.04270739,1.252742,0.08577059,-0.185945,1.225319,0.1805413,-0.1319609,1.448857,0.1870491,-0.4263345,1.41854,0.03154445,0.03059437,1.3749,0.1090323,-0.4164906,1.382437,0.02213465,-0.1657633,1.2668,0.3288566,-0.1018627,1.24961,NA,NA,NotTracked,NotTracked,
-0.4936523,0.7338867,0.4892578,0.3813477,0.9038086,0.1162109,7,9,10,13,1,1,-5,-6,0,-3,-4,-4,-1,-3,-7,-13,-4.8125,-4.8125,-4.8125,4.125,4.125,4.125,6.532362,5.792068,0.7636439,7.29544,4.387174,9.304894,0.2942256,-0.08306243,1.237981,0.06827539,-0.1396907,1.203687,0.2030125,0.2793621,1.428519,0.2830803,-0.03836993,1.252103,0.0882845,-0.1852529,1.225509,0.1806296,-0.1319956,1.448952,0.1869393,-0.4262893,1.418597,0.03164197,0.0296171,1.373566,0.1089329,-0.4164384,1.382528,0.02170485,-0.1670555,1.266168,0.3288898,-0.1019601,1.249601,NA,NA,NotTracked,NotTracked,
