ALX,ALY,ALZ,ARX,ARY,ARZ,EMG0L,EMG1L,EMG2L,EMG3L,EMG4L,EMG5L,EMG6L,EMG7L,EMG0R,EMG1R,EMG2R,EMG3R,EMG4R,EMG5R,EMG6R,EMG7R,GLX,GLY,GLZ,GRX,GRY,GRZ,ORL,OPL,OYL,ORR,OPR,OYR,LHNX,LHNY,LHNZ,RHNX,RHNY,RHNZ,HX,HY,HZ,LTX,LTY,LTZ,RTX,RTY,RTZ,SpineMidX,SpineMidY,SpineMidZ,SpineBaseX,SpineBaseY,SpineBaseZ,ShoulderLeftX,ShoulderLeftY,ShoulderLeftZ,ShoulderRightX,ShoulderRightY,ShoulderRightZ,ElbowLeftX,ElbowLeftY,ElbowLeftZ,ElbowRightX,ElbowRightY,ElbowRightZ,Myo_Pose_left,Myo_Pose_Right,Kinect_pose_left,Kinect_pose_right
-0.9555664,0.2558594,0.1835938,0.925293,0.3056641,0.04785156,-3,-2,1,-2,-2,-5,0,-1,0,0,-1,1,0,-2,7,1,-1.5,-1.5,-1.5,-1,-1,-1,6.467936,6.978964,9.422216,7.263444,2.996938,3.241981,-0.01277592,-0.4770103,1.317209,0.3812495,-0.4984953,1.295828,0.2057318,0.289786,1.390419,0.029702,-0.4596414,1.305154,0.4227958,-0.4901534,1.291919,0.1861047,-0.1479408,1.408288,0.1841788,-0.4523637,1.386711,0.01820841,0.01711416,1.398921,0.1051633,-0.4428471,1.360061,-0.02093654,-0.2331406,1.378839,0.3952878,-0.2353512,1.370288,NA,NA,NotTracked,NotTracked,
-0.956543,0.2587891,0.1806641,0.9243164,0.2963867,0.05908203,5,6,1,1,5,14,-2,-1,-3,-2,-1,-1,-1,-3,2,1,1.0625,1.0625,1.0625,2,2,2,6.469024,6.979263,9.422406,7.255552,2.998501,3.25044,-0.01283833,-0.4768555,1.316836,0.3812448,-0.4982865,1.295751,0.2058636,0.2897615,1.390359,0.02955001,-0.4451813,1.303786,0.4214582,-0.4896626,1.289989,0.18623,-0.1479065,1.408218,0.1842166,-0.4523527,1.386646,0.01829187,0.01703253,1.398754,0.105209,-0.4428233,1.360051,-0.02086239,-0.233241,1.378795,0.3954626,-0.235216,1.369984,NA,NA,NotTracked,NotTracked,
-0.9501953,0.2563477,0.1816406,0.9287109,0.2949219,0.05322266,-1,-1,0,1,1,3,4,0,5,2,0,-1,-2,-3,-2,0,1.8125,1.8125,1.8125,-0.8125,-0.8125,-0.8125,6.467498,6.979078,9.417652,7.254647,2.998616,3.252501,-0.01240289,-0.4772561,1.317018,0.3807102,-0.4986949,1.295504,0.2061364,0.2896983,1.390185,0.0294824,-0.4617616,1.306,0.4203456,-0.4910084,1.287857,0.1863355,-0.1478951,1.408125,0.1842674,-0.4523507,1.386597,0.01858901,0.01718855,1.398645,0.1052498,-0.4428161,1.360019,-0.02084982,-0.2332124,1.378756,0.3955541,-0.2351759,1.369831,NA,NA,NotTracked,NotTracked,
-0.956543,0.2626953,0.1835938,0.9262695,0.2963867,0.04589844,-1,-3,-1,-2,-4,-6,-2,-3,-3,-2,-1,-1,-4,-5,-6,-2,-1.0625,-1.0625,-1.0625,-1.0625,-1.0625,-1.0625,6.467148,6.978842,9.417652,7.247522,2.998718,3.256958,-0.01286932,-0.4772261,1.318406,0.3807304,-0.4981194,1.295698,0.206288,0.2896673,1.39019,0.0296482,-0.4489823,1.305278,0.42109,-0.4915735,1.289986,0.1863661,-0.1478765,1.408125,0.1842471,-0.4523362,1.386602,0.01868545,0.01729471,1.398599,0.1052258,-0.4427642,1.360009,-0.02082464,-0.2331349,1.378725,0.3958313,-0.2348958,1.369503,NA,NA,NotTracked,NotTracked,
-0.953125,0.2597656,0.1850586,0.9267578,0.2993164,0.05566406,5,3,1,2,4,-1,0,3,-1,-1,0,0,1,-4,-21,-3,-0.1875,-0.1875,-0.1875,0,0,0,6.467109,6.979248,9.417459,7.246794,2.998897,3.257552,-0.01293567,-0.4765189,1.31706,0.3806483,-0.4974884,1.294664,0.2063688,0.2896692,1.390093,0.02883325,-0.436721,1.303636,0.4211204,-0.4910282,1.290367,0.1864061,-0.1478566,1.408078,0.1842387,-0.4523189,1.38657,0.01871764,0.01734476,1.398502,0.10522,-0.4427231,1.35995,-0.02080986,-0.2331029,1.378636,0.3959558,-0.2348215,1.369265,NA,NA,NotTracked,NotTracked,
-0.9570313,0.2514648,0.1826172,0.9262695,0.2983398,0.04589844,-1,-2,-2,-3,-5,-3,-3,-2,-3,-2,0,0,0,-1,-4,1,1.875,1.875,1.875,-0.375,-0.375,-0.375,6.465569,6.9793,9.413847,7.246794,2.998897,3.257552,-0.01314045,-0.4765033,1.316853,0.3808415,-0.4977609,1.294711,0.2064885,0.289651,1.390036,0.02940131,-0.4471658,1.304559,0.427833,-0.489888,1.298,0.1864703,-0.1478139,1.408025,0.184254,-0.4522747,1.386528,0.0188526,0.01748702,1.398417,0.1052523,-0.4426509,1.359855,-0.02076496,-0.2329984,1.378546,0.3960516,-0.23484,1.369072,NA,NA,NotTracked,NotTracked,
-0.9594727,0.2597656,0.1816406,0.9248047,0.2973633,0.05664063,-1,-3,-3,-3,-4,-6,-4,-2,1,0,0,0,1,-4,-2,2,1.625,1.625,1.625,-0.3125,-0.3125,-0.3125,6.467981,6.978614,9.411973,7.242749,2.999619,3.260071,-0.01342927,-0.4762409,1.315761,0.3804126,-0.4967206,1.293737,0.2065615,0.2896155,1.389881,0.02924781,-0.44253,1.304005,0.4221952,-0.4905611,1.28895,0.1865789,-0.1477972,1.407901,0.1843044,-0.4522157,1.386465,0.01887793,0.01742703,1.39811,0.105304,-0.4425981,1.359796,-0.02083219,-0.2329316,1.378343,0.3960631,-0.2346214,1.368904,NA,NA,NotTracked,NotTracked,
-0.956543,0.2553711,0.1787109,0.9257813,0.3120117,0.03076172,0,-3,-2,-3,-5,-1,-2,-4,1,1,-1,-2,2,2,-1,-1,2.4375,2.4375,2.4375,-17.25,-17.25,-17.25,6.466341,6.976995,9.405582,7.242111,3.004191,3.246026,-0.01240311,-0.476016,1.315373,0.3801792,-0.4967151,1.294492,0.2065794,0.2896046,1.389809,0.02951864,-0.4452745,1.303748,0.4229715,-0.4856782,1.291012,0.1865994,-0.147763,1.407881,0.1843005,-0.452168,1.386455,0.01893654,0.01750099,1.397761,0.105307,-0.4425455,1.359785,-0.0208553,-0.2329471,1.378217,0.39609,-0.2347092,1.368788,NA,NA,NotTracked,NotTracked,
-0.9863281,0.3251953,0.1123047,0.9516602,0.4858398,-0.1210938,-7,-2,-2,-2,-2,-7,-4,-5,4,9,10,6,1,0,3,-3,-25.4375,-25.4375,-25.4375,-136.5,-136.5,-136.5,6.489815,6.96907,9.444876,7.224985,3.053087,3.105482,-0.0136237,-0.4756118,1.314581,0.3804701,-0.4967215,1.292813,0.206547,0.2896521,1.3898,0.0293662,-0.4460981,1.304311,0.4199964,-0.4877881,1.286494,0.1865958,-0.1477473,1.407879,0.1842973,-0.4521694,1.386436,0.01885164,0.017517,1.397641,0.105306,-0.4425471,1.35978,-0.02088062,-0.2329496,1.378208,0.3960886,-0.2344711,1.368978,NA,NA,NotTracked,NotTracked,
-1.030762,0.4106445,-0.001464844,1.037598,0.3574219,-0.1108398,2,-5,7,13,7,-8,6,6,2,6,-1,0,1,9,20,10,-116.1875,-116.1875,-116.1875,-217.3125,-217.3125,-217.3125,6.462388,6.868709,9.627278,7.048412,3.168669,2.919561,-0.01584355,-0.4724823,1.304967,0.3822604,-0.4909498,1.28005,0.2064485,0.2897372,1.389712,0.02595227,-0.4371789,1.306188,0.4173728,-0.5022183,1.274,0.1866089,-0.1477276,1.40779,0.1842691,-0.4521535,1.386382,0.01886434,0.01754044,1.397588,0.1052718,-0.4425116,1.35976,-0.02181797,-0.2327903,1.378957,0.3967501,-0.2321784,1.370497,NA,NA,NotTracked,NotTracked,
-1.078613,0.3540039,0.3022461,0.9448242,0.5986328,0.2338867,-3,-1,6,-2,-6,7,-1,-5,0,-1,5,5,-1,3,-3,1,-102.3125,-102.3125,-102.3125,-70.3125,-70.3125,-70.3125,6.373939,6.72093,9.741832,6.914044,3.420795,2.757858,-0.02783456,-0.4608769,1.275251,0.3940683,-0.4663402,1.249093,0.2063698,0.2897461,1.389498,0.001686863,-0.4482907,1.309214,0.4125415,-0.4460584,1.215791,0.186635,-0.1478,1.40766,0.1842698,-0.4522845,1.386324,0.01886828,0.01750503,1.397631,0.1052418,-0.4427206,1.359798,-0.02904011,-0.2260903,1.384175,0.4021716,-0.2265537,1.37513,NA,NA,NotTracked,NotTracked,
-0.8364258,0.4833984,0.4907227,0.684082,0.7387695,0.3393555,-1,4,-3,-13,-13,-6,-4,-1,1,-8,0,1,0,3,11,7,12.5,12.5,12.5,-26.8125,-26.8125,-26.8125,6.37315,6.532222,9.798544,6.89283,3.669361,2.704686,-0.03875893,-0.4371862,1.232973,0.4122156,-0.4215464,1.209909,0.2060436,0.2896054,1.389109,-0.003622241,-0.4737259,1.239667,0.4376165,-0.4014207,1.181594,0.1865598,-0.1478219,1.407554,0.183933,-0.452288,1.386293,0.01864545,0.01792864,1.398456,0.1048246,-0.4428,1.359866,-0.04413436,-0.2117136,1.389672,0.4123533,-0.2166375,1.380369,NA,NA,Unknown,Lasso,
-0.7695313,0.6713867,0.4956055,0.5390625,0.7998047,0.3876953,-3,-16,-33,-9,-1,-2,-4,-3,-3,0,-1,7,-3,5,5,5,28.5,28.5,28.5,-1.25,-1.25,-1.25,6.458244,6.308754,9.837699,6.880832,4.025939,2.681636,-0.05125992,-0.3831689,1.191085,0.438307,-0.3458039,1.161794,0.2059064,0.2895274,1.388889,-0.05338464,-0.4435893,1.239,0.455972,-0.3163011,1.149366,0.186455,-0.1478028,1.407508,0.1834656,-0.4520806,1.386133,0.01877034,0.01875685,1.399389,0.1042873,-0.4425898,1.359919,-0.06024594,-0.1914487,1.39178,0.4194961,-0.2046626,1.383155,NA,NA,Lasso,Lasso,
-0.684082,0.6010742,0.5463867,0.4326172,0.8139648,0.3212891,-6,-13,-10,-10,1,11,-2,-5,-1,6,-3,-38,-4,-3,-1,-6,33.25,33.25,33.25,18.8125,18.8125,18.8125,6.504167,6.072231,9.833364,6.904486,4.30139,2.672748,-0.06777728,-0.3068569,1.158772,0.4586395,-0.2665851,1.150199,0.2058513,0.2895032,1.388865,-0.06671447,-0.3610176,1.182667,0.4789312,-0.2412717,1.137866,0.1863479,-0.1477208,1.407544,0.1831519,-0.4517679,1.385984,0.0185203,0.01910595,1.400481,0.1039653,-0.442363,1.359948,-0.0783568,-0.1747263,1.396418,0.4270039,-0.1909648,1.384259,NA,NA,Unknown,Unknown,
-0.5239258,0.7255859,0.5078125,0.2890625,0.8144531,0.3925781,7,28,51,18,18,-4,3,3,0,-2,0,4,6,2,-13,-3,29.125,29.125,29.125,24.375,24.375,24.375,6.55551,5.825895,9.823119,6.945218,4.551413,2.663016,-0.07953186,-0.2393325,1.137951,0.4662507,-0.2077953,1.131502,0.2055898,0.2894614,1.388848,-0.06964427,-0.2766299,1.129769,0.4806558,-0.1724054,1.12079,0.1861471,-0.1475352,1.407722,0.1824074,-0.4512818,1.3859,0.01800138,0.01920262,1.401494,0.1031796,-0.4419905,1.360032,-0.09468693,-0.1659781,1.396084,0.4629571,-0.1816326,1.362253,NA,NA,Unknown,Closed,
-0.3037109,0.7124023,0.5151367,0.078125,0.7470703,0.3891602,4,7,4,3,11,6,8,3,-7,-12,-14,-16,-3,0,7,-6,29.5625,29.5625,29.5625,14.25,14.25,14.25,6.616838,5.45493,9.796494,6.986806,4.831644,2.64672,-0.08487456,-0.1836487,1.130441,0.4768357,-0.1540066,1.126081,0.2053823,0.2894002,1.388906,-0.05346632,-0.2210859,1.1402,0.5180846,-0.1414627,1.134292,0.1859554,-0.1473033,1.407982,0.1820334,-0.4509446,1.385748,0.01762771,0.01943668,1.40206,0.1027479,-0.4416596,1.360011,-0.1394065,-0.1304026,1.381402,0.4700232,-0.1742894,1.355926,NA,NA,Unknown,Closed,
-0.1357422,0.671875,0.5302734,-0.001953125,0.753418,0.5043945,-6,-5,1,2,-1,17,1,-3,-7,0,3,10,-4,3,14,4,33.6875,33.6875,33.6875,1,1,1,6.648933,5.28977,9.754611,6.972789,4.968892,2.661979,-0.080426,-0.144258,1.125714,0.4814054,-0.1212613,1.125651,0.2048627,0.289217,1.389013,-0.04721345,-0.175626,1.126417,0.4740281,-0.08227751,1.134316,0.1857485,-0.147173,1.408207,0.1817095,-0.4506576,1.385686,0.01781338,0.02001032,1.402222,0.10236,-0.4413519,1.360003,-0.1548282,-0.1115839,1.383162,0.4758808,-0.1680368,1.365003,NA,NA,Unknown,Closed,
-0.08984375,0.625,0.5864258,-0.03173828,0.6113281,0.5087891,-1,2,2,-10,-10,-14,-8,-5,4,-12,-10,-2,6,6,3,4,33.5,33.5,33.5,-9.5,-9.5,-9.5,6.664582,5.214878,9.703862,6.929742,5.027766,2.733105,-0.06099131,-0.1268984,1.122148,0.472457,-0.1097259,1.120433,0.2045747,0.2889536,1.389231,-0.03701075,-0.1603873,1.114091,0.5157155,-0.1038694,1.124138,0.1853717,-0.1469772,1.408655,0.181475,-0.4504524,1.385561,0.01745778,0.02026752,1.402459,0.1021048,-0.4412022,1.359921,-0.1650819,-0.09721108,1.384342,0.4763016,-0.1705114,1.371409,NA,NA,Unknown,Unknown,
-0.08154297,0.6264648,0.6049805,0.07421875,0.7290039,0.5224609,-3,12,14,6,8,-1,-8,-18,1,-1,-1,-2,5,-7,-10,-5,8.625,8.625,8.625,-15.25,-15.25,-15.25,6.649374,5.155879,9.448444,6.885881,5.005545,2.911581,-0.01929201,-0.1280667,1.124465,0.4384141,-0.1179322,1.110785,0.2043959,0.2885587,1.389609,0.01658274,-0.1595349,1.125462,0.4844183,-0.1017175,1.118089,0.1851832,-0.1469772,1.409214,0.1813015,-0.450445,1.385517,0.01710534,0.02021598,1.402399,0.1019065,-0.4411758,1.359877,-0.1555244,-0.1174168,1.332165,0.4665904,-0.1707907,1.373614,NA,NA,Unknown,Unknown,
-0.159668,0.8061523,0.5,0.1469727,0.9912109,0.2817383,12,11,9,2,6,-2,0,5,14,3,-7,-5,18,4,-4,2,15.9375,15.9375,15.9375,-4.125,-4.125,-4.125,6.643606,5.178331,9.209742,6.853418,4.925968,3.243074,0.02580238,-0.1454244,1.134452,0.3842125,-0.1367553,1.10603,0.20437,0.2882112,1.390281,0.07464001,-0.1727519,1.1563,0.4133763,-0.1222814,1.091528,0.1847994,-0.1470093,1.410339,0.1808171,-0.4503632,1.385632,0.01698409,0.0201129,1.402276,0.1014693,-0.4410544,1.360029,-0.1496651,-0.1196082,1.334363,0.4956343,-0.1378306,1.351698,NA,NA,Lasso,Unknown,
-0.3779297,0.9609375,0.3413086,0.2338867,1.132324,0.05517578,-2,1,6,7,4,-8,-9,-7,-10,-2,-1,2,6,3,-20,-18,14.875,14.875,14.875,-12.0625,-12.0625,-12.0625,6.662307,5.237099,9.013081,6.869682,4.867127,3.39249,0.05465814,-0.1606816,1.139769,0.3489283,-0.1541638,1.11004,0.2044046,0.2878179,1.391301,0.09459075,-0.1990761,1.155727,0.3667969,-0.1266809,1.09322,0.1848568,-0.1470079,1.411709,0.180622,-0.4502586,1.385864,0.01736873,0.01983188,1.401765,0.1012965,-0.4409157,1.360402,-0.1366147,-0.1245158,1.332278,0.4685647,-0.1554328,1.32865,NA,NA,Unknown,Unknown,
-0.5673828,1.014648,0.28125,0.3344727,1.108398,0.09667969,4,3,7,4,17,10,0,5,-2,11,6,4,35,4,-6,-10,-16.3125,-16.3125,-16.3125,-25.5625,-25.5625,-25.5625,6.673438,5.305042,8.957756,6.880284,4.825266,3.360824,0.05820829,-0.1661302,1.136324,0.3387695,-0.1599596,1.106411,0.2046245,0.2874578,1.392059,0.09991974,-0.2037652,1.158125,0.3528241,-0.1326443,1.085722,0.1848278,-0.1471707,1.412454,0.1803905,-0.4502966,1.386105,0.01809633,0.01952924,1.400919,0.101132,-0.4409105,1.360594,-0.1300178,-0.1285611,1.328359,0.4619387,-0.1477723,1.292066,NA,NA,Lasso,Unknown,
-0.465332,0.9233398,0.3916016,0.1572266,1.053711,0.2402344,-1,-3,-8,-11,-27,-23,-6,-8,0,-2,-2,2,1,-8,0,1,-14.625,-14.625,-14.625,-11.5625,-11.5625,-11.5625,6.688609,5.34164,9.0811,6.897687,4.843907,3.207091,0.04368467,-0.1621552,1.131757,0.3538485,-0.1550426,1.10659,0.2050458,0.2870867,1.39217,0.06409331,-0.1976838,1.142889,0.3735802,-0.1329327,1.080515,0.1850612,-0.1472439,1.412709,0.1803924,-0.4502895,1.386204,0.01837742,0.01926181,1.400486,0.1011382,-0.4409094,1.360675,-0.1285854,-0.1291119,1.325779,0.4718896,-0.1524848,1.334064,NA,NA,Lasso,Unknown,
-0.2866211,0.8642578,0.4794922,0.07421875,0.9594727,0.3999023,2,0,8,-1,-13,-3,-4,-2,-1,-5,-8,-17,-24,9,-1,-4,-16.125,-16.125,-16.125,-3.375,-3.375,-3.375,6.704865,5.323594,9.276978,6.905493,4.899381,2.97521,-0.0037423,-0.1528657,1.134034,0.3989554,-0.140513,1.104704,0.205449,0.2868593,1.392015,0.01827542,-0.19086,1.146933,0.4401245,-0.1321761,1.098837,0.1851073,-0.1473547,1.412864,0.1803715,-0.4503943,1.386305,0.0182964,0.01922224,1.400643,0.1011108,-0.4409793,1.360656,-0.1370155,-0.1245951,1.335759,0.4321501,-0.1789298,1.353299,NA,NA,Unknown,Unknown,
-0.1381836,0.8496094,0.5366211,-0.01953125,0.824707,0.5732422,0,-2,4,1,11,-16,-2,7,-7,4,3,-1,-23,3,2,4,-19.5625,-19.5625,-19.5625,-9.375,-9.375,-9.375,6.723229,5.272245,9.525896,6.898381,4.981733,2.640441,-0.04584009,-0.1412018,1.138966,0.4507077,-0.126871,1.112023,0.2056738,0.2868215,1.391885,-0.0007421213,-0.151059,1.182905,0.4880117,-0.1194678,1.107413,0.1852359,-0.1473871,1.412818,0.1804505,-0.4504487,1.38621,0.01808784,0.01923393,1.401359,0.1011612,-0.4410339,1.360557,-0.1607676,-0.1035691,1.391923,0.4464771,-0.1925526,1.373834,NA,NA,Unknown,Closed,
0.04492188,0.7768555,0.6181641,-0.1254883,0.7084961,0.6811523,-6,18,9,14,4,-13,1,-4,2,17,14,-10,2,-6,1,1,-22.6875,-22.6875,-22.6875,-6.875,-6.875,-6.875,6.716723,5.182411,9.85807,6.852134,5.033957,2.463691,-0.0929186,-0.1308033,1.146237,0.4915792,-0.1178553,1.123849,0.2060531,0.2867379,1.391402,-0.05801646,-0.1638248,1.170636,0.5305369,-0.1068164,1.1287,0.1853862,-0.1474462,1.412652,0.1805944,-0.4505486,1.385856,0.0183202,0.01931275,1.401603,0.1012616,-0.4411164,1.360125,-0.1634688,-0.0953684,1.414599,0.4576594,-0.191293,1.377318,NA,NA,Lasso,Closed,
0.1308594,0.7060547,0.6914063,-0.1054688,0.7148438,0.7114258,1,-3,5,3,-15,-51,-5,9,4,-11,-7,-5,3,0,-3,-1,-24.8125,-24.8125,-24.8125,-3.125,-3.125,-3.125,6.663923,5.113554,0.01700737,6.806146,5.055391,2.420355,-0.1124093,-0.1244671,1.148763,0.5049835,-0.1154604,1.128351,0.2062602,0.2866561,1.391488,-0.0844685,-0.1608869,1.155108,0.5465121,-0.0998287,1.137238,0.1854629,-0.147465,1.412465,0.1806629,-0.4505989,1.385527,0.01862058,0.01939912,1.402006,0.1012886,-0.4411813,1.35974,-0.1594596,-0.09951849,1.420138,0.4625824,-0.1894653,1.379008,NA,NA,Lasso,Closed,
0.09326172,0.7119141,0.7128906,-0.07958984,0.7592773,0.6875,3,-9,4,6,17,12,-3,-2,10,6,10,-13,-28,11,17,9,-20.9375,-20.9375,-20.9375,-18.8125,-18.8125,-18.8125,6.582647,5.049337,0.03496355,6.750574,5.052622,2.52906,-0.1095512,-0.1234044,1.14524,0.4870927,-0.1203346,1.123985,0.2065297,0.2867404,1.391585,-0.09072597,-0.1594936,1.133275,0.5316402,-0.1108968,1.133892,0.185519,-0.1473895,1.412463,0.1807005,-0.4504439,1.385396,0.01930282,0.01997558,1.40281,0.1013009,-0.4410858,1.359689,-0.1488687,-0.1159015,1.405322,0.4627992,-0.189778,1.379024,NA,NA,Unknown,Closed,
0.03076172,0.6791992,0.7358398,0.03369141,0.8325195,0.5454102,-3,-14,-12,-15,-16,-10,-7,1,-8,-10,1,1,1,-2,20,7,-23.875,-23.875,-23.875,-0.0625,-0.0625,-0.0625,6.536441,5.035793,9.955138,6.730538,5.009678,2.879911,-0.07226539,-0.1284452,1.133012,0.4372602,-0.1303811,1.112986,0.2069624,0.2866248,1.391827,-0.06091659,-0.1635797,1.118881,0.4825531,-0.1181385,1.120907,0.1856234,-0.1474064,1.412549,0.1806929,-0.4504347,1.385381,0.02056946,0.02037378,1.403539,0.1012727,-0.4410616,1.359681,-0.1524125,-0.1107918,1.383583,0.4475322,-0.1994689,1.383678,NA,NA,Lasso,Unknown,
-0.06982422,0.7851563,0.6645508,0.04492188,1.017578,0.2905273,4,8,7,0,-10,-23,-10,-10,-1,-5,1,4,-8,-10,-14,-17,-5.375,-5.375,-5.375,25.875,25.875,25.875,6.48821,5.034583,9.651842,6.753621,4.978271,3.198522,-0.01721056,-0.1359882,1.12805,0.3778354,-0.1471301,1.111456,0.2074085,0.286621,1.392942,0.01868403,-0.1716563,1.134167,0.4232523,-0.1254939,1.116659,0.1857403,-0.1474656,1.413115,0.1807174,-0.4504557,1.385506,0.02154887,0.02081747,1.404019,0.1012788,-0.4410569,1.359802,-0.138221,-0.1294432,1.36512,0.3999584,-0.240799,1.355165,NA,NA,Unknown,Unknown,
-0.2060547,0.9946289,0.5004883,0.2631836,1.081543,0.07958984,3,6,5,12,27,14,4,11,2,-3,-9,-12,-3,-1,-11,5,13,13,13,-7.0625,-7.0625,-7.0625,6.501679,5.041297,9.400025,6.819196,4.942556,3.396459,0.02389957,-0.1373613,1.125314,0.3382234,-0.1514063,1.112783,0.2079661,0.2865944,1.394338,0.06237233,-0.1720572,1.141071,0.3633267,-0.1246853,1.098319,0.1857971,-0.1475631,1.414286,0.180602,-0.4504976,1.386148,0.02249793,0.02101473,1.403924,0.1012212,-0.4409775,1.360464,-0.1289897,-0.1343197,1.352972,0.437867,-0.1691787,1.314024,NA,NA,Unknown,Unknown,
-0.340332,0.9750977,0.3110352,0.1660156,0.8808594,0.2089844,-2,-2,7,4,-1,-20,-1,16,3,3,8,9,-6,-7,-1,3,-12.625,-12.625,-12.625,-11.5625,-11.5625,-11.5625,6.534721,5.071031,9.283204,6.825965,4.92563,3.373176,0.03394961,-0.1365434,1.11938,0.3293071,-0.1520627,1.10844,0.2082587,0.2865108,1.395678,0.07262149,-0.1715815,1.1342,0.3529336,-0.1242197,1.092864,0.1859565,-0.1474573,1.415084,0.180437,-0.4502599,1.386789,0.02396417,0.02191894,1.403347,0.1011373,-0.4406545,1.361071,-0.1213299,-0.1371246,1.341061,0.4389462,-0.1681621,1.311574,NA,NA,Unknown,Unknown,
-0.3071289,0.8261719,0.4189453,0.1958008,0.7880859,0.4038086,-10,-10,-9,-4,-6,10,7,13,-2,-3,-3,1,-3,-9,-4,-6,-1.0625,-1.0625,-1.0625,-1.6875,-1.6875,-1.6875,6.542847,5.104578,9.291372,6.821064,4.870333,3.273298,0.02771788,-0.1468097,1.118835,0.340372,-0.1614435,1.102986,0.2087069,0.2865828,1.396188,0.06154332,-0.1823832,1.132333,0.3502314,-0.138052,1.076308,0.1860625,-0.1473933,1.415356,0.1803129,-0.4500794,1.387069,0.02363901,0.02170363,1.403145,0.1010577,-0.4404508,1.361331,-0.1209531,-0.1365135,1.340606,0.480071,-0.1469563,1.333593,NA,NA,Unknown,Unknown,
-0.2294922,0.6953125,0.5180664,0.2724609,0.6899414,0.4418945,-1,-1,-3,-4,-8,0,-9,-5,1,2,2,-2,11,-1,-5,-2,17.9375,17.9375,17.9375,17.875,17.875,17.875,6.568902,5.238349,9.330451,6.846635,4.678213,3.153897,0.01468699,-0.1747112,1.123538,0.3608215,-0.1894842,1.104053,0.2091568,0.2868085,1.396765,0.04188852,-0.2152553,1.135538,0.3697792,-0.1641853,1.078714,0.1862662,-0.1472286,1.415759,0.1803925,-0.4499154,1.387372,0.02431218,0.02170464,1.402969,0.1011245,-0.4402872,1.361547,-0.1210566,-0.1347685,1.342114,0.4575528,-0.164174,1.338699,NA,NA,Unknown,Unknown,
-0.2299805,0.6762695,0.5458984,0.2509766,0.6972656,0.3515625,5,5,-3,-3,-9,-12,-3,-1,2,-10,-7,0,-3,2,6,36,15.8125,15.8125,15.8125,43.0625,43.0625,43.0625,6.602192,5.458766,9.361965,6.90849,4.424004,3.1047,-0.002459433,-0.2189678,1.135032,0.3822098,-0.2400638,1.118346,0.2094437,0.2870993,1.397233,0.02236734,-0.2635168,1.1422,0.3971133,-0.2229346,1.094418,0.1865578,-0.1469889,1.415999,0.1810901,-0.449505,1.387565,0.02398775,0.02166862,1.403096,0.1017659,-0.4399254,1.361688,-0.1091333,-0.1466601,1.353965,0.4455607,-0.1682803,1.3263,NA,NA,Unknown,Unknown,
-0.3535156,0.6567383,0.5263672,0.6655273,0.7548828,0.4545898,4,1,1,-4,-1,-14,-3,5,-14,1,-1,0,-1,2,3,8,6,6,6,46.4375,46.4375,46.4375,6.620045,5.684365,9.382184,6.996134,4.094968,3.082034,-0.01479954,-0.2752188,1.155681,0.3857017,-0.3156809,1.139234,0.2095845,0.2872935,1.397481,0.02817399,-0.2846059,1.1765,0.3900765,-0.2927484,1.107508,0.1869382,-0.1469066,1.415932,0.1820176,-0.4494615,1.387358,0.02383311,0.02133773,1.403332,0.1026231,-0.4399462,1.361581,-0.1072547,-0.1502376,1.364087,0.4616335,-0.1638567,1.363052,NA,NA,Unknown,Unknown,
-0.5185547,0.6157227,0.5004883,0.5693359,0.7285156,0.3549805,-9,-3,-7,-8,0,3,5,-2,5,-8,-3,-1,-1,-3,-4,23,-15.125,-15.125,-15.125,27.875,27.875,27.875,6.611669,5.944657,9.394083,7.047417,3.650251,3.107293,-0.01978468,-0.3448923,1.182454,0.3977151,-0.3821982,1.183486,0.2096228,0.2874593,1.397558,0.01736565,-0.3603438,1.20125,0.4030523,-0.3603664,1.1442,0.1877092,-0.1468679,1.415457,0.1844392,-0.449785,1.386614,0.02296793,0.02078467,1.403513,0.1050493,-0.4406583,1.360509,-0.09951065,-0.1580793,1.374711,0.4294925,-0.1850092,1.371838,NA,NA,Unknown,Unknown,
-0.6347656,0.6435547,0.4482422,0.8989258,0.6005859,0.2607422,6,2,2,-4,-3,0,-4,-3,5,8,8,3,-1,-1,0,1,-21.9375,-21.9375,-21.9375,18.4375,18.4375,18.4375,6.604949,6.312573,9.448878,7.117851,3.336841,3.052519,-0.03897756,-0.3964915,1.227943,0.4047058,-0.4389023,1.232036,0.2098509,0.2876031,1.397465,-0.07562021,-0.4248383,1.258286,0.4383057,-0.4385029,1.209882,0.1887052,-0.1469602,1.414936,0.1869958,-0.450315,1.386055,0.02276925,0.02058874,1.403403,0.1075289,-0.4413848,1.359526,-0.08197259,-0.1695825,1.384768,0.4259101,-0.2000834,1.380711,NA,NA,Unknown,Lasso,
-0.8208008,0.5512695,0.3828125,1.092773,0.5400391,0.09277344,1,-3,-2,1,0,-2,0,4,-3,1,2,-1,0,1,2,-4,-48.5625,-48.5625,-48.5625,22.9375,22.9375,22.9375,6.618526,6.596733,9.548817,7.328005,3.080664,2.867551,-0.04667409,-0.4436838,1.270316,0.4100316,-0.4788424,1.278012,0.209983,0.2877176,1.397172,-0.08183604,-0.4532725,1.275545,0.439449,-0.4679243,1.24854,0.1891213,-0.1471778,1.414561,0.1878371,-0.4508057,1.386119,0.0230236,0.02072009,1.403308,0.108337,-0.4418527,1.359547,-0.06625632,-0.1815379,1.387505,0.4195527,-0.2200707,1.385214,NA,NA,Unknown,NotTracked,
-1.050781,0.3022461,0.3212891,0.9360352,0.3349609,-0.1362305,-14,-1,0,0,-1,4,-2,-8,-1,3,1,1,0,1,0,3,-25.8125,-25.8125,-25.8125,-31.4375,-31.4375,-31.4375,6.657707,6.781809,9.640761,7.610148,2.885046,2.501831,-0.05366129,-0.4739446,1.312274,0.4109417,-0.5048516,1.31571,0.2101348,0.2877839,1.395805,-0.09767189,-0.4342107,1.288,0.4429038,-0.4786063,1.299176,0.1895521,-0.1474307,1.413886,0.1886369,-0.4512947,1.38609,0.02322817,0.02066757,1.403057,0.1091016,-0.4422522,1.359459,-0.05501956,-0.1998713,1.387697,0.4108377,-0.2370482,1.386427,NA,NA,NotTracked,NotTracked,
-1.138184,0.3271484,-0.0234375,1.008301,0.2006836,-0.1977539,3,3,-3,-2,3,6,1,-3,-18,-6,-3,-2,-1,0,0,-8,-29.875,-29.875,-29.875,25.5,25.5,25.5,7.008967,7.098461,0.05873755,7.914537,2.821002,2.207411,-0.05333558,-0.4879763,1.346944,0.4090936,-0.5131761,1.346501,0.2105309,0.2879345,1.394278,-0.08665428,-0.4905625,1.336148,0.4411159,-0.5036145,1.327,0.189887,-0.147532,1.413631,0.1893133,-0.451449,1.38667,0.02355207,0.02034978,1.402778,0.1097221,-0.4423545,1.359982,-0.0397948,-0.2235386,1.394345,0.4061092,-0.2419073,1.388286,NA,NA,NotTracked,NotTracked,
-1.087402,0.359375,-0.03515625,0.9516602,0.1064453,-0.06396484,-8,-4,-3,-4,-1,6,4,-8,-2,-1,-1,-1,-1,4,7,-4,-48.3125,-48.3125,-48.3125,106.75,106.75,106.75,7.083291,7.161108,0.1832921,8.084721,2.785761,2.159807,-0.04003408,-0.4927259,1.365294,0.4088688,-0.5010643,1.363616,0.2108098,0.2881691,1.393,-0.07592899,-0.4890186,1.341737,0.4423475,-0.4893647,1.357909,0.1900194,-0.1476711,1.413336,0.1892317,-0.4517358,1.387663,0.02345338,0.01993428,1.402694,0.1096922,-0.4425341,1.360931,-0.03230138,-0.2363697,1.399059,0.4042708,-0.2428188,1.389626,NA,NA,NotTracked,NotTracked,
-1.030762,0.4194336,0.105957,0.9179688,0.4101563,0.01855469,1,2,0,-1,3,4,4,0,4,3,1,0,-2,-1,-6,3,9.375,9.375,9.375,54.875,54.875,54.875,6.876681,7.203683,0.02367296,8.159031,2.778692,2.308878,-0.02656418,-0.4966869,1.373098,0.4088179,-0.5000543,1.366589,0.210544,0.2885498,1.391709,-0.06239159,-0.5098302,1.3784,0.4456081,-0.4908872,1.365,0.1899048,-0.1477225,1.413078,0.1883586,-0.4518087,1.389034,0.02316335,0.01959945,1.402781,0.1089405,-0.442469,1.362118,-0.02889224,-0.2373296,1.401203,0.4036359,-0.2432641,1.391367,NA,NA,NotTracked,NotTracked,
-0.9931641,0.2539063,-0.07080078,0.9604492,0.159668,0.03076172,-1,0,1,0,2,7,0,3,-2,0,-1,-1,-1,-2,-2,-3,14.875,14.875,14.875,-9.3125,-9.3125,-9.3125,6.927488,7.195122,0.04223097,8.013731,2.789553,2.458931,-0.0272567,-0.4982455,1.372368,0.4093187,-0.4991937,1.365251,0.2099437,0.2887748,1.390717,-0.06321912,-0.4851364,1.384583,0.4447275,-0.4940864,1.358858,0.1898107,-0.1477335,1.41303,0.1869588,-0.4516895,1.391049,0.02274748,0.01934522,1.403192,0.107697,-0.4422296,1.363994,-0.02697173,-0.2376625,1.402808,0.4036236,-0.2434749,1.392654,NA,NA,NotTracked,NotTracked,
-1.018555,0.2714844,0.0390625,0.9663086,0.1137695,-0.01757813,1,-1,-1,0,-1,2,0,1,-2,0,-3,-1,-1,-1,1,-1,38,38,38,3.0625,3.0625,3.0625,6.960844,7.180558,0.04355944,7.93067,2.801125,2.537171,-0.0305636,-0.495048,1.365306,0.4082033,-0.4973852,1.35858,0.2093453,0.2889216,1.390347,-0.07051965,-0.4830046,1.370742,0.4435678,-0.4932629,1.352336,0.1897023,-0.1477216,1.412954,0.1866212,-0.4515667,1.391931,0.02178612,0.01891204,1.404201,0.1074137,-0.4420924,1.365071,-0.02673474,-0.2381147,1.403284,0.4034556,-0.2434596,1.392863,NA,NA,NotTracked,NotTracked,
