ALX,ALY,ALZ,ARX,ARY,ARZ,EMG0L,EMG1L,EMG2L,EMG3L,EMG4L,EMG5L,EMG6L,EMG7L,EMG0R,EMG1R,EMG2R,EMG3R,EMG4R,EMG5R,EMG6R,EMG7R,GLX,GLY,GLZ,GRX,GRY,GRZ,ORL,OPL,OYL,ORR,OPR,OYR,LHNX,LHNY,LHNZ,RHNX,RHNY,RHNZ,HX,HY,HZ,LTX,LTY,LTZ,RTX,RTY,RTZ,SpineMidX,SpineMidY,SpineMidZ,SpineBaseX,SpineBaseY,SpineBaseZ,ShoulderLeftX,ShoulderLeftY,ShoulderLeftZ,ShoulderRightX,ShoulderRightY,ShoulderRightZ,ElbowLeftX,ElbowLeftY,ElbowLeftZ,ElbowRightX,ElbowRightY,ElbowRightZ,Myo_Pose_left,Myo_Pose_Right,Kinect_pose_left,Kinect_pose_right
-0.9575195,0.2641602,0.1777344,0.9306641,0.3076172,0.04931641,-2,-1,-3,0,2,-2,2,-2,-2,0,-2,-1,-1,-2,3,-1,7.25,7.25,7.25,-4.375,-4.375,-4.375,6.442252,6.967031,9.368642,7.279188,3.005481,3.258581,-0.01989135,-0.473894,1.32603,0.3756115,-0.4978816,1.30259,0.1895403,0.290989,1.402795,-0.05975923,-0.4932042,1.3308,0.3313901,-0.4722868,1.291454,0.1739667,-0.146924,1.418353,0.1739811,-0.4513556,1.395212,0.005261139,0.0146231,1.409654,0.09549633,-0.4427863,1.369219,-0.03079073,-0.2359232,1.389215,0.3877181,-0.2309048,1.379033,NA,NA,NotTracked,NotTracked,
-0.9462891,0.2553711,0.1796875,0.925293,0.2973633,0.05419922,-1,-3,-1,-2,-3,-6,-5,-2,5,-1,-1,-1,-1,-6,-18,0,6.5625,6.5625,6.5625,-0.375,-0.375,-0.375,6.458267,6.965195,9.374345,7.26373,3.00162,3.271423,-0.01755996,-0.4724891,1.322248,0.3762551,-0.4973984,1.300778,0.1923964,0.2910669,1.401573,-0.05664968,-0.4856338,1.324296,0.3310982,-0.4691107,1.294911,0.17669,-0.1467243,1.41697,0.1764794,-0.4512351,1.39398,0.008091881,0.0157699,1.408154,0.09794232,-0.4424045,1.367803,-0.0285733,-0.2355438,1.38688,0.3889783,-0.2314131,1.377963,NA,NA,NotTracked,NotTracked,
-0.9453125,0.2607422,0.1767578,0.9360352,0.2998047,0.0546875,-7,-2,-1,0,-3,-3,-2,9,-8,-2,-2,-1,0,0,-1,-2,5.375,5.375,5.375,-3.125,-3.125,-3.125,6.471375,6.962602,9.375981,7.25178,3.00001,3.280645,-0.01707392,-0.4723049,1.32039,0.3767387,-0.4972466,1.301533,0.194795,0.2915708,1.400282,-0.05814281,-0.4797775,1.325404,0.3316662,-0.4677482,1.29494,0.1788547,-0.1463613,1.415749,0.1781768,-0.4509759,1.393097,0.009806621,0.01649244,1.406697,0.09961604,-0.4419917,1.366665,-0.02719649,-0.2345103,1.385117,0.3899595,-0.2315267,1.377316,NA,NA,NotTracked,NotTracked,
-0.9487305,0.2548828,0.1738281,0.9306641,0.3046875,0.05419922,0,0,0,-1,-2,-4,-2,-1,3,0,0,0,-3,-2,2,3,6.3125,6.3125,6.3125,-4.9375,-4.9375,-4.9375,6.488268,6.963699,9.377817,7.238772,3.00051,3.28617,-0.01688331,-0.4717321,1.31999,0.3772868,-0.4975134,1.302825,0.1968811,0.2917796,1.399389,-0.05787794,-0.4849012,1.326796,0.331682,-0.4672438,1.29387,0.1802263,-0.1463078,1.41516,0.1790516,-0.4509754,1.392782,0.01163254,0.01730268,1.405378,0.1005512,-0.4418976,1.366077,-0.02625333,-0.2338459,1.383834,0.3907278,-0.2318426,1.377124,NA,NA,NotTracked,NotTracked,
-0.9536133,0.2607422,0.1699219,0.9248047,0.3076172,0.046875,-3,-1,-2,0,1,-1,3,1,1,0,0,-1,-1,3,12,1,-0.3125,-0.3125,-0.3125,-5.25,-5.25,-5.25,6.497602,6.964167,9.381222,7.232838,3.00276,3.279918,-0.0160535,-0.4716939,1.318475,0.3773974,-0.4975885,1.301246,0.1980893,0.2918557,1.398929,-0.05875634,-0.4844224,1.326473,0.3342714,-0.4698104,1.296218,0.181376,-0.1463025,1.414405,0.1802872,-0.4509964,1.391897,0.01236152,0.01743557,1.40447,0.1017145,-0.4419092,1.365073,-0.02542547,-0.2334902,1.382732,0.3912484,-0.2321525,1.376836,NA,NA,NotTracked,NotTracked,
-0.9516602,0.2524414,0.1801758,0.921875,0.3037109,0.05566406,1,-1,-1,0,-1,3,0,0,1,0,-1,-1,0,0,-3,-2,-2.75,-2.75,-2.75,-1.375,-1.375,-1.375,6.494138,6.964227,9.382127,7.232996,3.003089,3.274126,-0.01577624,-0.4711565,1.317772,0.3772395,-0.4971265,1.301194,0.1989265,0.2918791,1.398584,-0.05605642,-0.4674731,1.319478,0.3339708,-0.469013,1.296026,0.1821733,-0.146384,1.413956,0.1809025,-0.4510278,1.391486,0.01337073,0.01768315,1.403615,0.1023197,-0.4419009,1.364492,-0.02504546,-0.2328584,1.381852,0.3916247,-0.232667,1.376755,NA,NA,NotTracked,NotTracked,
-0.9589844,0.2495117,0.1835938,0.9208984,0.3061523,0.06005859,-1,0,-1,0,-2,-9,-8,-6,0,-1,-2,-1,-2,-2,-3,-1,-0.4375,-0.4375,-0.4375,2.75,2.75,2.75,6.49299,6.964972,9.381973,7.235277,3.00351,3.274656,-0.01505956,-0.4733311,1.316158,0.3772722,-0.4967667,1.299421,0.19966,0.2917919,1.397583,-0.0580025,-0.4771754,1.323817,0.3329479,-0.467735,1.29433,0.1826223,-0.1464932,1.413393,0.1814002,-0.4512099,1.390803,0.01372906,0.01760137,1.403007,0.1027774,-0.4420221,1.363719,-0.0246677,-0.2323763,1.38107,0.3919863,-0.2329932,1.376323,NA,NA,NotTracked,NotTracked,
-0.9511719,0.2529297,0.1762695,0.9257813,0.315918,0.04638672,-1,0,0,-2,-3,-12,0,-1,1,3,1,2,1,-1,5,1,-3.125,-3.125,-3.125,0.625,0.625,0.625,6.484692,6.966474,9.376529,7.238537,3.004052,3.273982,-0.01519234,-0.4732513,1.317614,0.377712,-0.4968633,1.299816,0.2001653,0.2918112,1.397192,-0.05777489,-0.4788561,1.324564,0.336578,-0.4727232,1.287071,0.1828773,-0.1465556,1.413025,0.1816503,-0.45131,1.390465,0.01380004,0.01752657,1.40267,0.1030067,-0.4421171,1.363339,-0.02452156,-0.2323052,1.38075,0.3920993,-0.2329608,1.376238,NA,NA,NotTracked,NotTracked,
-0.9624023,0.2802734,0.1645508,0.9868164,0.4306641,-0.1577148,0,1,2,3,5,15,1,7,-1,23,10,3,5,10,16,0,-5.3125,-5.3125,-5.3125,-94.4375,-94.4375,-94.4375,6.479543,6.966575,9.378507,7.227226,3.040438,3.21746,-0.01566754,-0.4731407,1.315413,0.3764091,-0.4953941,1.296035,0.2003546,0.2916359,1.396596,-0.05805662,-0.4795948,1.322199,0.3349351,-0.4707784,1.293807,0.183206,-0.1466954,1.412223,0.1821607,-0.4514724,1.389638,0.01393178,0.01734852,1.402016,0.1034933,-0.4423493,1.362295,-0.02454028,-0.2321177,1.380296,0.3921721,-0.2330961,1.375777,NA,NA,NotTracked,NotTracked,
-1.108887,0.4868164,-0.01171875,1.173828,0.4741211,0.0009765625,-2,-10,-9,-11,-11,-11,-15,-4,2,31,13,2,-18,16,7,-7,-130.5,-130.5,-130.5,-227.1875,-227.1875,-227.1875,6.49022,6.890078,9.546629,7.028335,3.200603,3.079099,-0.0180331,-0.4639642,1.306122,0.3741984,-0.4824131,1.280557,0.200386,0.2913796,1.396119,-0.05843366,-0.4694729,1.310074,0.3426434,-0.4815993,1.2978,0.1833323,-0.1468196,1.411882,0.1823921,-0.4516752,1.389244,0.01416048,0.01726526,1.401892,0.1036385,-0.4425918,1.361862,-0.02522706,-0.2318689,1.381039,0.3927211,-0.2314975,1.376412,NA,NA,NotTracked,NotTracked,
-1.090332,0.2910156,0.3935547,0.8178711,0.7314453,0.3496094,1,5,8,-7,-58,-46,-13,-1,2,5,-24,-4,-10,0,18,4,-155.0625,-155.0625,-155.0625,-146.875,-146.875,-146.875,6.311096,6.625566,9.76101,6.782541,3.582822,2.861731,-0.03388641,-0.436981,1.266479,0.3774057,-0.4465344,1.233605,0.200482,0.2912179,1.39535,-0.06304202,-0.4679754,1.286333,0.358292,-0.432859,1.274875,0.1834478,-0.1469905,1.411382,0.1825795,-0.4517333,1.389029,0.01426863,0.01726926,1.401901,0.1037242,-0.442692,1.361756,-0.03075142,-0.2240654,1.386552,0.3960882,-0.2231495,1.381833,NA,NA,NotTracked,Lasso,
-0.7441406,0.5424805,0.6494141,0.4907227,0.8295898,0.3652344,-8,-4,-2,-15,-3,-6,-8,-9,11,5,13,4,-20,10,5,18,-77.0625,-77.0625,-77.0625,-97.1875,-97.1875,-97.1875,6.298222,6.325274,9.95282,6.748347,3.939589,2.654329,-0.04958705,-0.3907664,1.207678,0.3966824,-0.3725404,1.180759,0.2003944,0.2911735,1.394391,-0.01238297,-0.4009684,1.213818,0.3909734,-0.4022502,1.211727,0.183457,-0.1470004,1.411076,0.1825999,-0.4516766,1.388911,0.01522534,0.01756829,1.401554,0.1037028,-0.4426703,1.361737,-0.03907565,-0.2069902,1.394644,0.3991167,-0.2068729,1.388408,NA,NA,Unknown,Unknown,
-0.4780273,0.7436523,0.621582,0.3354492,0.9047852,0.4379883,3,-8,-9,-5,-3,-17,-11,-3,-12,13,11,-7,-14,2,-29,1,-89.6875,-89.6875,-89.6875,-72.625,-72.625,-72.625,6.300443,5.963384,0.1621207,6.712952,4.306959,2.48056,-0.09574793,-0.2932678,1.176388,0.443934,-0.2655861,1.156535,0.2002666,0.2912473,1.393716,-0.06037243,-0.2830203,1.167546,0.4076737,-0.2694782,1.165867,0.183061,-0.1467611,1.410792,0.1819457,-0.4511422,1.388715,0.01662064,0.01886797,1.401142,0.1028192,-0.4419876,1.361883,-0.04558826,-0.1885742,1.398238,0.4001976,-0.1953703,1.391276,NA,NA,Unknown,Unknown,
-0.2236328,0.5664063,0.7607422,0.1503906,0.6899414,0.5229492,-7,-1,0,6,-22,-4,1,1,2,-11,-10,-4,22,-25,-15,7,-52.875,-52.875,-52.875,-33.5625,-33.5625,-33.5625,6.228203,5.486403,0.3756393,6.660546,4.747928,2.290454,-0.1278326,-0.2139979,1.166346,0.4813174,-0.1907879,1.149325,0.1999856,0.2911876,1.393242,-0.06076529,-0.1963105,1.116692,0.4828247,-0.227642,1.149333,0.1824605,-0.1465161,1.410728,0.1809663,-0.4506467,1.388619,0.0167556,0.01964279,1.401381,0.1016944,-0.4414465,1.361778,-0.0590658,-0.1832578,1.398196,0.4057971,-0.1917069,1.388517,NA,NA,Unknown,Unknown,
-0.08740234,0.6289063,0.6694336,0.1308594,0.6835938,0.6044922,-3,-2,-2,0,-41,-36,-5,-2,6,3,2,2,18,-3,-6,-4,-33.5,-33.5,-33.5,-34.125,-34.125,-34.125,6.196055,5.170734,0.5130513,6.619498,4.976135,2.184954,-0.1607001,-0.1563189,1.154655,0.5127795,-0.137357,1.148999,0.1998347,0.2911347,1.393143,-0.09033699,-0.1270823,1.111765,0.5077461,-0.1687326,1.140524,0.1820531,-0.1463559,1.410698,0.1801863,-0.450353,1.388384,0.01672362,0.01975133,1.401355,0.1007753,-0.4410996,1.361535,-0.06166625,-0.1826194,1.388148,0.4240577,-0.1939313,1.379749,NA,NA,Unknown,Closed,
-0.1694336,0.4931641,0.7329102,0.1313477,0.5888672,0.6186523,1,-1,-2,-4,-25,13,1,0,1,-5,-4,4,11,10,7,0,-15.5,-15.5,-15.5,-27.6875,-27.6875,-27.6875,6.15416,4.98771,0.5862039,6.547044,5.10078,2.129627,-0.1770477,-0.1238988,1.144137,0.5255398,-0.1055631,1.1462,0.1997541,0.2911178,1.393117,-0.09953745,-0.09671837,1.099539,0.5535124,-0.109884,1.134154,0.1815562,-0.1461543,1.410792,0.1795291,-0.4499616,1.38822,0.01679302,0.01978301,1.400777,0.1000419,-0.44074,1.361383,-0.07098042,-0.1786242,1.377352,0.4262741,-0.1999481,1.385374,NA,NA,Unknown,Closed,
-0.1914063,0.4482422,0.7431641,0.05615234,0.5644531,0.7011719,-11,-1,2,2,-6,48,14,10,-7,18,8,3,-5,-21,2,10,21.8125,21.8125,21.8125,-14.5625,-14.5625,-14.5625,6.153627,4.920774,0.5556147,6.492908,5.105198,2.198185,-0.1716649,-0.1164598,1.133296,0.5202169,-0.1001745,1.138889,0.1996477,0.2910172,1.393048,-0.09838424,-0.101408,1.084111,0.5133902,-0.1295647,1.12524,0.1813278,-0.1460218,1.410743,0.1791903,-0.4496774,1.387924,0.01667501,0.02001654,1.400283,0.09969358,-0.4405288,1.361202,-0.07722776,-0.1747453,1.364727,0.4267766,-0.2015758,1.3856,NA,NA,Unknown,Closed,
-0.05029297,0.402832,0.7880859,0.04638672,0.5820313,0.7348633,-5,-3,2,11,11,-11,-3,-5,-6,6,-7,-7,-11,-23,-33,-10,32,32,32,-19.0625,-19.0625,-19.0625,6.210235,4.924235,0.3352879,6.445666,5.039272,2.388453,-0.1419533,-0.1259214,1.123182,0.4893433,-0.1102146,1.122927,0.199375,0.2910943,1.393102,-0.07604194,-0.1193273,1.079636,0.4373678,-0.0980476,1.098,0.1812241,-0.145935,1.410734,0.1791992,-0.4495205,1.38778,0.01629212,0.01984779,1.399091,0.09967602,-0.4403993,1.361026,-0.08397106,-0.1692529,1.346961,0.4257258,-0.2022878,1.381177,NA,NA,Unknown,Closed,
-0.07226563,0.472168,0.777832,0.004394531,0.7260742,0.7231445,-5,-2,-7,-12,-20,23,11,-4,21,33,4,-1,44,2,6,21,-15.125,-15.125,-15.125,-4.9375,-4.9375,-4.9375,6.213291,4.970474,0.1060379,6.42434,4.969619,2.691959,-0.09024543,-0.1437656,1.112594,0.429143,-0.1307756,1.107036,0.1992451,0.2910683,1.39312,-0.08212007,-0.1812329,1.100436,0.3557616,-0.1209791,1.0795,0.1810087,-0.1458531,1.410645,0.1787614,-0.449303,1.387478,0.01628808,0.02021506,1.397986,0.09916843,-0.4401574,1.360635,-0.08396881,-0.1680994,1.342,0.4127826,-0.2089026,1.380137,NA,NA,Unknown,Unknown,
-0.03027344,0.6376953,0.8237305,0.1176758,1.082031,0.449707,0,-16,-4,-3,-10,-13,-5,-11,-28,7,3,8,-1,-5,13,-15,-36.4375,-36.4375,-36.4375,18.375,18.375,18.375,6.158246,5.035451,9.839799,6.440894,4.887125,3.104729,-0.0250741,-0.1640106,1.107264,0.3647665,-0.1564352,1.100199,0.1991808,0.2910565,1.393162,0.01219287,-0.2036738,1.131,0.3158869,-0.1596967,1.0974,0.180804,-0.1458001,1.410624,0.1785448,-0.4492219,1.387294,0.01707421,0.02174229,1.396216,0.09887892,-0.4400068,1.360222,-0.0924871,-0.1601495,1.335234,0.3816511,-0.1865849,1.342731,NA,NA,Unknown,Closed,
-0.08740234,0.9208984,0.7329102,0.2802734,1.255371,0.1972656,-3,0,2,-2,6,-8,1,6,-15,12,3,-1,9,17,34,-3,-34.625,-34.625,-34.625,-8.9375,-8.9375,-8.9375,6.088343,5.096899,9.606966,6.481048,4.83905,3.243461,0.01793694,-0.174327,1.104295,0.3241139,-0.1689766,1.098657,0.1991093,0.2910363,1.393187,0.0608336,-0.2120024,1.134667,0.285349,-0.194438,1.12225,0.1805594,-0.14585,1.410609,0.1780994,-0.449237,1.387192,0.01738356,0.02154282,1.395032,0.09853351,-0.4400038,1.360111,-0.06748699,-0.1683717,1.317557,0.3901146,-0.1831865,1.333395,NA,NA,Unknown,Unknown,
-0.2324219,1.130859,0.5039063,0.2192383,1.071777,0.2407227,0,-2,-2,-7,-4,-18,-9,-3,14,3,-2,-7,-2,-5,-13,-12,-28.625,-28.625,-28.625,3.625,3.625,3.625,6.095073,5.137297,9.511827,6.534632,4.823892,3.226941,0.01973892,-0.173606,1.100883,0.3205407,-0.1692533,1.097556,0.1989063,0.2910568,1.393152,0.06238183,-0.2101772,1.125,0.2808284,-0.1888659,1.120996,0.1800068,-0.1457832,1.410501,0.1770466,-0.4489199,1.387202,0.01825574,0.02174685,1.393633,0.09761707,-0.4395781,1.360103,-0.05978316,-0.1704577,1.314294,0.3908542,-0.1820441,1.330569,NA,NA,Unknown,Unknown,
-0.2402344,0.9648438,0.5605469,0.1474609,0.9614258,0.4306641,5,1,0,-4,-13,-8,-1,-1,-8,13,11,-3,-20,-14,0,-30,11.5,11.5,11.5,11.9375,11.9375,11.9375,6.151062,5.144396,9.592485,6.622124,4.845376,3.001564,-0.008369605,-0.1683062,1.099209,0.3492221,-0.1641314,1.096346,0.1985524,0.2911151,1.392989,0.01967143,-0.2054887,1.115846,0.2724379,-0.1563917,1.0838,0.1795824,-0.1458131,1.410373,0.1767469,-0.4490165,1.387123,0.01843862,0.02176715,1.393017,0.09730864,-0.4396555,1.359983,-0.05955245,-0.1717107,1.317462,0.3870711,-0.1834137,1.332525,NA,NA,Unknown,Closed,
-0.199707,0.7768555,0.6850586,0.1132813,0.8613281,0.5615234,-6,-1,2,-11,2,7,-4,-15,2,-6,-2,5,4,5,-2,-18,37.9375,37.9375,37.9375,11.5,11.5,11.5,6.26602,5.1477,9.835363,6.663175,4.877525,2.735472,-0.05954334,-0.1646034,1.105355,0.4031952,-0.1569127,1.096634,0.1978555,0.291018,1.392277,-0.003574994,-0.1768143,1.129571,0.3275853,-0.1539667,1.07425,0.1789709,-0.1459955,1.409814,0.1762812,-0.449252,1.386552,0.01813795,0.02216068,1.39246,0.09671793,-0.4399037,1.3592,-0.06493183,-0.1723041,1.327578,0.3890918,-0.1841638,1.341647,NA,NA,Unknown,Unknown,
-0.1923828,0.6826172,0.7929688,0.1254883,0.7895508,0.7075195,8,2,-1,5,12,-19,-9,21,-11,8,6,-1,12,8,4,1,46.125,46.125,46.125,4.875,4.875,4.875,6.351891,5.146669,0.05592263,6.686129,4.910257,2.468657,-0.1174711,-0.1610114,1.116559,0.4648258,-0.1473915,1.108003,0.1975638,0.2909479,1.391728,-0.03868014,-0.1531866,1.086,0.4000986,-0.1422868,1.075,0.1785742,-0.1461592,1.409033,0.1761407,-0.4495243,1.385831,0.01733785,0.0217195,1.392759,0.09656563,-0.4402502,1.358407,-0.09218541,-0.162162,1.340284,0.4155404,-0.2020519,1.357206,NA,NA,Unknown,Closed,
-0.09179688,0.6137695,0.8505859,0.05664063,0.6679688,0.7314453,-9,-5,-4,1,15,-12,-13,-14,-14,-13,-2,10,7,-11,-49,-36,40.625,40.625,40.625,8.8125,8.8125,8.8125,6.413929,5.131943,0.2559045,6.680305,4.94121,2.218546,-0.162322,-0.1551376,1.131991,0.5109595,-0.1418985,1.125357,0.1969115,0.2911201,1.390676,-0.08186322,-0.1520668,1.087889,0.4657868,-0.131903,1.077389,0.1782284,-0.1460497,1.407959,0.1760295,-0.4495158,1.384922,0.01589168,0.02124169,1.392747,0.0964737,-0.4403138,1.357795,-0.1040279,-0.1583902,1.354346,0.4332454,-0.1888621,1.348464,NA,NA,Unknown,Closed,
0.008789063,0.5083008,0.8168945,0.03662109,0.6323242,0.7563477,-13,-5,-1,4,5,-20,-10,-14,-27,-17,-8,-3,10,2,-15,-43,14.5625,14.5625,14.5625,2.375,2.375,2.375,6.436391,5.107746,0.4272131,6.652491,4.936968,2.141459,-0.1865934,-0.1529389,1.141835,0.5341189,-0.1400359,1.138673,0.1965266,0.2911996,1.3903,-0.108363,-0.1570624,1.096632,0.5313786,-0.0987374,1.14685,0.1775331,-0.1457851,1.406956,0.1756155,-0.4493464,1.383879,0.01481114,0.0205579,1.394103,0.09609068,-0.4402069,1.356876,-0.1142564,-0.1535004,1.3644,0.4392114,-0.1853095,1.353784,NA,NA,Unknown,Closed,
-0.05322266,0.5629883,0.7705078,0.004394531,0.6333008,0.7651367,5,1,-2,4,9,-15,-2,1,-1,12,7,-1,-4,-8,2,11,-2.625,-2.625,-2.625,-10.9375,-10.9375,-10.9375,6.411501,5.11721,0.4707808,6.600534,4.921545,2.172089,-0.1917582,-0.1586394,1.143267,0.5295745,-0.1445927,1.137298,0.1961852,0.2913065,1.390055,-0.1634264,-0.1325159,1.123,0.5296879,-0.1043704,1.137226,0.1771447,-0.1455776,1.40622,0.17552,-0.4492628,1.383109,0.01379257,0.02013716,1.393885,0.09599602,-0.4401926,1.356082,-0.118958,-0.1513601,1.367791,0.4219866,-0.1888393,1.390274,NA,NA,Unknown,Closed,
-0.08789063,0.5107422,0.8984375,0.05957031,0.7128906,0.7416992,1,1,11,4,13,5,26,20,-6,20,11,0,-21,-14,-20,-21,-0.1875,-0.1875,-0.1875,-17.75,-17.75,-17.75,6.363679,5.158745,0.3966194,6.536875,4.900176,2.315561,-0.168482,-0.1712717,1.136467,0.500213,-0.1522793,1.12549,0.1956033,0.2913426,1.390011,-0.1335486,-0.1468598,1.115704,0.4913543,-0.1135429,1.128217,0.1764825,-0.1454446,1.405852,0.1749234,-0.4492756,1.38264,0.01261408,0.01976661,1.393988,0.09540752,-0.4402203,1.355614,-0.1176608,-0.1533752,1.364452,0.426677,-0.188188,1.361786,NA,NA,Unknown,Closed,
-0.1655273,0.5644531,0.8339844,0.1704102,0.7978516,0.6640625,0,-4,-2,13,24,15,1,-3,4,-3,1,-2,-24,-13,-16,8,-23.4375,-23.4375,-23.4375,6.1875,6.1875,6.1875,6.274407,5.198854,0.1373271,6.48827,4.864379,2.69755,-0.1176635,-0.182879,1.123415,0.4374081,-0.1642933,1.102957,0.1947121,0.2913832,1.390144,-0.1091308,-0.1492172,1.10952,0.3903553,-0.1648304,1.076083,0.1762336,-0.1453601,1.405814,0.1746147,-0.4491816,1.382475,0.01238191,0.02008192,1.394176,0.09509189,-0.4401283,1.355438,-0.1125625,-0.1557717,1.353747,0.4205747,-0.1882918,1.332273,NA,NA,Unknown,Closed,
-0.144043,0.7661133,0.8061523,0.1142578,0.9814453,0.5180664,-1,-2,-5,1,7,-4,-2,14,0,-9,-8,-6,-9,-4,-20,10,-33.5625,-33.5625,-33.5625,26.875,26.875,26.875,6.186906,5.186712,9.880356,6.500281,4.856576,3.048434,-0.05062956,-0.1888696,1.109699,0.3649071,-0.1730846,1.096233,0.1939215,0.2913032,1.390578,-0.06020601,-0.1547105,1.095959,0.2955287,-0.1736585,1.0764,0.1758663,-0.145317,1.405894,0.1742016,-0.4491811,1.382473,0.01220296,0.02021002,1.393713,0.09468258,-0.4401049,1.355424,-0.119844,-0.1508972,1.357213,0.3930635,-0.1838536,1.345407,NA,NA,Unknown,Unknown,
-0.2568359,1.067383,0.5864258,0.25,1.204102,0.1928711,-4,-3,0,-3,8,18,2,-2,-33,-12,-7,-6,13,-4,-9,-14,-31.9375,-31.9375,-31.9375,-15.5625,-15.5625,-15.5625,6.128087,5.133195,9.625741,6.516156,4.877515,3.232149,-0.0107754,-0.1812821,1.101084,0.3231893,-0.1685954,1.095467,0.1930104,0.2913159,1.391243,-0.04073521,-0.1584766,1.086764,0.293393,-0.2048459,1.126714,0.1751159,-0.1453187,1.406212,0.173044,-0.4492591,1.382673,0.01183546,0.02016937,1.392254,0.09354185,-0.4400962,1.35567,-0.06432093,-0.1780064,1.331246,0.3943985,-0.1816918,1.330487,NA,NA,Unknown,Unknown,
-0.2329102,0.9980469,0.4858398,0.2368164,0.8637695,0.2871094,2,3,2,-1,-14,-6,7,4,-2,-12,-8,-5,-9,-6,-32,1,-21.9375,-21.9375,-21.9375,8.5,8.5,8.5,6.131333,5.093271,9.582577,6.547226,4.891923,3.257688,-0.0007708318,-0.1702804,1.093855,0.3141,-0.1623293,1.091617,0.1921455,0.2913806,1.391589,0.03912005,-0.2064101,1.111778,0.2746736,-0.1866504,1.118864,0.1744894,-0.1451476,1.406448,0.1723506,-0.4488403,1.382889,0.01224754,0.02064849,1.391209,0.09296285,-0.4396477,1.355958,-0.06475902,-0.1749997,1.321655,0.3949046,-0.1801658,1.32372,NA,NA,Unknown,Unknown,
-0.1889648,0.8398438,0.5776367,0.159668,0.7539063,0.4604492,-9,-3,-4,1,19,15,5,-11,-3,-5,-5,-4,-20,-1,1,-15,17.25,17.25,17.25,30.1875,30.1875,30.1875,6.159803,5.07596,9.593514,6.604844,4.853131,3.2246,-0.008280856,-0.1664253,1.091541,0.3213135,-0.1662688,1.091513,0.1912699,0.2913281,1.39192,0.02192852,-0.205853,1.108778,0.2848559,-0.1926617,1.1347,0.1737457,-0.1450396,1.406632,0.1718059,-0.4486134,1.383063,0.01239125,0.02086085,1.391383,0.09251626,-0.4394434,1.356122,-0.06622219,-0.1732216,1.318663,0.3955578,-0.1787997,1.32224,NA,NA,Unknown,Unknown,
-0.1298828,0.6733398,0.6323242,0.2011719,0.7006836,0.5488281,0,0,1,3,3,10,0,-4,0,2,5,0,5,-24,-2,-8,37.625,37.625,37.625,24.4375,24.4375,24.4375,6.234092,5.072983,9.603633,6.641986,4.762332,3.17756,-0.02449487,-0.1745715,1.095153,0.3353767,-0.1826249,1.093783,0.1905497,0.291355,1.392294,0.005734859,-0.2167411,1.110182,0.3052934,-0.2142634,1.122643,0.1735388,-0.1450109,1.406772,0.1717418,-0.4485641,1.383124,0.01196546,0.02087189,1.391334,0.09245272,-0.4393979,1.356192,-0.07071333,-0.1722137,1.320964,0.4065059,-0.1741969,1.317533,NA,NA,Unknown,Unknown,
-0.2241211,0.5415039,0.6914063,0.2348633,0.6855469,0.4770508,1,-1,-1,-2,-2,6,2,6,-5,-5,0,-1,-5,-6,-2,5,39.75,39.75,39.75,37.625,37.625,37.625,6.313464,5.172346,9.61223,6.708335,4.568803,3.132154,-0.03411681,-0.2001323,1.102204,0.3471588,-0.2134275,1.101772,0.1901794,0.291461,1.39234,-0.05702034,-0.2223956,1.070636,0.3224953,-0.2536209,1.127333,0.1733901,-0.1448662,1.406812,0.1717285,-0.4484023,1.383089,0.01149654,0.02084798,1.391435,0.09243269,-0.4392633,1.356196,-0.138257,-0.1362581,1.378115,0.4105978,-0.1719712,1.314256,NA,NA,Unknown,Unknown,
-0.2036133,0.527832,0.6782227,0.4121094,0.6933594,0.4956055,-14,-5,-5,-3,-1,4,1,-17,-3,-1,0,-2,-15,4,11,-10,31,31,31,46.1875,46.1875,46.1875,6.337375,5.259062,9.608095,6.776669,4.344307,3.11775,-0.04097018,-0.2442522,1.115337,0.3562424,-0.2604973,1.121976,0.1899498,0.2914767,1.392328,0.003078844,-0.2512101,1.139167,0.316651,-0.2700224,1.158,0.1733388,-0.1448433,1.406758,0.1719254,-0.4484057,1.382929,0.01066019,0.02062015,1.391329,0.09261344,-0.4393147,1.356074,-0.1361174,-0.1392975,1.375417,0.417349,-0.1707344,1.314505,NA,NA,Unknown,Lasso,
-0.2529297,0.5688477,0.6811523,0.4741211,0.7290039,0.3984375,-1,2,7,1,-2,19,12,27,0,9,0,1,4,-3,-2,0,30.8125,30.8125,30.8125,53.875,53.875,53.875,6.376066,5.5339,9.58014,6.852918,4.079214,3.136616,-0.03974993,-0.3077918,1.13125,0.3527267,-0.3329265,1.141352,0.1898671,0.2914958,1.392256,-0.02664782,-0.281969,1.113667,0.3212736,-0.3472134,1.168583,0.1734578,-0.144898,1.406495,0.1727468,-0.4485936,1.382297,0.009972657,0.02019855,1.392719,0.09337293,-0.4395978,1.355495,-0.1208735,-0.1526825,1.365833,0.3974102,-0.1814339,1.352958,NA,NA,Unknown,Lasso,
-0.5244141,0.5966797,0.5800781,0.7075195,0.5981445,0.4169922,1,1,18,6,11,51,6,-2,-38,-13,7,0,0,-3,-5,-21,21.125,21.125,21.125,54.0625,54.0625,54.0625,6.397936,5.998958,9.523284,6.933815,3.656467,3.177614,-0.04119883,-0.3771919,1.163226,0.363679,-0.3987324,1.183547,0.1899664,0.2915417,1.392068,-0.02904856,-0.3497991,1.14083,0.3924817,-0.4161817,1.1736,0.1738953,-0.1450831,1.405933,0.1743965,-0.4490227,1.381445,0.009512831,0.01998375,1.392922,0.09502541,-0.4401873,1.35452,-0.08053847,-0.1773417,1.368057,0.3981616,-0.1861052,1.360251,NA,NA,Unknown,Unknown,
-0.6289063,0.5805664,0.5693359,0.9145508,0.512207,0.1635742,6,18,0,4,-1,-3,0,1,4,5,-1,0,1,4,1,6,9.3125,9.3125,9.3125,81.75,81.75,81.75,6.38605,6.303463,9.489343,7.063948,3.306392,3.16985,-0.04352493,-0.425933,1.216405,0.3758083,-0.4574402,1.231714,0.1901411,0.2915247,1.391729,-0.02186894,-0.4062386,1.198494,0.4095089,-0.4642045,1.222546,0.1741485,-0.1454827,1.405374,0.1750003,-0.4497997,1.381137,0.008761256,0.01925321,1.392799,0.0956903,-0.4410054,1.354194,-0.06607261,-0.1844125,1.370687,0.3964328,-0.2059089,1.365445,NA,NA,Unknown,Lasso,
-0.9077148,0.4086914,0.4521484,1.211914,0.4165039,0.01416016,5,-5,-7,-3,-6,-5,-2,2,23,15,2,0,-1,-2,0,5,17.5,17.5,17.5,79.6875,79.6875,79.6875,6.399612,6.631597,9.478742,7.392547,3.019572,2.959303,-0.0401529,-0.4764411,1.2698,0.3840463,-0.4931921,1.28594,0.1908073,0.2914608,1.39104,-0.01472556,-0.4544803,1.253903,0.419367,-0.4863421,1.267579,0.1744567,-0.1459331,1.404887,0.1755481,-0.4506514,1.380893,0.008795102,0.01863606,1.392185,0.09626149,-0.4418899,1.354,-0.04851202,-0.2112384,1.372693,0.3907624,-0.2257481,1.367676,NA,NA,Unknown,NotTracked,
-1.188477,0.2680664,0.2075195,1.073242,0.1547852,-0.2333984,-5,-1,0,1,2,9,3,-1,-4,-1,0,-2,-4,-1,-5,1,39.6875,39.6875,39.6875,5.625,5.625,5.625,6.474873,6.936996,9.499166,7.757045,2.83862,2.637026,-0.03342219,-0.5041144,1.323627,0.3876767,-0.5066991,1.326357,0.1916249,0.2911766,1.390268,0.006898385,-0.4770765,1.317385,0.4250911,-0.4904239,1.321273,0.1748972,-0.1462816,1.404659,0.1758409,-0.451057,1.380879,0.008960389,0.01825399,1.392074,0.09659384,-0.4422932,1.353848,-0.0386294,-0.2308931,1.373722,0.387359,-0.2358259,1.370447,NA,NA,NotTracked,NotTracked,
-1.13916,0.8071289,-0.418457,0.9301758,0.5166016,-0.07958984,-11,-6,-3,-3,-8,-7,-4,17,-2,-2,-4,-2,1,1,-2,-2,77.625,77.625,77.625,-31.25,-31.25,-31.25,6.683436,7.114065,9.592422,7.881222,2.852683,2.514016,-0.0268508,-0.4919018,1.345666,0.3885203,-0.5115867,1.33996,0.1932579,0.2907682,1.388498,0.01054127,-0.4617884,1.310412,0.4223258,-0.5090501,1.331062,0.1751194,-0.1465557,1.404384,0.1758202,-0.4512297,1.381066,0.009199768,0.01790912,1.391756,0.09660344,-0.4423397,1.353871,-0.03570959,-0.2354276,1.377235,0.3870383,-0.2386827,1.374301,NA,NA,NotTracked,NotTracked,
-1.049316,0.2758789,0.1054688,0.9589844,0.1044922,0.03271484,0,2,-1,2,0,0,-4,-3,-4,-3,-1,-1,0,2,3,-1,-131.375,-131.375,-131.375,-23.6875,-23.6875,-23.6875,6.693881,7.131426,9.804853,7.722069,2.870227,2.585315,-0.03167192,-0.4903554,1.344664,0.3924751,-0.5113633,1.338574,0.1945001,0.2905521,1.387293,0.01166111,-0.4871942,1.318125,0.4273342,-0.5003794,1.331177,0.1754066,-0.1469086,1.404062,0.1757467,-0.4514937,1.3813,0.009242337,0.0177716,1.391721,0.09654635,-0.4425186,1.35403,-0.03630205,-0.2376685,1.382146,0.3891802,-0.241587,1.380453,NA,NA,NotTracked,NotTracked,
-0.9394531,0.09375,0.2651367,0.8725586,0.2382813,0.1362305,-1,-4,-2,-1,-5,-7,-6,-9,3,1,0,0,1,1,1,-1,20.4375,20.4375,20.4375,66.0625,66.0625,66.0625,6.620113,7.122642,9.7629,7.606891,2.880259,2.81776,-0.03930527,-0.4883837,1.342423,0.3929139,-0.508724,1.339364,0.1952256,0.2904597,1.38655,0.007735895,-0.4785483,1.32295,0.4341996,-0.4903523,1.3396,0.1755867,-0.1469137,1.403997,0.1759218,-0.4514116,1.381606,0.009301563,0.01783859,1.391798,0.0967189,-0.4424282,1.354233,-0.0380897,-0.2376087,1.386025,0.3917896,-0.2405932,1.38461,NA,NA,NotTracked,NotTracked,
