ALX,ALY,ALZ,ARX,ARY,ARZ,EMG0L,EMG1L,EMG2L,EMG3L,EMG4L,EMG5L,EMG6L,EMG7L,EMG0R,EMG1R,EMG2R,EMG3R,EMG4R,EMG5R,EMG6R,EMG7R,GLX,GLY,GLZ,GRX,GRY,GRZ,ORL,OPL,OYL,ORR,OPR,OYR,LHNX,LHNY,LHNZ,RHNX,RHNY,RHNZ,HX,HY,HZ,LTX,LTY,LTZ,RTX,RTY,RTZ,SpineMidX,SpineMidY,SpineMidZ,SpineBaseX,SpineBaseY,SpineBaseZ,ShoulderLeftX,ShoulderLeftY,ShoulderLeftZ,ShoulderRightX,ShoulderRightY,ShoulderRightZ,ElbowLeftX,ElbowLeftY,ElbowLeftZ,ElbowRightX,ElbowRightY,ElbowRightZ,Myo_Pose_left,Myo_Pose_Right,Kinect_pose_left,Kinect_pose_right
0.9633789,-0.2172852,-0.1279297,0.8989258,0.3813477,0.02587891,-2,-1,-2,0,-3,-1,-2,-2,-2,-2,-1,1,0,0,-2,1,0.375,0.375,0.375,0.4375,0.4375,0.4375,1.643968,2.910563,7.657631,7.402581,3.13108,0.1778352,-0.1328482,-0.5081857,1.743798,0.2879587,-0.4746272,1.735345,0.0721167,0.3154107,1.809445,-0.09740851,-0.4783484,1.700112,0.2761948,-0.4727646,1.696272,0.06621601,-0.1296487,1.817561,0.07232288,-0.4231091,1.794246,-0.113681,0.05361279,1.836992,-0.0003983088,-0.4177021,1.762149,-0.1465198,-0.2151261,1.864948,0.2839953,-0.2163193,1.871361,NA,NA,NotTracked,NotTracked,
0.9614258,-0.2177734,-0.1235352,0.894043,0.3725586,0.02441406,0,0,-2,-2,-2,-1,-2,-3,1,-1,-2,-4,-1,0,-1,-2,-0.125,-0.125,-0.125,-0.25,-0.25,-0.25,1.643968,2.910563,7.657631,7.402581,3.13108,0.1778352,-0.1324952,-0.5070547,1.74185,0.2894139,-0.475052,1.735811,0.07218418,0.3154242,1.809501,-0.09781803,-0.4943832,1.692091,0.2757955,-0.4716395,1.69621,0.06633939,-0.1295902,1.817385,0.07237124,-0.4230826,1.794244,-0.1136776,0.05360493,1.836995,-0.0003494635,-0.4176758,1.762148,-0.146601,-0.2150976,1.864924,0.2840067,-0.2163626,1.871375,NA,NA,NotTracked,NotTracked,
0.9604492,-0.2231445,-0.1318359,0.8994141,0.3842773,0.02587891,0,0,0,0,0,-1,0,-3,-1,1,1,4,1,-1,-1,-2,-0.0625,-0.0625,-0.0625,-0.125,-0.125,-0.125,1.64419,2.910694,7.657428,7.402233,3.131671,0.177839,-0.1329829,-0.5068223,1.743966,0.2877799,-0.4825032,1.729554,0.07224178,0.3154522,1.809511,-0.09734427,-0.4732979,1.701546,0.272932,-0.4718217,1.695384,0.06637283,-0.1294925,1.816766,0.0723236,-0.4230722,1.794185,-0.1136752,0.05361534,1.836987,-0.0004159882,-0.4176674,1.762059,-0.1466001,-0.2152966,1.864884,0.2840112,-0.2162164,1.87133,NA,NA,NotTracked,NotTracked,
0.9619141,-0.222168,-0.1235352,0.8964844,0.3847656,0.02392578,0,0,-1,-2,-1,0,-2,-1,-3,1,-2,-2,-1,0,-1,-2,-0.6875,-0.6875,-0.6875,0.1875,0.1875,0.1875,1.64419,2.910694,7.657428,7.401892,3.131778,0.178275,-0.1326265,-0.5034348,1.743788,0.2885643,-0.481937,1.73169,0.07227799,0.3154671,1.809508,-0.0971895,-0.4733344,1.701609,0.2771322,-0.5148422,1.685353,0.06635334,-0.1295222,1.816878,0.07230689,-0.4230552,1.794119,-0.1136643,0.05360717,1.836969,-0.0004199861,-0.4176526,1.761978,-0.1466673,-0.215543,1.864648,0.2839975,-0.2163236,1.871252,NA,NA,NotTracked,NotTracked,
0.9575195,-0.2211914,-0.1303711,0.8930664,0.3701172,0.02246094,-4,-1,-3,-5,-1,1,0,-3,1,-3,-1,-2,-1,1,-1,-2,-0.125,-0.125,-0.125,-0.1875,-0.1875,-0.1875,1.64419,2.910694,7.657428,7.401776,3.131423,0.1777402,-0.1327374,-0.5035495,1.743893,0.2833439,-0.4534471,1.740277,0.07233383,0.3154466,1.809461,-0.09733224,-0.4751255,1.700106,0.2781247,-0.4734646,1.689179,0.06642334,-0.1294845,1.816672,0.07233903,-0.4230395,1.794092,-0.1136535,0.05362964,1.83696,-0.0003941242,-0.41763,1.76194,-0.1465032,-0.2157308,1.8646,0.2840028,-0.2164108,1.871224,NA,NA,NotTracked,NotTracked,
0.9663086,-0.2216797,-0.1181641,0.90625,0.3852539,0.02539063,-1,-1,-4,0,0,-1,-2,-2,-2,-1,0,-4,-1,-1,-3,-1,1.5625,1.5625,1.5625,-0.25,-0.25,-0.25,1.646802,2.9099,7.655948,7.401417,3.131717,0.1780358,-0.1333077,-0.5070308,1.74358,0.2852684,-0.4773138,1.729034,0.07234924,0.3153683,1.809472,-0.09731172,-0.4701429,1.7027,0.2650383,-0.4549251,1.700377,0.06642587,-0.12948,1.816589,0.07233534,-0.4230439,1.794093,-0.1136424,0.05361834,1.836958,-0.0004040353,-0.4176422,1.761933,-0.146485,-0.2156018,1.86457,0.2839972,-0.216439,1.871312,NA,NA,NotTracked,NotTracked,
0.9648438,-0.2202148,-0.1313477,0.894043,0.371582,0.02099609,1,-1,0,-1,0,-1,-1,-1,-2,2,2,-1,0,0,0,-2,-0.3125,-0.3125,-0.3125,0.3125,0.3125,0.3125,1.647402,2.90974,7.656017,7.402388,3.131216,0.1774887,-0.1326846,-0.5067275,1.742532,0.2874737,-0.4773145,1.732121,0.07231486,0.3153256,1.80947,-0.09701173,-0.475424,1.6995,0.2673092,-0.4592417,1.699058,0.06644081,-0.1295247,1.816381,0.07230803,-0.4230757,1.794036,-0.1136343,0.05361859,1.836942,-0.0004443343,-0.4176731,1.7618,-0.1464409,-0.2155355,1.864533,0.2839999,-0.2163881,1.871276,NA,NA,NotTracked,NotTracked,
0.9628906,-0.2192383,-0.1293945,0.8950195,0.3818359,0.02685547,-1,-1,-1,-2,-1,-1,-1,0,-4,-3,-2,0,-2,-2,0,-2,1.625,1.625,1.625,-1.5,-1.5,-1.5,1.649319,2.909863,7.655602,7.401433,3.132102,0.1766038,-0.1324353,-0.5066087,1.742428,0.2880083,-0.4780362,1.731748,0.07230437,0.3153775,1.809411,-0.09712423,-0.4774714,1.69881,0.2692502,-0.4629149,1.697187,0.06640209,-0.1295346,1.816502,0.0722905,-0.4230552,1.794002,-0.11361,0.0536433,1.836932,-0.0004636587,-0.4176261,1.761767,-0.1464915,-0.2154409,1.864434,0.284003,-0.216462,1.871299,NA,NA,NotTracked,NotTracked,
0.965332,-0.2236328,-0.1298828,0.894043,0.3857422,0.02001953,-1,1,-1,-2,-1,0,2,5,1,0,1,-4,-1,0,0,-1,0.5625,0.5625,0.5625,-2.0625,-2.0625,-2.0625,1.649596,2.910044,7.655453,7.400367,3.133154,0.1752103,-0.1327145,-0.5064285,1.743203,0.2778778,-0.474402,1.723696,0.07229558,0.3153932,1.809381,-0.09699195,-0.4733534,1.701609,0.2635066,-0.4905067,1.675429,0.06634628,-0.1295068,1.816341,0.07226576,-0.4230363,1.793974,-0.1136084,0.05362472,1.836918,-0.000492201,-0.4176082,1.761739,-0.1464752,-0.2153742,1.864421,0.2840168,-0.2164904,1.871315,NA,NA,NotTracked,NotTracked,
0.9609375,-0.230957,-0.1293945,0.8916016,0.3847656,0.02783203,-1,-2,-1,0,-2,0,-1,-3,2,1,2,-3,0,0,0,0,-0.6875,-0.6875,-0.6875,-0.4375,-0.4375,-0.4375,1.649146,2.909713,7.655443,7.399788,3.134036,0.1737387,-0.1330917,-0.5075834,1.7433,0.2786971,-0.4737642,1.725087,0.07229277,0.315373,1.809366,-0.09793542,-0.489529,1.695132,0.2650744,-0.4870332,1.677818,0.06634594,-0.1295802,1.816592,0.07230408,-0.4230448,1.794015,-0.1136043,0.05364848,1.836935,-0.0004505574,-0.4176065,1.761777,-0.1466743,-0.2150842,1.864482,0.2840385,-0.2164685,1.871406,NA,NA,NotTracked,NotTracked,
0.9614258,-0.2128906,-0.1279297,0.8950195,0.3808594,0.02148438,0,-2,-2,2,-1,0,-4,-1,3,1,-1,-1,-3,-2,-1,-2,-0.125,-0.125,-0.125,-0.1875,-0.1875,-0.1875,1.649203,2.909763,7.655496,7.399788,3.134036,0.1737387,-0.1328577,-0.5069613,1.743396,0.2798772,-0.477198,1.724553,0.07228162,0.315336,1.809363,-0.09691116,-0.4713907,1.7025,0.26717,-0.4945486,1.678143,0.06627548,-0.1296125,1.816844,0.07230147,-0.4230455,1.794038,-0.1136161,0.0536645,1.83696,-0.0004555412,-0.4176143,1.761821,-0.1465836,-0.2152729,1.864479,0.2841636,-0.2169899,1.871552,NA,NA,NotTracked,NotTracked,
0.96875,-0.2236328,-0.1279297,0.8867188,0.378418,0.02246094,-2,0,-2,-1,0,0,-1,0,-2,0,1,-5,-3,1,0,0,0.0625,0.0625,0.0625,-0.5625,-0.5625,-0.5625,1.650106,2.910213,7.654379,7.400051,3.134419,0.1734922,-0.1320515,-0.5063402,1.744063,0.2785707,-0.4760684,1.725424,0.07226242,0.3153336,1.809371,-0.09727541,-0.4830417,1.697635,0.2626338,-0.4863358,1.677847,0.0662734,-0.1295676,1.816551,0.07218999,-0.4230643,1.794085,-0.1135997,0.05367388,1.836964,-0.0005828704,-0.4176205,1.761891,-0.1466075,-0.2151446,1.864578,0.2842548,-0.2170404,1.871825,NA,NA,NotTracked,NotTracked,
0.9555664,-0.2163086,-0.1235352,0.9003906,0.3803711,0.005371094,-3,-2,0,-2,-3,-2,0,0,0,-2,2,0,1,-1,2,-7,0.5625,0.5625,0.5625,0.3125,0.3125,0.3125,1.650106,2.910213,7.654379,7.408526,3.135777,0.1651404,-0.1328741,-0.506246,1.744326,0.2793103,-0.4745468,1.725994,0.0721884,0.3152317,1.809378,-0.09743548,-0.4735072,1.701842,0.26713,-0.501285,1.678,0.066298,-0.1295771,1.816724,0.07222221,-0.4230739,1.79415,-0.1136,0.05366531,1.83699,-0.0005385812,-0.4176247,1.761991,-0.1464334,-0.2153191,1.864924,0.2843065,-0.2173873,1.871997,NA,NA,NotTracked,NotTracked,
0.9692383,-0.171875,-0.1586914,0.8955078,0.3808594,0.02734375,-2,0,-2,0,1,1,0,-2,-3,-5,-6,-3,-4,0,3,-3,0.8125,0.8125,0.8125,16.3125,16.3125,16.3125,1.663869,2.91742,7.640295,7.427845,3.145172,0.1651786,-0.1323735,-0.5056381,1.741931,0.279843,-0.4766859,1.72291,0.0721397,0.3152219,1.809352,-0.09805709,-0.4983395,1.6884,0.2659568,-0.4928272,1.67916,0.06628902,-0.1296376,1.816921,0.07223977,-0.4230789,1.794145,-0.1135887,0.05367452,1.837003,-0.0005257617,-0.4176375,1.761973,-0.1465178,-0.2148834,1.864842,0.2843497,-0.2175698,1.872041,NA,NA,NotTracked,NotTracked,
0.9624023,-0.2397461,-0.1484375,0.96875,0.3793945,-0.04833984,2,0,-1,0,0,10,6,2,1,1,2,-2,-1,2,-3,-4,-10.3125,-10.3125,-10.3125,5,5,5,1.68401,2.935693,7.602903,7.440248,3.167594,0.177405,-0.132718,-0.5045274,1.739795,0.2788037,-0.4766213,1.720297,0.07201138,0.315142,1.809495,-0.09771244,-0.4969088,1.690333,0.2663744,-0.5020362,1.678,0.06622075,-0.1296766,1.817085,0.07225794,-0.4230874,1.794046,-0.1135872,0.05367101,1.83702,-0.0005060007,-0.4176238,1.7619,-0.1468247,-0.2146397,1.865386,0.2844009,-0.2177116,1.87221,NA,NA,NotTracked,NotTracked,
1.003418,-0.2626953,-0.1499023,0.9042969,0.6074219,-0.04394531,1,-1,-1,-6,-12,-14,-3,0,-2,1,-1,-2,0,-1,7,10,33.5625,33.5625,33.5625,51,51,51,1.756825,2.967174,7.552352,7.439701,3.270168,0.2792909,-0.1321415,-0.5035031,1.725854,0.2759632,-0.5008848,1.701611,0.07187197,0.3150467,1.809509,-0.09557735,-0.4992147,1.6852,0.2505601,-0.4955533,1.665578,0.06613883,-0.1297239,1.817176,0.072204,-0.4231503,1.793766,-0.1135719,0.05366445,1.837048,-0.0005577294,-0.4177198,1.761492,-0.1486936,-0.212528,1.867369,0.2845474,-0.2177683,1.87247,NA,NA,NotTracked,NotTracked,
0.894043,-0.5527344,-0.2626953,0.8217773,0.6225586,-0.04980469,-2,4,1,-1,1,-7,-3,-1,-1,3,4,15,4,9,5,4,-28.6875,-28.6875,-28.6875,78.3125,78.3125,78.3125,1.934772,3.220322,7.356805,7.451335,3.409774,0.3876601,-0.1232117,-0.4818569,1.697581,0.2762392,-0.4569775,1.698326,0.07165628,0.314989,1.809596,-0.08208412,-0.4742813,1.678,0.2427712,-0.4544036,1.677757,0.06612208,-0.1296955,1.817158,0.07236898,-0.4228889,1.792982,-0.1135383,0.05369014,1.837105,-0.0004805903,-0.4174817,1.760554,-0.1521874,-0.2060182,1.873117,0.2857878,-0.2176321,1.872837,NA,NA,NotTracked,NotTracked,
0.7402344,-0.8022461,-0.3168945,0.7475586,0.8110352,-0.07568359,-2,-3,-2,0,-7,-7,3,2,0,-4,-11,-12,3,-10,-9,-3,-44.125,-44.125,-44.125,98.0625,98.0625,98.0625,1.991249,3.504938,7.21865,7.488931,3.607532,0.5398555,-0.1252826,-0.3996131,1.658134,0.2650381,-0.4419545,1.663433,0.07133007,0.314978,1.809779,-0.09194953,-0.395345,1.660177,0.2248954,-0.4654988,1.65725,0.0663383,-0.1294762,1.816259,0.07289037,-0.4225135,1.791553,-0.1135083,0.05372913,1.837236,-0.0001374108,-0.4172827,1.759272,-0.1569447,-0.1910493,1.880061,0.2911825,-0.2145778,1.869798,NA,NA,NotTracked,NotTracked,
0.4404297,-0.9077148,-0.3188477,0.5249023,0.9165039,-0.01660156,-4,-4,-1,-4,-2,0,-4,-2,-2,-9,-10,-22,-1,0,-1,-3,-81.4375,-81.4375,-81.4375,96.5,96.5,96.5,1.978669,3.955952,7.034693,7.551652,3.957057,0.7717075,-0.1049901,-0.3279279,1.612416,0.2400611,-0.3938525,1.639542,0.07027233,0.3148492,1.810615,-0.06718268,-0.3888261,1.67,0.2011164,-0.4102161,1.671675,0.06643572,-0.1293609,1.815778,0.073038,-0.4222986,1.790238,-0.1134314,0.05380705,1.837471,-0.0001037955,-0.4171097,1.758328,-0.1680003,-0.1631076,1.880473,0.3051257,-0.194072,1.858328,NA,NA,NotTracked,Unknown,
0.3300781,-0.9765625,-0.2978516,0.4086914,1.04248,0.08300781,-4,-3,0,-1,-6,-5,-3,-2,-2,5,-2,-2,-3,-4,2,1,-74.9375,-74.9375,-74.9375,97.25,97.25,97.25,1.915832,4.2867,6.895156,7.624861,4.237329,0.9409239,-0.08295961,-0.2463612,1.558784,0.2231503,-0.3086229,1.591274,0.06916253,0.3146654,1.812446,-0.04969236,-0.2892627,1.548167,0.1734611,-0.3598829,1.632875,0.06608611,-0.1292752,1.815481,0.07176992,-0.422015,1.788984,-0.113453,0.05374922,1.83786,-0.001156388,-0.4166641,1.757635,-0.1803152,-0.146487,1.861047,0.3246352,-0.1554332,1.853965,NA,NA,Unknown,Unknown,
0.2055664,-0.9321289,-0.3149414,0.2407227,0.9643555,-0.007324219,0,0,3,3,10,9,5,-3,-1,3,6,24,2,3,1,1,-73,-73,-73,85.5625,85.5625,85.5625,1.837054,4.57738,6.753772,7.710592,4.520513,1.101802,-0.05371881,-0.1717895,1.532454,0.1947918,-0.2310661,1.569838,0.06820743,0.314833,1.815706,-0.01747207,-0.2046459,1.533,0.1366254,-0.2751668,1.61375,0.06590794,-0.1291446,1.81632,0.0715992,-0.421803,1.788934,-0.1133381,0.05391212,1.838292,-0.001345492,-0.4163417,1.757523,-0.2196417,-0.165411,1.789423,0.340764,-0.1309475,1.824778,NA,NA,Closed,Unknown,
0.2202148,-0.9677734,-0.3344727,0.1381836,0.9082031,-0.08203125,3,1,0,1,-1,-4,1,0,-3,-3,-1,2,-1,-3,-1,6,-71.8125,-71.8125,-71.8125,78.5625,78.5625,78.5625,1.74628,4.80766,6.627543,7.852452,4.857498,1.278138,-0.03356699,-0.1071029,1.528937,0.1731127,-0.1539188,1.561298,0.06756698,0.3150119,1.820167,0.003283778,-0.1365575,1.537,0.1165228,-0.185769,1.5795,0.06609448,-0.1284957,1.816335,0.071709,-0.4200322,1.789405,-0.1130345,0.05418399,1.838585,-0.001025532,-0.4143718,1.758064,-0.2230544,-0.1574872,1.76335,0.3517016,-0.1204205,1.779428,NA,NA,Unknown,Unknown,
0.1113281,-0.8798828,-0.4047852,0.07275391,0.8574219,-0.1391602,4,7,11,4,6,11,11,6,2,-1,4,2,2,2,2,2,-57.5,-57.5,-57.5,75.625,75.625,75.625,1.623879,5.042138,6.473156,7.974568,5.05231,1.377539,-0.01884392,-0.05804961,1.536922,0.1621028,-0.09053139,1.563469,0.06713788,0.3153329,1.825022,0.005384017,-0.09242565,1.518706,0.1159425,-0.1277969,1.5704,0.065986,-0.1279636,1.816308,0.07103691,-0.4186312,1.789576,-0.1129403,0.05452927,1.838704,-0.00149341,-0.4129047,1.758385,-0.2132139,-0.1392407,1.762267,0.3589538,-0.1136789,1.75356,NA,NA,NotTracked,NotTracked,
0.07861328,-0.8203125,-0.4487305,0.06005859,0.8603516,-0.2114258,-5,-4,0,3,1,5,5,3,4,14,10,35,3,8,4,0,-44.5625,-44.5625,-44.5625,49.625,49.625,49.625,1.54284,5.14546,6.380219,8.072175,5.166705,1.447447,-0.006040795,-0.02691089,1.550845,0.1103712,-0.04103079,1.562435,0.06680281,0.3153209,1.828119,0.05656623,-0.03551274,1.58025,0.07355288,-0.05354875,1.61425,0.06595074,-0.1275098,1.816356,0.07075331,-0.417774,1.789652,-0.1128382,0.05509047,1.838692,-0.001680491,-0.4120784,1.758404,-0.2081031,-0.1286599,1.757564,0.3534848,-0.1053642,1.723295,NA,NA,NotTracked,NotTracked,
-0.02050781,-0.7680664,-0.4970703,-0.003417969,0.8212891,-0.284668,2,6,4,2,1,5,5,4,-5,0,-3,-5,-4,-4,-1,-1,-18.625,-18.625,-18.625,32.0625,32.0625,32.0625,1.484981,5.205595,6.303305,8.133927,5.215959,1.494189,-0.009890328,-0.0132629,1.55553,0.1186706,-0.02105851,1.564558,0.06635241,0.3158263,1.830485,0.0250627,-0.04245922,1.536667,0.08493314,-0.03828755,1.580333,0.0654525,-0.126956,1.820599,0.07063958,-0.4176534,1.789724,-0.1127785,0.05581942,1.83864,-0.001830836,-0.4119732,1.758473,-0.2059838,-0.1210024,1.749119,0.3605693,-0.1016072,1.716236,NA,NA,NotTracked,NotTracked,
-0.08642578,-0.7910156,-0.5556641,-0.2861328,0.934082,-0.4604492,-4,2,2,1,1,-4,5,1,0,4,0,-6,-3,-6,-17,3,-11.375,-11.375,-11.375,27.8125,27.8125,27.8125,1.464357,5.221724,6.282377,8.20508,5.259593,1.545244,-0.001125804,-0.002802607,1.564714,0.1424062,-0.00666491,1.578239,0.0655463,0.3162311,1.832699,0.05947681,-0.01651387,1.590143,0.1221377,-0.039048,1.560657,0.06533349,-0.1269662,1.821424,0.07036453,-0.417927,1.789735,-0.1127753,0.05641098,1.838565,-0.002294793,-0.4122839,1.75861,-0.2060629,-0.1186721,1.746298,0.3654427,-0.09543292,1.70726,NA,NA,NotTracked,NotTracked,
-0.184082,-0.7661133,-0.5961914,-0.5488281,0.9169922,-0.5830078,0,4,-1,3,4,14,10,2,4,1,0,-2,-5,-17,36,5,-1.75,-1.75,-1.75,49.8125,49.8125,49.8125,1.456311,5.227489,6.27738,8.294237,5.38578,1.601665,-0.0002882994,0.0006717733,1.568395,0.1251696,0.01701312,1.593817,0.06477144,0.316575,1.833786,0.02763815,-0.02942898,1.55095,0.1178009,-0.008508422,1.563833,0.06524632,-0.1272226,1.822722,0.06978178,-0.4186233,1.789653,-0.1128764,0.0569848,1.838542,-0.003212476,-0.4130665,1.758829,-0.2068372,-0.117271,1.745453,0.3654075,-0.08351954,1.698901,NA,NA,NotTracked,NotTracked,
-0.2314453,-0.7802734,-0.6264648,-0.5356445,0.7661133,-0.5859375,1,-1,-1,0,0,4,2,3,-15,-14,-7,-9,-9,-16,-92,-12,-4.125,-4.125,-4.125,68.8125,68.8125,68.8125,1.451243,5.223415,6.279158,8.421923,5.592637,1.669184,-0.004117406,-0.001846662,1.566136,0.1374964,0.05505762,1.601402,0.06425364,0.316759,1.83457,0.02444318,-0.03193847,1.547769,0.1644531,0.0292061,1.571882,0.0650601,-0.1281827,1.821728,0.06834836,-0.4212299,1.789094,-0.113019,0.05735361,1.83835,-0.005252973,-0.4159125,1.759657,-0.2079172,-0.1163538,1.744233,0.3655995,-0.06957234,1.68437,NA,NA,NotTracked,NotTracked,
-0.2045898,-0.8022461,-0.6118164,-0.4238281,0.5883789,-0.5078125,0,0,2,5,4,0,0,-2,0,0,-1,1,4,15,20,4,-8.4375,-8.4375,-8.4375,60.5625,60.5625,60.5625,1.436241,5.235459,6.252968,8.568078,5.820518,1.693594,-0.002029493,-0.0001097887,1.570364,0.1314241,0.1082844,1.58784,0.0632915,0.3177159,1.837075,0.03551302,-0.02815635,1.5664,0.09848323,0.07564387,1.575778,0.06363478,-0.1296019,1.81865,0.06663103,-0.4252247,1.788601,-0.1130245,0.05775497,1.838323,-0.007440642,-0.4200784,1.761082,-0.2090633,-0.1149109,1.743305,0.3607126,-0.0472672,1.661675,NA,NA,NotTracked,NotTracked,
-0.1943359,-0.784668,-0.6245117,-0.1411133,0.5361328,-0.456543,1,2,-1,-3,-4,-7,0,1,-2,0,-1,-7,1,-6,-1,0,-12.25,-12.25,-12.25,17,17,17,1.414506,5.272249,6.218248,8.564245,5.772198,1.573549,0.001016055,0.007894343,1.57744,0.1266928,0.1389704,1.528263,0.06307587,0.3215411,1.839273,0.04545922,-0.01761579,1.584709,0.123582,0.105294,1.494163,0.06335554,-0.129427,1.81768,0.06630667,-0.4255017,1.788706,-0.1126582,0.05815226,1.838327,-0.007897563,-0.4202889,1.761595,-0.2112883,-0.1128353,1.74373,0.3521556,-0.02358679,1.633646,NA,NA,NotTracked,NotTracked,
-0.2070313,-0.7402344,-0.6503906,-0.04248047,0.5136719,-0.3720703,1,-1,-2,1,0,0,0,-2,-2,-3,-1,-2,-5,-15,-19,-4,-8.9375,-8.9375,-8.9375,-8.4375,-8.4375,-8.4375,1.393543,5.326264,6.190667,8.487389,5.589469,1.396577,0.002544142,0.02065652,1.587115,0.1480676,0.127233,1.456007,0.06303041,0.3224274,1.841323,0.04785871,-0.001181008,1.582125,0.1163502,0.09973715,1.453882,0.06350403,-0.1291496,1.817394,0.06625465,-0.425337,1.788829,-0.1123658,0.05833801,1.838351,-0.00810333,-0.4198782,1.762017,-0.211085,-0.1113421,1.743304,0.3519596,-0.01370828,1.614511,NA,NA,Closed,Unknown,
-0.2421875,-0.699707,-0.6450195,0.1928711,0.5854492,-0.2734375,0,-1,-1,-1,-1,0,0,-1,-11,-4,6,2,-3,-6,12,-4,-6.125,-6.125,-6.125,11,11,11,1.373511,5.404134,6.179508,8.440099,5.323478,1.227894,0.0003641655,0.03252473,1.591468,0.1770036,0.0712152,1.395436,0.06263221,0.3214279,1.844093,0.04326914,0.008195991,1.575714,0.1438864,0.04767897,1.397125,0.06330476,-0.1294839,1.817379,0.06577582,-0.4266284,1.788571,-0.1123816,0.05860613,1.838572,-0.008692587,-0.4209915,1.761802,-0.210634,-0.1102443,1.74191,0.3573807,-0.01661126,1.595851,NA,NA,Closed,Closed,
-0.2626953,-0.6928711,-0.6518555,0.3310547,0.9355469,-0.4746094,3,-3,-2,-1,2,0,-2,-2,-1,1,1,4,-4,-6,4,1,-4.875,-4.875,-4.875,22.625,22.625,22.625,1.362332,5.450999,6.188814,8.486174,4.972065,1.155816,-0.001472504,0.04239269,1.593266,0.1967334,-0.002387478,1.380659,0.06210431,0.3209234,1.846374,0.0418351,0.01871059,1.579583,0.1885976,-0.0380254,1.383191,0.06325566,-0.1299165,1.819979,0.0660034,-0.4270172,1.788372,-0.1126124,0.05861735,1.838854,-0.008484865,-0.4215125,1.761169,-0.2101711,-0.109717,1.740193,0.3589884,-0.02471296,1.588505,NA,NA,Closed,Closed,
-0.2744141,-0.6855469,-0.6108398,0.1103516,0.9487305,-0.5854492,4,0,3,3,8,4,0,-3,-1,-2,-4,-10,0,8,10,3,-0.125,-0.125,-0.125,24.4375,24.4375,24.4375,1.364237,5.477934,6.226469,8.49326,4.752888,1.235016,-0.005969873,0.0460123,1.589197,0.1949856,-0.06598746,1.415633,0.06053241,0.3209019,1.84797,0.0341594,0.02348742,1.570115,0.1872125,-0.1049153,1.421929,0.06284788,-0.1291669,1.82108,0.06609382,-0.4266874,1.788369,-0.1126874,0.05860673,1.838813,-0.008307948,-0.4211809,1.760977,-0.2095524,-0.1095072,1.737159,0.3543055,-0.01480396,1.652901,NA,NA,Closed,Unknown,
-0.3110352,-0.7172852,-0.5820313,0.1079102,1.003906,-0.6733398,2,1,-1,-1,2,8,7,0,2,-5,-3,-4,2,-6,-5,-7,3.1875,3.1875,3.1875,-10.5625,-10.5625,-10.5625,1.378908,5.466319,6.258621,8.472313,4.608139,1.432559,-0.008896103,0.0444186,1.580458,0.1883996,-0.1019056,1.47293,0.05963197,0.3207157,1.848217,0.02553918,0.02238821,1.553895,0.1747397,-0.1476665,1.483333,0.06295124,-0.1289454,1.82012,0.06626832,-0.4263289,1.788265,-0.113214,0.0588308,1.838571,-0.007878257,-0.4204456,1.760224,-0.2087923,-0.1099548,1.73244,0.3834472,-0.04674642,1.656813,NA,NA,Closed,Unknown,
-0.2646484,-0.7275391,-0.5668945,-0.00390625,0.9477539,-0.6987305,0,-2,-2,-1,-4,0,-3,-4,-1,1,-3,-2,0,6,3,4,6.9375,6.9375,6.9375,-14.9375,-14.9375,-14.9375,1.402357,5.431345,6.286384,8.425504,4.670553,1.573611,-0.009540728,0.03692787,1.570749,0.1776272,-0.1030593,1.52633,0.05925899,0.3207782,1.84802,0.02713422,0.009271092,1.554308,0.1524908,-0.152302,1.555,0.06267513,-0.1283005,1.820358,0.06652282,-0.4254538,1.788334,-0.1137301,0.05962443,1.838489,-0.007344191,-0.4189864,1.759496,-0.2065554,-0.1096272,1.726548,0.3829344,-0.0462243,1.678899,NA,NA,Closed,Unknown,
-0.25,-0.7485352,-0.5849609,-0.1235352,0.824707,-0.644043,1,-1,-1,-3,-3,-4,-5,1,-2,-2,-1,0,-1,1,2,3,13.375,13.375,13.375,-8,-8,-8,1.423357,5.385222,6.296749,8.386504,4.904574,1.671432,-0.007497146,0.02584106,1.563289,0.1682105,-0.07189284,1.561913,0.05933381,0.3210355,1.84709,0.04749527,0.04081824,1.568,0.1292856,-0.1158123,1.58875,0.06256261,-0.1278137,1.820207,0.06661514,-0.4244576,1.78841,-0.1139411,0.06001501,1.838194,-0.00703489,-0.4176929,1.758624,-0.2059057,-0.1091455,1.725406,0.3815559,-0.04942876,1.680698,NA,NA,Closed,Unknown,
-0.21875,-0.7753906,-0.5986328,-0.1367188,0.7382813,-0.5874023,0,-1,-2,0,0,-2,-2,-4,-5,-3,-3,5,-1,0,-3,-6,9.375,9.375,9.375,3.3125,3.3125,3.3125,1.440366,5.32134,6.288584,8.399974,5.107679,1.681323,0.0007435346,0.009360177,1.562572,0.1443226,-0.03441573,1.580622,0.06015356,0.3209211,1.845469,0.05239558,-0.03551967,1.600813,0.1081221,-0.06733841,1.606,0.06285191,-0.1273453,1.81981,0.06703691,-0.4232388,1.788314,-0.11385,0.06023755,1.837724,-0.00641088,-0.4163709,1.757722,-0.2058901,-0.1092472,1.725423,0.3813854,-0.05304004,1.680304,NA,NA,NotTracked,NotTracked,
-0.2041016,-0.8134766,-0.621582,-0.168457,0.7016602,-0.5068359,1,-1,0,-2,-1,1,4,-5,-8,2,0,-4,-1,1,2,-4,8.1875,8.1875,8.1875,-10.3125,-10.3125,-10.3125,1.449026,5.287939,6.266395,8.393113,5.250771,1.655343,0.005848105,0.005409356,1.559471,0.1293427,0.002188536,1.577874,0.06169009,0.3207784,1.84356,0.04847022,-0.0218337,1.561611,0.1024368,-0.03059207,1.596909,0.06302083,-0.1272394,1.8204,0.06733575,-0.4227962,1.78819,-0.1136398,0.06033058,1.837133,-0.006123478,-0.4160642,1.757514,-0.2058896,-0.109992,1.726852,0.3776739,-0.05441729,1.679593,NA,NA,NotTracked,NotTracked,
-0.2456055,-0.8056641,-0.6381836,-0.112793,0.7983398,-0.3388672,-1,0,-2,0,-3,0,0,-1,-1,1,-2,13,-1,0,-2,1,13.3125,13.3125,13.3125,-18.75,-18.75,-18.75,1.462625,5.287868,6.243507,8.336496,5.309114,1.589963,0.001316077,0.003311021,1.559983,0.1137469,0.01692968,1.569261,0.06305691,0.3206492,1.842778,0.03842303,-0.02630797,1.544,0.09140778,-0.002586416,1.582471,0.06331661,-0.1272992,1.820145,0.06748645,-0.4227246,1.78817,-0.1136094,0.06027448,1.836807,-0.006003902,-0.4160773,1.757584,-0.2057932,-0.1107033,1.728224,0.3740035,-0.05785747,1.676099,NA,NA,NotTracked,NotTracked,
-0.1557617,-0.7890625,-0.6381836,-0.1230469,0.765625,-0.4345703,-1,-1,-3,0,1,2,-2,-3,2,0,0,-2,-1,-1,-1,0,-0.0625,-0.0625,-0.0625,-28.75,-28.75,-28.75,1.460214,5.300373,6.241249,8.282932,5.325786,1.546575,0.003396435,0.004325815,1.562309,0.1177508,0.02142321,1.562344,0.06406994,0.3205222,1.842321,0.04231672,-0.02525735,1.553091,0.1329253,0.04536351,1.5281,0.06332594,-0.1277297,1.819854,0.06748147,-0.4229045,1.788108,-0.1135585,0.0601771,1.836553,-0.006039059,-0.4165539,1.757776,-0.2058045,-0.1115116,1.729234,0.3702685,-0.06132416,1.673782,NA,NA,NotTracked,NotTracked,
-0.1787109,-0.7270508,-0.6152344,-0.1298828,0.7866211,-0.3613281,-2,-1,-2,-3,-3,-3,-1,-3,3,6,1,2,0,-1,0,3,-0.4375,-0.4375,-0.4375,-37.75,-37.75,-37.75,1.456447,5.292169,6.236612,8.199392,5.310467,1.479181,0.004356203,0.002123873,1.562165,0.1238498,0.01798789,1.55968,0.06488195,0.320434,1.842083,0.04052368,-0.02633278,1.548876,0.1062799,0.04457799,1.562733,0.06347309,-0.1278103,1.818875,0.06749143,-0.422914,1.788097,-0.1135175,0.0601573,1.836374,-0.006031083,-0.4166919,1.758001,-0.2054395,-0.111913,1.729568,0.3670879,-0.06896694,1.671138,NA,NA,NotTracked,NotTracked,
-0.1352539,-0.7641602,-0.5654297,-0.06005859,0.8242188,-0.2915039,1,0,-1,-1,-2,-2,-1,-3,1,1,-2,0,0,1,7,16,-0.4375,-0.4375,-0.4375,-40.5625,-40.5625,-40.5625,1.453588,5.264482,6.246539,8.112307,5.272334,1.395661,0.0035352,-0.005013933,1.559463,0.12667,0.008679861,1.557039,0.06558359,0.3203177,1.841814,0.0380999,-0.03687177,1.544917,0.09526062,0.01730778,1.584667,0.06353766,-0.1278453,1.819202,0.0675476,-0.4228463,1.788201,-0.1134574,0.06013752,1.836215,-0.006026819,-0.4167562,1.758277,-0.2053183,-0.1121059,1.729992,0.3630132,-0.07671992,1.672454,NA,NA,NotTracked,NotTracked,
-0.04003906,-0.6972656,-0.5366211,-0.06591797,0.890625,-0.2001953,1,2,0,2,3,7,5,0,-7,-6,-2,0,-2,-2,-5,-20,1.375,1.375,1.375,-54.25,-54.25,-54.25,1.464444,5.185217,6.300642,8.009129,5.198425,1.273531,-0.00419405,-0.02484784,1.547498,-0.01558372,-0.02552919,1.548629,0.06630685,0.3199348,1.840995,0.03449035,-0.05388796,1.54025,-0.005474536,0.007528797,1.52392,0.06379454,-0.1276491,1.818539,0.06775887,-0.4224191,1.788304,-0.1133452,0.06008305,1.835939,-0.005781199,-0.4163987,1.758545,-0.2049093,-0.112741,1.730765,0.3553736,-0.08803028,1.674147,NA,NA,NotTracked,NotTracked,
0.04248047,-0.7250977,-0.4946289,-0.05078125,0.8305664,-0.2363281,-2,-2,0,1,0,0,-2,-1,-1,0,-3,3,-4,-2,2,20,23.5625,23.5625,23.5625,-60.0625,-60.0625,-60.0625,1.505512,5.053804,6.388756,7.881284,5.051991,1.127975,-0.01605058,-0.06236115,1.528599,0.1829503,-0.0579742,1.520867,0.0665883,0.3197294,1.839809,0.02934198,-0.07955622,1.544,0.1916079,-0.04087894,1.486284,0.06414638,-0.1271157,1.818577,0.06815375,-0.4210202,1.788504,-0.113069,0.05973533,1.835524,-0.005097437,-0.4150581,1.758765,-0.2059574,-0.1149988,1.734998,0.3580176,-0.1103371,1.694053,NA,NA,NotTracked,NotTracked,
