ALX,ALY,ALZ,ARX,ARY,ARZ,EMG0L,EMG1L,EMG2L,EMG3L,EMG4L,EMG5L,EMG6L,EMG7L,EMG0R,EMG1R,EMG2R,EMG3R,EMG4R,EMG5R,EMG6R,EMG7R,GLX,GLY,GLZ,GRX,GRY,GRZ,ORL,OPL,OYL,ORR,OPR,OYR,LHNX,LHNY,LHNZ,RHNX,RHNY,RHNZ,HX,HY,HZ,LTX,LTY,LTZ,RTX,RTY,RTZ,SpineMidX,SpineMidY,SpineMidZ,SpineBaseX,SpineBaseY,SpineBaseZ,ShoulderLeftX,ShoulderLeftY,ShoulderLeftZ,ShoulderRightX,ShoulderRightY,ShoulderRightZ,ElbowLeftX,ElbowLeftY,ElbowLeftZ,ElbowRightX,ElbowRightY,ElbowRightZ,Myo_Pose_left,Myo_Pose_Right,Kinect_pose_left,Kinect_pose_right
0.9511719,-0.2373047,-0.1586914,0.9228516,0.3071289,-0.01074219,0,0,-1,-3,-2,1,1,0,0,1,-3,-6,-2,0,1,-1,0.1875,0.1875,0.1875,2,2,2,1.576934,2.959481,7.362265,7.574948,3.011486,0.7627015,-0.1336913,-0.51766,1.725105,0.2758259,-0.4902192,1.727187,0.06501295,0.3174755,1.841594,-0.09930275,-0.5008302,1.681544,0.2576934,-0.4962375,1.681091,0.06303713,-0.1277713,1.840168,0.06540345,-0.4213787,1.804134,-0.1127817,0.04882383,1.863094,-0.007985957,-0.4154817,1.774204,-0.1483705,-0.2221205,1.857179,0.2811483,-0.2273832,1.854577,NA,NA,NotTracked,NotTracked,
0.9511719,-0.2373047,-0.1586914,0.9223633,0.3100586,-0.009277344,0,0,-1,-3,-2,1,1,0,2,-3,-2,-3,-2,0,-3,-1,0.1875,0.1875,0.1875,1.0625,1.0625,1.0625,1.576934,2.959481,7.362265,7.574981,3.011193,0.7653467,-0.1332003,-0.5162613,1.724394,0.2760228,-0.4868762,1.7289,0.06521667,0.3174361,1.841151,-0.09935739,-0.4937273,1.684042,0.2546859,-0.4865976,1.690354,0.06304298,-0.1277429,1.84004,0.06538805,-0.4213521,1.804108,-0.1126759,0.0490026,1.862708,-0.008003729,-0.41543,1.774174,-0.1484784,-0.2221466,1.856877,0.281122,-0.2273255,1.85424,NA,NA,NotTracked,NotTracked,
0.9511719,-0.2373047,-0.1586914,0.9262695,0.309082,-0.01123047,0,0,-1,-3,-2,1,1,0,0,-2,3,8,-2,-3,0,-1,0.1875,0.1875,0.1875,2.125,2.125,2.125,1.576934,2.959481,7.362265,7.576634,3.010352,0.7656891,-0.1330409,-0.5177308,1.725006,0.2755471,-0.4880917,1.728591,0.06528336,0.3174166,1.840991,-0.09851064,-0.491152,1.685734,0.2560762,-0.4960516,1.682143,0.06309218,-0.1277594,1.839898,0.06543776,-0.4213515,1.80403,-0.1126433,0.04908888,1.862633,-0.007967115,-0.4154266,1.774086,-0.1483978,-0.2221228,1.856874,0.2810998,-0.2273189,1.854125,NA,NA,NotTracked,NotTracked,
0.9511719,-0.2373047,-0.1586914,0.9277344,0.3100586,-0.007324219,0,0,-1,-3,-2,1,1,0,0,-1,1,-1,1,1,1,1,0.1875,0.1875,0.1875,1.8125,1.8125,1.8125,1.576934,2.959481,7.362265,7.577646,3.00943,0.7694881,-0.1331533,-0.5170275,1.723991,0.2749633,-0.4873649,1.727853,0.06532262,0.3173637,1.840746,-0.09918173,-0.4980369,1.682385,0.252527,-0.4872541,1.689235,0.06308196,-0.127754,1.839764,0.06541648,-0.4213549,1.803978,-0.1126479,0.04913739,1.862519,-0.007987682,-0.4154233,1.773999,-0.1483441,-0.2219851,1.856706,0.2811005,-0.2273729,1.853749,NA,NA,NotTracked,NotTracked,
0.9511719,-0.2373047,-0.1586914,0.9189453,0.3032227,-0.015625,0,0,-1,-3,-2,1,1,0,-1,-2,0,-6,-1,0,1,0,0.1875,0.1875,0.1875,0.6875,0.6875,0.6875,1.576934,2.959481,7.362265,7.57785,3.009537,0.7698485,-0.1333056,-0.5168056,1.724382,0.2807226,-0.4959845,1.726533,0.06532954,0.3174059,1.840713,-0.0995024,-0.4952582,1.684308,0.2610081,-0.4797537,1.697163,0.06314054,-0.1277024,1.839652,0.06549532,-0.4213182,1.80393,-0.1126337,0.04923652,1.86227,-0.007912952,-0.4154033,1.77391,-0.1490113,-0.2204879,1.856327,0.28121,-0.2273348,1.853544,NA,NA,NotTracked,NotTracked,
0.9511719,-0.2373047,-0.1586914,0.9238281,0.3105469,-0.01367188,0,0,-1,-3,-2,1,1,0,1,0,-2,-9,-1,-2,0,-3,0.1875,0.1875,0.1875,1.4375,1.4375,1.4375,1.576934,2.959481,7.362265,7.579357,3.008748,0.770997,-0.1332267,-0.5180242,1.725495,0.2763219,-0.4916441,1.726307,0.06531935,0.3174157,1.840665,-0.09849703,-0.4891497,1.686929,0.2462189,-0.4715919,1.70532,0.06313346,-0.1276798,1.839629,0.06547491,-0.421283,1.803955,-0.1126178,0.04934484,1.862229,-0.007931305,-0.4153742,1.773947,-0.1488577,-0.2207453,1.85633,0.28147,-0.2273656,1.853399,NA,NA,NotTracked,NotTracked,
0.9511719,-0.2373047,-0.1586914,0.9238281,0.3076172,-0.015625,0,0,-1,-3,-2,1,1,0,-2,-1,1,-4,-1,1,-3,2,0.1875,0.1875,0.1875,1.9375,1.9375,1.9375,1.576934,2.959481,7.362265,7.580806,3.00888,0.7715095,-0.1325513,-0.5177198,1.724105,0.2764293,-0.4891973,1.728133,0.06530692,0.317407,1.840623,-0.09899454,-0.4959395,1.683499,0.2580966,-0.4980607,1.680615,0.06311242,-0.1276831,1.839575,0.06538301,-0.4212862,1.803945,-0.1126726,0.04932995,1.862156,-0.008041373,-0.4153708,1.773941,-0.1489082,-0.2206567,1.856244,0.2814797,-0.2274373,1.85326,NA,NA,NotTracked,NotTracked,
0.9511719,-0.2373047,-0.1586914,0.9487305,0.2983398,-0.03320313,0,0,-1,-3,-2,1,1,0,1,-1,-1,-2,2,2,0,4,0.1875,0.1875,0.1875,0.9375,0.9375,0.9375,1.576934,2.959481,7.362265,7.58139,3.010404,0.7741883,-0.1329375,-0.5152634,1.726881,0.275594,-0.487504,1.728447,0.06529595,0.317404,1.840642,-0.09911218,-0.5083194,1.677824,0.2585917,-0.4974216,1.681588,0.06311052,-0.1276708,1.839582,0.06533023,-0.4212857,1.803998,-0.1126968,0.049357,1.862153,-0.008128206,-0.4153643,1.774072,-0.1488886,-0.2205427,1.856294,0.2815334,-0.2274032,1.853232,NA,NA,NotTracked,NotTracked,
0.9511719,-0.2373047,-0.1586914,1.015137,0.3222656,-0.046875,0,0,-1,-3,-2,1,1,0,-5,2,-1,13,2,-1,2,24,0.1875,0.1875,0.1875,10.125,10.125,10.125,1.576934,2.959481,7.362265,7.570142,3.035991,0.800909,-0.1328876,-0.5178875,1.725082,0.2747352,-0.4869329,1.723366,0.06527762,0.3174079,1.840631,-0.09915216,-0.5060148,1.67901,0.2534929,-0.4857635,1.687977,0.063091,-0.1276505,1.839551,0.06531165,-0.421272,1.80399,-0.112794,0.04936086,1.862072,-0.008141742,-0.415339,1.774064,-0.148896,-0.2205357,1.856222,0.2816727,-0.2272817,1.853441,NA,NA,NotTracked,NotTracked,
0.9511719,-0.2373047,-0.1586914,0.9243164,0.5366211,-0.004394531,0,0,-1,-3,-2,1,1,0,1,4,2,-30,-3,1,2,7,0.1875,0.1875,0.1875,72.5,72.5,72.5,1.576934,2.959481,7.362265,7.438582,3.177116,1.05224,-0.133143,-0.5174747,1.725232,0.2623882,-0.4995568,1.689979,0.06519534,0.317298,1.840653,-0.09905888,-0.4982626,1.683097,0.2257312,-0.4866724,1.6615,0.06309166,-0.1276037,1.839528,0.0653025,-0.4211322,1.803907,-0.1129224,0.04937849,1.861955,-0.008128195,-0.4152071,1.773949,-0.1490329,-0.2204989,1.85619,0.282905,-0.2265742,1.854555,NA,NA,NotTracked,NotTracked,
0.9511719,-0.2373047,-0.1586914,0.9023438,0.6645508,-0.04052734,0,0,-1,-3,-2,1,1,0,-15,-26,-12,16,-11,-9,-6,-12,0.1875,0.1875,0.1875,109.6875,109.6875,109.6875,1.576934,2.959481,7.362265,7.428986,3.385323,1.252486,-0.1329692,-0.5177945,1.725484,0.2289034,-0.5101645,1.636279,0.06502514,0.3172577,1.840738,-0.09896055,-0.501939,1.680803,0.1867799,-0.5190321,1.598692,0.06256558,-0.1274759,1.839459,0.06343881,-0.4208054,1.803438,-0.112973,0.04937181,1.861903,-0.01006329,-0.414716,1.77352,-0.1491692,-0.2208093,1.856173,0.2860124,-0.2189255,1.857351,NA,NA,NotTracked,Unknown,
0.9511719,-0.2373047,-0.1586914,0.7333984,0.9414063,-0.03222656,0,0,-1,-3,-2,1,1,0,-5,-1,3,3,-4,-7,-6,-12,0.1875,0.1875,0.1875,151.375,151.375,151.375,1.576934,2.959481,7.362265,7.417173,3.676167,1.562362,-0.1326009,-0.5188607,1.726256,0.185376,-0.3911394,1.631782,0.06473238,0.3172022,1.840995,-0.09911402,-0.5116036,1.677631,0.1683545,-0.3724356,1.599026,0.0610772,-0.1272082,1.839393,0.05934364,-0.4200951,1.802535,-0.1130226,0.04940617,1.861937,-0.01416306,-0.4135381,1.773302,-0.1491816,-0.2207245,1.856405,0.3023558,-0.1822121,1.864058,NA,NA,NotTracked,Unknown,
0.9511719,-0.2373047,-0.1586914,0.3115234,1.017578,0.08154297,0,0,-1,-3,-2,1,1,0,-5,9,-2,25,1,0,0,5,0.1875,0.1875,0.1875,110,110,110,1.576934,2.959481,7.362265,7.438942,4.173929,1.995972,-0.1339138,-0.5177142,1.725436,0.1263181,-0.2943259,1.644173,0.0646399,0.3171223,1.841177,-0.09907827,-0.5023644,1.680931,0.138295,-0.2601342,1.601727,0.06091267,-0.1271201,1.839337,0.05909506,-0.4198911,1.801922,-0.1131089,0.04942504,1.858425,-0.01420124,-0.4132518,1.772827,-0.1493446,-0.2196443,1.856529,0.3161533,-0.1559628,1.845229,NA,NA,NotTracked,Unknown,
0.9511719,-0.2373047,-0.1586914,0.09082031,0.9643555,0.06884766,0,0,-1,-3,-2,1,1,0,9,3,2,7,2,-2,-8,-12,0.1875,0.1875,0.1875,106.0625,106.0625,106.0625,1.576934,2.959481,7.362265,7.489932,4.55288,2.299159,-0.1338662,-0.5153317,1.726273,0.02377999,-0.2109344,1.663001,0.06492046,0.3169637,1.841738,-0.09911632,-0.5020894,1.681044,-0.007636253,-0.1562496,1.692621,0.0607407,-0.1267225,1.839618,0.05866208,-0.4187021,1.801922,-0.1129556,0.04958309,1.859618,-0.01443369,-0.4122326,1.772829,-0.1493855,-0.2196016,1.856547,0.3195728,-0.1462112,1.810124,NA,NA,NotTracked,Unknown,
0.9511719,-0.2373047,-0.1586914,-0.008300781,0.90625,0.09765625,0,0,-1,-3,-2,1,1,0,-2,-2,-3,-2,-2,0,-1,10,0.1875,0.1875,0.1875,71.9375,71.9375,71.9375,1.576934,2.959481,7.362265,7.57102,4.872662,2.569432,-0.1336652,-0.5150291,1.725889,0.06492248,-0.1135924,1.683748,0.06580671,0.3169989,1.842977,-0.09932985,-0.5040768,1.679968,0.06991271,-0.0806173,1.648787,0.0606982,-0.1264784,1.840155,0.05835956,-0.418323,1.802291,-0.1122838,0.04969273,1.858332,-0.01447889,-0.4117812,1.773253,-0.1494304,-0.2191112,1.856683,0.3183571,-0.1444027,1.777308,NA,NA,NotTracked,Closed,
0.9511719,-0.2373047,-0.1586914,-0.01318359,0.9038086,0.1030273,0,0,-1,-3,-2,1,1,0,-12,-10,-10,-15,-3,-1,-1,-17,0.1875,0.1875,0.1875,54,54,54,1.576934,2.959481,7.362265,7.712059,5.170887,2.873087,-0.1339898,-0.514737,1.726314,0.02527623,-0.03054832,1.71877,0.06725734,0.3168772,1.844135,-0.09953872,-0.4936028,1.686,0.06320037,0.02309821,1.746917,0.06084869,-0.1263821,1.840414,0.05829435,-0.4182833,1.802381,-0.1114912,0.04901336,1.856613,-0.01449219,-0.4117011,1.773474,-0.1489481,-0.2197777,1.85694,0.3032425,-0.1334545,1.746385,NA,NA,NotTracked,Unknown,
0.9511719,-0.2373047,-0.1586914,-0.06054688,0.8701172,0.06298828,0,0,-1,-3,-2,1,1,0,-11,-9,6,-7,-6,-8,-14,-14,0.1875,0.1875,0.1875,48.25,48.25,48.25,1.576934,2.959481,7.362265,7.745142,5.225246,2.940623,-0.132768,-0.5154212,1.725306,0.01327815,-0.00916985,1.729277,0.06873263,0.3167636,1.845396,-0.09852136,-0.4962496,1.683855,0.05285886,0.03933202,1.755154,0.06101496,-0.1262791,1.840748,0.05822892,-0.4182549,1.802498,-0.1108008,0.04877311,1.853854,-0.0145361,-0.411655,1.773883,-0.148383,-0.2194746,1.857341,0.2909862,-0.125988,1.727036,NA,NA,NotTracked,Unknown,
0.9511719,-0.2373047,-0.1586914,-0.01269531,0.8408203,-0.05664063,0,0,-1,-3,-2,1,1,0,2,9,3,15,-1,-5,-5,-13,0.1875,0.1875,0.1875,-1.5,-1.5,-1.5,1.576934,2.959481,7.362265,7.812727,5.349355,3.173014,-0.1334258,-0.514399,1.725798,0.01001951,0.006377278,1.737239,0.06967853,0.3167456,1.846002,-0.09955507,-0.4942577,1.685345,0.05063481,0.05155762,1.758132,0.061021,-0.1261782,1.840938,0.05820975,-0.4182405,1.802551,-0.1093163,0.04808378,1.850217,-0.01455374,-0.4116473,1.774351,-0.1479652,-0.2200301,1.857552,0.2833084,-0.1221923,1.715912,NA,NA,NotTracked,Unknown,
0.9511719,-0.2373047,-0.1586914,-0.06152344,0.9194336,-0.1391602,0,0,-1,-3,-2,1,1,0,0,-3,0,-7,-2,1,4,0,0.1875,0.1875,0.1875,-7.3125,-7.3125,-7.3125,1.576934,2.959481,7.362265,7.811738,5.360714,3.22993,-0.1339512,-0.5154076,1.726174,0.01093471,0.007985901,1.741452,0.07034679,0.316918,1.846442,-0.09924772,-0.4989071,1.682904,0.0392379,0.05971805,1.763758,0.06121892,-0.1260934,1.840992,0.05822333,-0.4182175,1.802566,-0.1084182,0.04766048,1.848632,-0.01444803,-0.4116506,1.774804,-0.1471391,-0.2207926,1.858125,0.2786818,-0.1206428,1.711308,NA,NA,NotTracked,NotTracked,
0.9511719,-0.2373047,-0.1586914,-0.1889648,0.9511719,-0.1845703,0,0,-1,-3,-2,1,1,0,-11,-8,-8,-22,-7,-4,-2,-19,0.1875,0.1875,0.1875,-17.3125,-17.3125,-17.3125,1.576934,2.959481,7.362265,7.77997,5.34691,3.242657,-0.134601,-0.5157166,1.727518,0.01100784,0.009976062,1.743588,0.07064093,0.3170303,1.84624,-0.1026599,-0.5080189,1.682437,0.04645013,0.06421395,1.763463,0.0612825,-0.1260421,1.841027,0.05821811,-0.4182218,1.802601,-0.1069226,0.04654011,1.849186,-0.01442934,-0.4117238,1.775348,-0.1469193,-0.2209008,1.858551,0.2764941,-0.1210502,1.71003,NA,NA,NotTracked,NotTracked,
0.9511719,-0.2373047,-0.1586914,-0.1992188,0.9609375,-0.1831055,0,0,-1,-3,-2,1,1,0,-5,-3,-2,-4,-1,-3,-6,0,0.1875,0.1875,0.1875,-7.875,-7.875,-7.875,1.576934,2.959481,7.362265,7.762014,5.339007,3.225553,-0.1346278,-0.5150848,1.72836,0.01140955,0.008527749,1.743365,0.07068955,0.3170362,1.846172,-0.1036342,-0.510677,1.682534,0.04659668,0.06424711,1.7644,0.06133432,-0.1259893,1.840992,0.05816142,-0.4182381,1.802689,-0.1058292,0.04552208,1.85134,-0.01449841,-0.4118412,1.775888,-0.1464099,-0.2218037,1.8591,0.2753342,-0.1214655,1.709555,NA,NA,NotTracked,NotTracked,
0.9511719,-0.2373047,-0.1586914,-0.1943359,0.9379883,-0.2070313,0,0,-1,-3,-2,1,1,0,-6,6,5,-2,3,4,8,5,0.1875,0.1875,0.1875,-1.1875,-1.1875,-1.1875,1.576934,2.959481,7.362265,7.757046,5.331389,3.208119,-0.1358345,-0.5160584,1.728472,0.0122033,0.01210758,1.743352,0.07077888,0.317083,1.845911,-0.1027607,-0.5066329,1.683232,0.04499966,0.06264599,1.763,0.06135486,-0.1259887,1.841004,0.0581455,-0.4182621,1.8028,-0.1053732,0.04557211,1.853344,-0.01445674,-0.411956,1.776407,-0.1462961,-0.2220559,1.859377,0.2744981,-0.1219713,1.709693,NA,NA,NotTracked,Unknown,
0.9511719,-0.2373047,-0.1586914,0.01269531,0.9633789,-0.2084961,0,0,-1,-3,-2,1,1,0,-8,-3,-4,-34,-6,0,-4,0,0.1875,0.1875,0.1875,15.625,15.625,15.625,1.576934,2.959481,7.362265,7.7731,5.293728,3.153067,-0.135309,-0.5151984,1.729061,0.01279245,0.01240456,1.743222,0.07078239,0.317164,1.845443,-0.1029635,-0.5030275,1.68687,0.04715535,0.06319036,1.762723,0.06132527,-0.1259551,1.840976,0.05805485,-0.418217,1.802915,-0.1058054,0.04614569,1.853573,-0.01454731,-0.4119541,1.776843,-0.1461948,-0.2222144,1.859394,0.2748771,-0.1223782,1.710283,NA,NA,NotTracked,Unknown,
0.9511719,-0.2373047,-0.1586914,-0.009765625,0.9970703,-0.190918,0,0,-1,-3,-2,1,1,0,2,-1,3,4,2,6,0,-1,0.1875,0.1875,0.1875,23.125,23.125,23.125,1.576934,2.959481,7.362265,7.790661,5.259645,3.105514,-0.1351848,-0.5136297,1.729445,0.07333077,-0.006552699,1.720241,0.07049637,0.3171096,1.844649,-0.102913,-0.5025091,1.686536,0.1114698,0.03790858,1.7488,0.06119402,-0.1259362,1.840947,0.05792631,-0.418214,1.803034,-0.1066217,0.04693077,1.852486,-0.01472709,-0.4119906,1.77726,-0.1464015,-0.2213624,1.859485,0.2842977,-0.1235419,1.715625,NA,NA,NotTracked,Unknown,
0.9511719,-0.2373047,-0.1586914,0.04199219,1.068359,-0.1933594,0,0,-1,-3,-2,1,1,0,-2,8,4,5,0,-3,-2,0,0.1875,0.1875,0.1875,35.9375,35.9375,35.9375,1.576934,2.959481,7.362265,7.819929,5.181178,2.982384,-0.1359163,-0.5149492,1.729389,0.1039254,-0.003102833,1.717481,0.06970611,0.317122,1.843439,-0.1026342,-0.5008498,1.686689,0.1350232,0.04330412,1.752459,0.06092412,-0.1259653,1.840779,0.05761499,-0.4182414,1.803109,-0.1092121,0.0474763,1.857005,-0.01506028,-0.4121313,1.777709,-0.1468783,-0.2203245,1.85936,0.3100317,-0.1224317,1.728949,NA,NA,NotTracked,Unknown,
0.9511719,-0.2373047,-0.1586914,-0.06787109,1.080566,-0.2114258,0,0,-1,-3,-2,1,1,0,-2,-5,0,2,-3,-2,-1,-1,0.1875,0.1875,0.1875,62.625,62.625,62.625,1.576934,2.959481,7.362265,7.926047,5.045473,2.675376,-0.1364898,-0.5159838,1.727826,0.09007674,-0.01373639,1.701909,0.06847566,0.3171074,1.841822,-0.103765,-0.4941761,1.6904,0.1289357,0.03085002,1.73775,0.06029898,-0.1260998,1.840427,0.05728752,-0.418372,1.803053,-0.110286,0.04785607,1.853945,-0.01539519,-0.4123213,1.777584,-0.1474079,-0.2198351,1.859349,0.3419295,-0.1152135,1.748531,NA,NA,NotTracked,Closed,
0.9511719,-0.2373047,-0.1586914,-0.1342773,1.087402,-0.2070313,0,0,-1,-3,-2,1,1,0,2,-3,-5,-4,-2,7,-3,1,0.1875,0.1875,0.1875,77,77,77,1.576934,2.959481,7.362265,8.001547,5.013018,2.523236,-0.1363011,-0.5152074,1.728369,0.1446581,-0.02181038,1.705444,0.06683623,0.3168237,1.840138,-0.1020085,-0.4889797,1.692364,0.1585136,0.02781813,1.670954,0.05973589,-0.126469,1.839979,0.0568222,-0.4189344,1.802965,-0.1123704,0.04829503,1.855854,-0.01598772,-0.4129994,1.777447,-0.1486977,-0.2185675,1.858574,0.3728908,-0.1007764,1.771206,NA,NA,NotTracked,Unknown,
0.9511719,-0.2373047,-0.1586914,-0.2070313,1.01123,-0.2592773,0,0,-1,-3,-2,1,1,0,3,6,-9,-21,-11,-39,-23,-10,0.1875,0.1875,0.1875,88.0625,88.0625,88.0625,1.576934,2.959481,7.362265,8.13302,5.001966,2.281648,-0.1372145,-0.5158409,1.72721,0.163512,-0.003495488,1.717554,0.06544445,0.3161585,1.837415,-0.1047956,-0.5013472,1.687076,0.1820037,0.04960537,1.677961,0.05916553,-0.1271634,1.839224,0.0563089,-0.4198143,1.802634,-0.1129712,0.04840036,1.855771,-0.01666289,-0.4139012,1.776904,-0.1497453,-0.2179742,1.856307,0.3885299,-0.08898324,1.784801,NA,NA,NotTracked,Unknown,
0.9511719,-0.2373047,-0.1586914,-0.2524414,0.8579102,-0.3110352,0,0,-1,-3,-2,1,1,0,-4,2,10,0,10,10,11,-1,0.1875,0.1875,0.1875,82.625,82.625,82.625,1.576934,2.959481,7.362265,8.349178,5.106628,1.859945,-0.1370374,-0.5087174,1.729725,0.2355029,0.02274684,1.718831,0.06468498,0.3158894,1.835401,-0.1034628,-0.4838367,1.694769,0.2576475,0.04993501,1.685612,0.05884866,-0.1276536,1.838608,0.05599915,-0.4204245,1.802484,-0.1132937,0.04838503,1.855441,-0.0170865,-0.4144457,1.776189,-0.1507458,-0.2171389,1.854616,0.4046983,-0.07419898,1.809311,NA,NA,NotTracked,NotTracked,
0.9511719,-0.2373047,-0.1586914,-0.3242188,0.7675781,-0.2768555,0,0,-1,-3,-2,1,1,0,-7,-5,-6,-8,-3,-11,-3,-3,0.1875,0.1875,0.1875,69.375,69.375,69.375,1.576934,2.959481,7.362265,8.442112,5.216678,1.638769,-0.1356418,-0.5088786,1.729578,0.251119,0.04187457,1.739698,0.06481256,0.3155766,1.834462,-0.1042014,-0.508017,1.68425,0.2996078,0.06151098,1.703711,0.05900217,-0.1280104,1.838144,0.05615667,-0.4207032,1.802391,-0.1129583,0.0486502,1.854957,-0.01687684,-0.414696,1.775167,-0.1507407,-0.2165103,1.853216,0.4134034,-0.06437431,1.846324,NA,NA,NotTracked,NotTracked,
0.9511719,-0.2373047,-0.1586914,-0.3745117,0.7138672,-0.3930664,0,0,-1,-3,-2,1,1,0,2,1,13,4,7,12,-4,0,0.1875,0.1875,0.1875,41.6875,41.6875,41.6875,1.576934,2.959481,7.362265,8.51198,5.359774,1.427361,-0.1350772,-0.5129118,1.728104,0.2498225,0.09405209,1.74293,0.06577842,0.3156941,1.833016,-0.1020861,-0.4881431,1.6928,0.2709119,0.1079251,1.7126,0.05937812,-0.1281768,1.8378,0.05655454,-0.4208339,1.802361,-0.1120338,0.04920064,1.854187,-0.01629044,-0.414518,1.773964,-0.1505756,-0.2160401,1.852554,0.4149794,-0.06008872,1.869843,NA,NA,NotTracked,Unknown,
0.9511719,-0.2373047,-0.1586914,-0.4477539,0.6850586,-0.4926758,0,0,-1,-3,-2,1,1,0,7,-4,-5,-10,-4,-23,-7,9,0.1875,0.1875,0.1875,23.25,23.25,23.25,1.576934,2.959481,7.362265,8.525718,5.432129,1.321387,-0.1348112,-0.512955,1.727424,0.2735543,0.05324831,1.765473,0.06682169,0.3155811,1.832568,-0.1030831,-0.4971251,1.688493,0.3430486,0.05622717,1.737204,0.05987571,-0.1282517,1.837699,0.05685267,-0.4209332,1.802483,-0.1109824,0.0498133,1.853773,-0.01592161,-0.4143066,1.773415,-0.1502144,-0.2158711,1.852073,0.4144427,-0.05794284,1.880331,NA,NA,NotTracked,NotTracked,
0.9511719,-0.2373047,-0.1586914,-0.4145508,0.7294922,-0.4858398,0,0,-1,-3,-2,1,1,0,5,6,-15,-9,2,10,8,-4,0.1875,0.1875,0.1875,6.9375,6.9375,6.9375,1.576934,2.959481,7.362265,8.523003,5.492172,1.227989,-0.1353407,-0.5117772,1.727505,0.2803397,0.05745668,1.766917,0.06856968,0.3154085,1.832302,-0.1052147,-0.507098,1.683616,0.3396246,0.06077395,1.736149,0.06037382,-0.1282698,1.83763,0.05702943,-0.4209432,1.802504,-0.1103559,0.05005718,1.853453,-0.01559836,-0.4139568,1.77267,-0.1499473,-0.2152079,1.851299,0.4144903,-0.05942043,1.891019,NA,NA,NotTracked,NotTracked,
0.9511719,-0.2373047,-0.1586914,-0.4125977,0.7387695,-0.4775391,0,0,-1,-3,-2,1,1,0,-8,5,7,7,-1,-6,0,-3,0.1875,0.1875,0.1875,-3.5,-3.5,-3.5,1.576934,2.959481,7.362265,8.504702,5.522804,1.193681,-0.1349462,-0.5104316,1.72864,0.283618,0.05733467,1.768286,0.07060342,0.3150613,1.83289,-0.1040401,-0.5088889,1.683632,0.3446873,0.05855595,1.740358,0.06113365,-0.1283276,1.837661,0.0573369,-0.4209473,1.802495,-0.1095855,0.05017802,1.853346,-0.01524778,-0.4137942,1.772186,-0.1495157,-0.2152986,1.851262,0.4139309,-0.06213421,1.897391,NA,NA,NotTracked,NotTracked,
0.9511719,-0.2373047,-0.1586914,-0.4018555,0.7456055,-0.4550781,0,0,-1,-3,-2,1,1,0,-1,-5,-22,-5,-2,-4,-3,-5,0.1875,0.1875,0.1875,-11.8125,-11.8125,-11.8125,1.576934,2.959481,7.362265,8.478305,5.554213,1.177565,-0.1352877,-0.5115091,1.727735,0.2843055,0.05643735,1.770021,0.07243443,0.314888,1.833455,-0.1026406,-0.4975555,1.688376,0.3540986,0.05158877,1.744081,0.0615823,-0.1283451,1.837937,0.05743763,-0.4209253,1.802629,-0.1085566,0.05043437,1.85362,-0.01520414,-0.4136606,1.772167,-0.149275,-0.2142764,1.851382,0.4134791,-0.06546681,1.901281,NA,NA,NotTracked,NotTracked,
0.9511719,-0.2373047,-0.1586914,-0.3286133,0.7460938,-0.3847656,0,0,-1,-3,-2,1,1,0,5,2,7,-7,1,-4,0,-2,0.1875,0.1875,0.1875,-30.25,-30.25,-30.25,1.576934,2.959481,7.362265,8.427462,5.562325,1.165692,-0.1351553,-0.5131024,1.727996,0.2844921,0.05369781,1.765707,0.07375522,0.3149986,1.834044,-0.1023436,-0.4985808,1.687613,0.3482516,0.05345538,1.741907,0.06210534,-0.1283053,1.838197,0.05752661,-0.4208879,1.802677,-0.1077919,0.05088636,1.854338,-0.01513425,-0.4135019,1.772019,-0.1487363,-0.2148105,1.851151,0.4114568,-0.06762037,1.901665,NA,NA,NotTracked,NotTracked,
0.9511719,-0.2373047,-0.1586914,-0.2280273,0.7246094,-0.2543945,0,0,-1,-3,-2,1,1,0,0,5,-9,7,0,-6,1,-2,0.1875,0.1875,0.1875,-81.3125,-81.3125,-81.3125,1.576934,2.959481,7.362265,8.266294,5.459198,1.152224,-0.1348552,-0.5124874,1.727161,0.287663,0.03500333,1.749459,0.07425614,0.3149315,1.834636,-0.1013547,-0.4938377,1.688901,0.3449412,0.03493335,1.72368,0.06239375,-0.1283003,1.838458,0.05762565,-0.4208844,1.802743,-0.1069517,0.05095685,1.854775,-0.01510756,-0.4134623,1.772014,-0.1484759,-0.2143713,1.851232,0.405777,-0.074994,1.898489,NA,NA,NotTracked,Unknown,
0.9511719,-0.2373047,-0.1586914,-0.1484375,0.7685547,-0.2861328,0,0,-1,-3,-2,1,1,0,1,1,3,4,-2,-1,3,-1,0.1875,0.1875,0.1875,-97.75,-97.75,-97.75,1.576934,2.959481,7.362265,8.106871,5.271531,1.165556,-0.1343433,-0.5128036,1.728098,0.2901087,-0.003601538,1.720339,0.07425713,0.3150263,1.835883,-0.1020899,-0.4960663,1.688758,0.3412879,-0.006357395,1.70475,0.06275751,-0.1283158,1.838804,0.05767881,-0.4208913,1.802866,-0.1063847,0.05042958,1.855766,-0.01508983,-0.4134961,1.772286,-0.1480343,-0.2149364,1.851748,0.3923816,-0.09125506,1.88228,NA,NA,NotTracked,NotTracked,
0.9511719,-0.2373047,-0.1586914,-0.01025391,0.9140625,-0.2509766,0,0,-1,-3,-2,1,1,0,-1,-1,-3,4,-3,-6,-27,35,0.1875,0.1875,0.1875,-96.1875,-96.1875,-96.1875,1.576934,2.959481,7.362265,7.949899,5.026951,1.186006,-0.1340633,-0.5133844,1.728001,0.2942238,-0.07549619,1.684306,0.07393728,0.3153105,1.837222,-0.1020865,-0.4972287,1.688453,0.3015019,-0.05679155,1.65094,0.06303304,-0.128278,1.839016,0.0578442,-0.4208149,1.802986,-0.1060128,0.05023112,1.857247,-0.01493885,-0.4134837,1.772682,-0.1472913,-0.2156122,1.852443,0.3872845,-0.1366243,1.850905,NA,NA,NotTracked,NotTracked,
0.9511719,-0.2373047,-0.1586914,-0.04638672,0.8769531,-0.215332,0,0,-1,-3,-2,1,1,0,1,7,6,6,-5,-12,10,26,0.1875,0.1875,0.1875,-61.4375,-61.4375,-61.4375,1.576934,2.959481,7.362265,7.825831,4.764015,1.242988,-0.13426,-0.5132433,1.728196,0.276421,-0.1644193,1.656541,0.07314622,0.3158454,1.838402,-0.1017511,-0.4956078,1.688819,0.2916199,-0.1458304,1.618928,0.0632105,-0.1281151,1.839146,0.05794698,-0.4205684,1.803055,-0.1062934,0.0499471,1.858244,-0.01486274,-0.413274,1.773046,-0.1469568,-0.2154871,1.852878,0.3596664,-0.1100361,1.919546,NA,NA,NotTracked,Closed,
0.9511719,-0.2373047,-0.1586914,0.237793,0.9208984,-0.128418,0,0,-1,-3,-2,1,1,0,-7,-3,-3,-2,-1,5,5,5,0.1875,0.1875,0.1875,-18.75,-18.75,-18.75,1.576934,2.959481,7.362265,7.72303,4.375093,1.26059,-0.1334179,-0.5110886,1.728921,0.2812442,-0.2559039,1.650387,0.07192609,0.3165258,1.839872,-0.1020118,-0.4969597,1.68835,0.3038056,-0.2810312,1.638412,0.06326439,-0.1279277,1.839241,0.05793825,-0.4204036,1.803174,-0.1065561,0.04971855,1.859266,-0.01496798,-0.4131092,1.773412,-0.14642,-0.2169947,1.853881,0.3450177,-0.1350015,1.918586,NA,NA,NotTracked,Lasso,
0.9511719,-0.2373047,-0.1586914,0.4848633,0.9047852,-0.02832031,0,0,-1,-3,-2,1,1,0,3,-1,-1,-1,2,1,0,-6,0.1875,0.1875,0.1875,-10.5625,-10.5625,-10.5625,1.576934,2.959481,7.362265,7.70292,4.07964,1.251517,-0.1344791,-0.5100296,1.728891,0.2695161,-0.3564656,1.659369,0.07075016,0.317428,1.84104,-0.09973164,-0.4837767,1.692042,0.2305359,-0.3799778,1.717953,0.06307576,-0.1277117,1.839293,0.0578436,-0.4203987,1.803227,-0.1068062,0.04957385,1.859572,-0.01515956,-0.4131255,1.773569,-0.1463015,-0.2177056,1.853956,0.3391708,-0.1530416,1.911374,NA,NA,NotTracked,Unknown,
0.9511719,-0.2373047,-0.1586914,0.7949219,0.8984375,-0.02197266,0,0,-1,-3,-2,1,1,0,-8,-4,-2,1,-1,-2,0,-7,0.1875,0.1875,0.1875,-4.875,-4.875,-4.875,1.576934,2.959481,7.362265,7.724041,3.787865,1.229741,-0.1348908,-0.5109475,1.728403,0.2738857,-0.4117815,1.664807,0.06919985,0.318336,1.842526,-0.1008445,-0.4919573,1.688564,0.3054394,-0.4215993,1.670667,0.06297252,-0.1276456,1.839275,0.05784542,-0.4204801,1.803235,-0.1075064,0.04946915,1.859738,-0.01517313,-0.413242,1.773604,-0.1467113,-0.2181659,1.853808,0.3261755,-0.1921842,1.888353,NA,NA,NotTracked,Unknown,
0.9511719,-0.2373047,-0.1586914,0.9228516,0.6313477,-0.1000977,0,0,-1,-3,-2,1,1,0,-6,1,-1,-4,2,0,-5,-17,0.1875,0.1875,0.1875,-28.3125,-28.3125,-28.3125,1.576934,2.959481,7.362265,7.708716,3.470784,1.161629,-0.1350019,-0.5144444,1.726552,0.2705144,-0.4651486,1.683089,0.06782976,0.3197841,1.844076,-0.1010449,-0.4940786,1.68764,0.2434266,-0.4300992,1.646706,0.06287633,-0.1275155,1.839212,0.05801942,-0.420665,1.803114,-0.1079196,0.04931312,1.859731,-0.01504863,-0.413499,1.773552,-0.1469325,-0.2190287,1.853514,0.3179271,-0.2041429,1.878753,NA,NA,NotTracked,NotTracked,
0.9511719,-0.2373047,-0.1586914,0.980957,0.5595703,-0.09033203,0,0,-1,-3,-2,1,1,0,1,-1,2,7,3,-2,-3,0,0.1875,0.1875,0.1875,-54.8125,-54.8125,-54.8125,1.576934,2.959481,7.362265,7.736191,3.276103,1.045772,-0.1334156,-0.5141329,1.726075,0.2717422,-0.4755132,1.7133,0.06715465,0.3208113,1.845385,-0.1000717,-0.4973097,1.684612,0.2475417,-0.4626634,1.669037,0.06291102,-0.127356,1.839077,0.0587114,-0.4209001,1.802793,-0.108246,0.04917097,1.859666,-0.01443348,-0.4138683,1.773265,-0.1474487,-0.2191117,1.853316,0.3069236,-0.2145978,1.870935,NA,NA,NotTracked,NotTracked,
