ALX,ALY,ALZ,ARX,ARY,ARZ,EMG0L,EMG1L,EMG2L,EMG3L,EMG4L,EMG5L,EMG6L,EMG7L,EMG0R,EMG1R,EMG2R,EMG3R,EMG4R,EMG5R,EMG6R,EMG7R,GLX,GLY,GLZ,GRX,GRY,GRZ,ORL,OPL,OYL,ORR,OPR,OYR,LHNX,LHNY,LHNZ,RHNX,RHNY,RHNZ,HX,HY,HZ,LTX,LTY,LTZ,RTX,RTY,RTZ,SpineMidX,SpineMidY,SpineMidZ,SpineBaseX,SpineBaseY,SpineBaseZ,ShoulderLeftX,ShoulderLeftY,ShoulderLeftZ,ShoulderRightX,ShoulderRightY,ShoulderRightZ,ElbowLeftX,ElbowLeftY,ElbowLeftZ,ElbowRightX,ElbowRightY,ElbowRightZ,Myo_Pose_left,Myo_Pose_Right,Kinect_pose_left,Kinect_pose_right
0.9667969,-0.1791992,-0.1469727,0.9116211,0.3510742,-0.04931641,-1,-1,-1,2,-1,0,0,-1,-3,-1,-1,1,6,-5,-1,-2,0.375,0.375,0.375,1.3125,1.3125,1.3125,1.407709,2.890489,9.73115,7.713256,3.082365,0.07300185,-0.1606702,-0.4689365,1.7834,0.2920965,-0.466875,1.749132,0.06670634,0.3296206,1.837283,-0.1378819,-0.4668615,1.730117,0.269972,-0.4420073,1.719059,0.06045137,-0.1418531,1.855762,0.05475165,-0.4594195,1.858804,-0.1066156,0.06105779,1.845818,-0.03092645,-0.4480983,1.826069,-0.1633674,-0.2130475,1.889849,0.3229268,-0.2083898,1.915814,NA,NA,NotTracked,NotTracked,
0.9667969,-0.1791992,-0.1469727,0.9082031,0.3383789,-0.05175781,-1,-1,-1,2,-1,0,0,-1,-2,0,0,0,6,0,-1,-2,0.375,0.375,0.375,-0.375,-0.375,-0.375,1.407709,2.890489,9.73115,7.713256,3.082365,0.07300185,-0.1590533,-0.4713331,1.778426,0.2918866,-0.4671024,1.7488,0.06667559,0.3296276,1.837463,-0.119545,-0.4305462,1.7462,0.2720349,-0.4401168,1.719947,0.06044334,-0.1417918,1.855842,0.05474455,-0.4594094,1.858815,-0.1066823,0.06106382,1.845863,-0.03094989,-0.4480959,1.826069,-0.163341,-0.2128062,1.88973,0.3227872,-0.2082031,1.915929,NA,NA,NotTracked,NotTracked,
0.9667969,-0.1791992,-0.1469727,0.9130859,0.3500977,-0.04638672,-1,-1,-1,2,-1,0,0,-1,-1,-2,-1,0,-4,-2,-1,-3,0.375,0.375,0.375,1.0625,1.0625,1.0625,1.407709,2.890489,9.73115,7.715955,3.082135,0.07255077,-0.160948,-0.4655415,1.783657,0.3060413,-0.4417565,1.777546,0.06665044,0.3296166,1.837444,-0.1324141,-0.4565952,1.734351,0.2878439,-0.4402678,1.72059,0.06048179,-0.1417657,1.855852,0.05478584,-0.4594188,1.858784,-0.1067527,0.06107252,1.845885,-0.03080415,-0.4481516,1.826034,-0.1633443,-0.2122896,1.889517,0.3227001,-0.2079816,1.915835,NA,NA,NotTracked,NotTracked,
0.9667969,-0.1791992,-0.1469727,0.9082031,0.34375,-0.04492188,-1,-1,-1,2,-1,0,0,-1,-2,1,0,0,-5,-1,0,-1,0.375,0.375,0.375,-0.6875,-0.6875,-0.6875,1.407709,2.890489,9.73115,7.715981,3.081794,0.07283925,-0.1631449,-0.4689341,1.784627,0.291304,-0.4696131,1.746858,0.06661404,0.3295776,1.837419,-0.1397811,-0.4645061,1.733152,0.2694179,-0.4438983,1.717377,0.06044395,-0.1417494,1.855826,0.05472873,-0.459439,1.858706,-0.1068114,0.06092257,1.845867,-0.03087873,-0.4481827,1.825984,-0.1633286,-0.2124086,1.8895,0.3226418,-0.2080657,1.915637,NA,NA,NotTracked,NotTracked,
0.9667969,-0.1791992,-0.1469727,0.9101563,0.34375,-0.04443359,-1,-1,-1,2,-1,0,0,-1,1,0,0,-2,1,1,1,1,0.375,0.375,0.375,-1.4375,-1.4375,-1.4375,1.407709,2.890489,9.73115,7.716187,3.08136,0.07091038,-0.1647265,-0.4729206,1.782826,0.2950243,-0.4484255,1.767235,0.06658287,0.329595,1.837398,-0.1444875,-0.4716246,1.730146,0.2546383,-0.4211002,1.734842,0.06042116,-0.1417331,1.855842,0.05472698,-0.4594331,1.858702,-0.1068638,0.06092537,1.845918,-0.03088547,-0.4481938,1.825985,-0.1631962,-0.2126918,1.889621,0.3225909,-0.2081181,1.915635,NA,NA,NotTracked,NotTracked,
0.9667969,-0.1791992,-0.1469727,0.9111328,0.3354492,-0.05615234,-1,-1,-1,2,-1,0,0,-1,-2,-3,-1,1,7,-2,0,-2,0.375,0.375,0.375,-2.4375,-2.4375,-2.4375,1.407709,2.890489,9.73115,7.716177,3.081363,0.06875129,-0.1618613,-0.4722921,1.779583,0.2926859,-0.4614423,1.751391,0.06649513,0.3294762,1.837291,-0.1386124,-0.4697576,1.726024,0.2668225,-0.4525018,1.711002,0.06041194,-0.1417351,1.855828,0.05472363,-0.4594354,1.858699,-0.106968,0.06088737,1.845998,-0.03089413,-0.4481988,1.82598,-0.1632714,-0.2127423,1.889686,0.3224487,-0.2081886,1.915586,NA,NA,NotTracked,NotTracked,
0.9667969,-0.1791992,-0.1469727,0.9121094,0.3447266,-0.04785156,-1,-1,-1,2,-1,0,0,-1,1,-1,-3,-4,-4,-2,-1,-1,0.375,0.375,0.375,-0.25,-0.25,-0.25,1.407709,2.890489,9.73115,7.714518,3.081545,0.06943416,-0.1615808,-0.4723755,1.779298,0.2894939,-0.4667281,1.747287,0.06637476,0.3293584,1.83691,-0.1389724,-0.4789255,1.722143,0.2625528,-0.4496932,1.714538,0.06045163,-0.1417555,1.855804,0.05497622,-0.4595348,1.858532,-0.1069905,0.06088997,1.846002,-0.03042124,-0.4484168,1.825736,-0.1633498,-0.2129074,1.889682,0.3223664,-0.2083323,1.915593,NA,NA,NotTracked,NotTracked,
0.9667969,-0.1791992,-0.1469727,0.909668,0.3374023,-0.04882813,-1,-1,-1,2,-1,0,0,-1,1,-1,1,0,-4,-3,1,-1,0.375,0.375,0.375,-0.5,-0.5,-0.5,1.407709,2.890489,9.73115,7.714574,3.081496,0.06882415,-0.1647358,-0.4711508,1.786608,0.291453,-0.4628106,1.753046,0.06634739,0.3293079,1.836744,-0.1487181,-0.4752224,1.732349,0.2632922,-0.4562302,1.712902,0.06047511,-0.1417642,1.855821,0.05503585,-0.4595637,1.858492,-0.1069838,0.06087016,1.845976,-0.03036186,-0.4484748,1.825644,-0.1633712,-0.2129413,1.889741,0.3223492,-0.2083272,1.915619,NA,NA,NotTracked,NotTracked,
0.9667969,-0.1791992,-0.1469727,0.9008789,0.3417969,-0.04736328,-1,-1,-1,2,-1,0,0,-1,-2,0,-1,0,4,0,0,1,0.375,0.375,0.375,-1.1875,-1.1875,-1.1875,1.407709,2.890489,9.73115,7.714211,3.081738,0.0685553,-0.1626266,-0.4654648,1.786565,0.2949602,-0.4514716,1.765405,0.06634632,0.3292626,1.836636,-0.1383158,-0.4597235,1.736728,0.2558196,-0.4186917,1.737588,0.0603517,-0.1417378,1.855979,0.05481637,-0.4595359,1.858678,-0.1070211,0.06092884,1.846134,-0.03057759,-0.4484315,1.825793,-0.1634271,-0.2128344,1.889994,0.3223709,-0.208373,1.915849,NA,NA,NotTracked,NotTracked,
0.9667969,-0.1791992,-0.1469727,0.9067383,0.3442383,-0.05566406,-1,-1,-1,2,-1,0,0,-1,-1,0,-1,-3,-25,-2,-1,0,0.375,0.375,0.375,0.4375,0.4375,0.4375,1.407709,2.890489,9.73115,7.714443,3.081689,0.06719869,-0.1621736,-0.4744873,1.781018,0.3037569,-0.4451047,1.777227,0.06634351,0.329107,1.836561,-0.136809,-0.4606444,1.736577,0.2813548,-0.4375452,1.724362,0.06039038,-0.1417959,1.856077,0.05501512,-0.4596556,1.858714,-0.1070303,0.0609334,1.846221,-0.03024271,-0.4485942,1.825839,-0.1634262,-0.2129458,1.890004,0.3222826,-0.2083537,1.916399,NA,NA,NotTracked,NotTracked,
0.9667969,-0.1791992,-0.1469727,1.022949,0.3369141,-0.1469727,-1,-1,-1,2,-1,0,0,-1,-4,-6,3,16,4,-16,-2,-3,0.375,0.375,0.375,-4.625,-4.625,-4.625,1.407709,2.890489,9.73115,7.736604,3.091865,0.03712381,-0.1619158,-0.4737454,1.781528,0.3031516,-0.4430954,1.774251,0.06629536,0.3288961,1.836375,-0.1329054,-0.4563916,1.738828,0.2826872,-0.4379776,1.721666,0.06031065,-0.1418499,1.856182,0.05491042,-0.4597096,1.858884,-0.1070979,0.06085369,1.846292,-0.03039191,-0.4486347,1.826008,-0.163503,-0.2129551,1.890252,0.3225057,-0.2081969,1.916832,NA,NA,NotTracked,NotTracked,
0.9667969,-0.1791992,-0.1469727,1.059082,0.6743164,-0.3681641,-1,-1,-1,2,-1,0,0,-1,8,14,30,19,15,26,4,8,0.375,0.375,0.375,11.4375,11.4375,11.4375,1.407709,2.890489,9.73115,7.829517,3.201813,9.948274,-0.1656725,-0.4723693,1.783243,0.3059606,-0.4263473,1.765465,0.06620635,0.3287477,1.83612,-0.1475472,-0.470925,1.732021,0.2784639,-0.4217361,1.718451,0.0602762,-0.1418605,1.856164,0.05495222,-0.4597433,1.858861,-0.1072214,0.06083767,1.846269,-0.03031082,-0.4486743,1.825926,-0.1635064,-0.2128516,1.890365,0.3265947,-0.1974303,1.920877,NA,NA,NotTracked,NotTracked,
0.9667969,-0.1791992,-0.1469727,0.684082,0.9086914,-0.05712891,-1,-1,-1,2,-1,0,0,-1,-4,0,14,24,6,-5,0,-3,0.375,0.375,0.375,-14.4375,-14.4375,-14.4375,1.407709,2.890489,9.73115,7.841547,3.372424,9.925031,-0.1646858,-0.4723157,1.782111,0.3018471,-0.4069029,1.742143,0.06614878,0.3286393,1.836024,-0.1472864,-0.4838326,1.72479,0.2509958,-0.3955343,1.7288,0.0602272,-0.1419213,1.856057,0.05521287,-0.459804,1.858536,-0.1074626,0.0606523,1.846004,-0.0298856,-0.4488171,1.825325,-0.1635262,-0.212768,1.890291,0.3348112,-0.1757395,1.922904,NA,NA,NotTracked,NotTracked,
0.9667969,-0.1791992,-0.1469727,0.7094727,0.6445313,0.04882813,-1,-1,-1,2,-1,0,0,-1,-6,-9,-12,-11,-3,0,1,-3,0.375,0.375,0.375,70.0625,70.0625,70.0625,1.407709,2.890489,9.73115,7.816774,3.70716,0.03348163,-0.1686814,-0.4565178,1.797073,0.2971877,-0.393479,1.714974,0.06605566,0.3285279,1.835891,-0.1482687,-0.4588438,1.7386,0.2537993,-0.3883149,1.7464,0.06020013,-0.141895,1.85612,0.05523831,-0.4596993,1.858559,-0.1076591,0.06053133,1.845971,-0.02991107,-0.448731,1.825331,-0.163771,-0.2128393,1.89001,0.3437486,-0.1608693,1.912092,NA,NA,NotTracked,NotTracked,
0.9667969,-0.1791992,-0.1469727,0.4458008,0.7700195,0.01904297,-1,-1,-1,2,-1,0,0,-1,-12,-8,-5,-19,0,0,1,-5,0.375,0.375,0.375,84.3125,84.3125,84.3125,1.407709,2.890489,9.73115,7.804714,3.939746,0.2622155,-0.1489688,-0.4763613,1.764398,0.2471033,-0.3804152,1.674171,0.06582591,0.3283619,1.8358,-0.1117374,-0.4380037,1.72956,0.2039869,-0.3686731,1.689636,0.06025511,-0.1417842,1.856065,0.05574529,-0.4589983,1.857939,-0.1077753,0.06049233,1.846015,-0.02930712,-0.4479194,1.824486,-0.1638751,-0.2127444,1.890033,0.3554263,-0.1414035,1.887872,NA,NA,NotTracked,Unknown,
0.9667969,-0.1791992,-0.1469727,0.3081055,1.027832,0.1030273,-1,-1,-1,2,-1,0,0,-1,-18,-11,-11,6,-4,1,0,-30,0.375,0.375,0.375,32.75,32.75,32.75,1.407709,2.890489,9.73115,7.742388,4.253512,0.6225889,-0.1595512,-0.4720511,1.779497,0.1796877,-0.2881864,1.636426,0.06563909,0.3281625,1.83601,-0.1249772,-0.4502814,1.739167,0.1984928,-0.3361402,1.644616,0.06006335,-0.1417447,1.85595,0.0548482,-0.4583912,1.855768,-0.1081338,0.05996633,1.846961,-0.02976301,-0.4470444,1.822955,-0.1640821,-0.212927,1.890275,0.3597859,-0.1251217,1.859552,NA,NA,NotTracked,Unknown,
0.9667969,-0.1791992,-0.1469727,0.1347656,1.000977,0.09570313,-1,-1,-1,2,-1,0,0,-1,1,-5,9,32,-6,1,3,-14,0.375,0.375,0.375,29,29,29,1.407709,2.890489,9.73115,7.668772,4.602394,1.022005,-0.1533449,-0.4754256,1.770548,0.1252909,-0.2017404,1.638309,0.06573261,0.3281151,1.836298,-0.1171635,-0.4336544,1.740789,0.1258584,-0.2634994,1.658028,0.06011713,-0.1415412,1.856433,0.05524842,-0.4576193,1.856077,-0.108376,0.05994715,1.849176,-0.02862964,-0.4461024,1.823208,-0.1639952,-0.2128233,1.890519,0.3553232,-0.126562,1.813255,NA,NA,NotTracked,Unknown,
0.9667969,-0.1791992,-0.1469727,0.1499023,1.036621,0.1015625,-1,-1,-1,2,-1,0,0,-1,-14,-2,-9,-7,0,-8,-12,-33,0.375,0.375,0.375,34.4375,34.4375,34.4375,1.407709,2.890489,9.73115,7.668919,4.857878,1.31112,-0.1633001,-0.4716953,1.782082,0.08635826,-0.1350674,1.645597,0.06668849,0.3278621,1.837614,-0.143718,-0.4677863,1.732784,0.07568083,-0.1911035,1.679962,0.06017156,-0.1414905,1.856988,0.05528362,-0.457573,1.856111,-0.1056783,0.05976349,1.848985,-0.02830084,-0.4459879,1.82344,-0.1635899,-0.2131897,1.891599,0.3339102,-0.137491,1.76135,NA,NA,NotTracked,Unknown,
0.9667969,-0.1791992,-0.1469727,0.07666016,1.024414,0.03759766,-1,-1,-1,2,-1,0,0,-1,5,1,4,12,3,2,5,33,0.375,0.375,0.375,35.75,35.75,35.75,1.407709,2.890489,9.73115,7.735338,5.141929,1.648562,-0.1690862,-0.4773062,1.787867,0.08863959,-0.09867224,1.66104,0.06812478,0.3274755,1.839129,-0.1454923,-0.4673119,1.740583,0.07783734,-0.1431135,1.702245,0.06048599,-0.1415487,1.857776,0.05537108,-0.4576642,1.856412,-0.1059722,0.06038043,1.853762,-0.02794626,-0.4461778,1.824284,-0.163383,-0.2141074,1.893044,0.310309,-0.1365669,1.725569,NA,NA,NotTracked,Unknown,
0.9667969,-0.1791992,-0.1469727,0.002929688,0.9580078,-0.01904297,-1,-1,-1,2,-1,0,0,-1,-4,-6,-6,-9,-3,-3,-2,7,0.375,0.375,0.375,14.1875,14.1875,14.1875,1.407709,2.890489,9.73115,7.79399,5.288359,1.854462,-0.1635456,-0.4731382,1.783306,0.02590949,-0.05877241,1.67013,0.07017167,0.3274111,1.840606,-0.1434581,-0.4677804,1.734621,0.02840828,-0.01297811,1.697571,0.0605371,-0.1417278,1.858561,0.05530996,-0.4579473,1.856835,-0.1062685,0.06314513,1.856675,-0.02797196,-0.4466097,1.825261,-0.1622776,-0.2163504,1.895782,0.2758933,-0.1265928,1.703063,NA,NA,NotTracked,Unknown,
0.9667969,-0.1791992,-0.1469727,0.05761719,0.8857422,-0.09863281,-1,-1,-1,2,-1,0,0,-1,1,-4,0,-3,-4,1,4,12,0.375,0.375,0.375,7.75,7.75,7.75,1.407709,2.890489,9.73115,7.826855,5.356667,2.007633,-0.1633745,-0.4711522,1.785503,-0.03981586,-0.02323136,1.68336,0.07206177,0.3270837,1.841513,-0.1446964,-0.4706401,1.73309,-0.01219428,-0.01012414,1.639176,0.06073989,-0.1421366,1.859107,0.0558245,-0.4590214,1.857325,-0.1016503,0.06273156,1.844365,-0.02765009,-0.4479883,1.82644,-0.1615716,-0.216562,1.897041,0.2497662,-0.1206404,1.685857,NA,NA,NotTracked,Unknown,
0.9667969,-0.1791992,-0.1469727,0.01025391,0.8945313,-0.1196289,-1,-1,-1,2,-1,0,0,-1,-4,-3,-5,-6,-6,-4,-16,-20,0.375,0.375,0.375,-3.0625,-3.0625,-3.0625,1.407709,2.890489,9.73115,7.83841,5.378286,2.119595,-0.1631142,-0.4729755,1.782927,-0.03732224,-0.01710336,1.686855,0.07330517,0.3269181,1.841783,-0.142449,-0.470063,1.731586,-0.04397543,-0.03287636,1.651585,0.06162539,-0.1429009,1.859458,0.05866543,-0.4614188,1.857333,-0.09940556,0.06265813,1.838554,-0.02390109,-0.4512874,1.82744,-0.1608353,-0.2147373,1.897363,0.2258674,-0.1157048,1.673739,NA,NA,NotTracked,Unknown,
0.9667969,-0.1791992,-0.1469727,-0.1025391,0.9282227,-0.1845703,-1,-1,-1,2,-1,0,0,-1,7,7,6,11,-4,-4,5,5,0.375,0.375,0.375,-11.75,-11.75,-11.75,1.407709,2.890489,9.73115,7.840072,5.380021,2.191722,-0.1632064,-0.4730418,1.784554,-0.03565277,-0.01571563,1.69078,0.07412646,0.326764,1.841558,-0.1367923,-0.4566299,1.740478,-0.00134487,-0.007553906,1.639667,0.06207084,-0.1432562,1.859602,0.05966251,-0.4621419,1.85749,-0.0985861,0.06269661,1.836349,-0.02293584,-0.4522513,1.828142,-0.1603343,-0.2139416,1.897452,0.2166795,-0.1136488,1.66822,NA,NA,NotTracked,Unknown,
0.9667969,-0.1791992,-0.1469727,-0.1606445,0.9355469,-0.2275391,-1,-1,-1,2,-1,0,0,-1,0,1,0,25,1,-1,-1,17,0.375,0.375,0.375,-9.75,-9.75,-9.75,1.407709,2.890489,9.73115,7.832356,5.371079,2.222592,-0.1639776,-0.4743823,1.783736,-0.0366401,-0.01664134,1.69295,0.07477807,0.3264536,1.840871,-0.1444373,-0.4743285,1.729693,-0.03493137,0.005568145,1.654,0.06209258,-0.1436443,1.859614,0.06024154,-0.4628167,1.857767,-0.09824926,0.06238005,1.834785,-0.02237376,-0.4531856,1.828987,-0.1603195,-0.2137295,1.897349,0.2148356,-0.1145413,1.667142,NA,NA,NotTracked,Unknown,
0.9667969,-0.1791992,-0.1469727,-0.1479492,0.9555664,-0.2080078,-1,-1,-1,2,-1,0,0,-1,-7,-6,-2,7,8,-2,-4,7,0.375,0.375,0.375,-6.0625,-6.0625,-6.0625,1.407709,2.890489,9.73115,7.823097,5.357255,2.213702,-0.164383,-0.4745086,1.785402,-0.03506653,-0.01698391,1.69194,0.07511149,0.3261631,1.840325,-0.1386079,-0.4594966,1.739089,-0.04410913,-0.03072348,1.658843,0.06223902,-0.1440398,1.859587,0.06119253,-0.4634248,1.857962,-0.0983459,0.06200144,1.833818,-0.02168453,-0.4539453,1.829389,-0.1602673,-0.2137652,1.897553,0.2143685,-0.1154083,1.666763,NA,NA,NotTracked,Unknown,
0.9667969,-0.1791992,-0.1469727,-0.0078125,0.9506836,-0.3208008,-1,-1,-1,2,-1,0,0,-1,-16,-4,-4,-12,-7,-7,-11,-69,0.375,0.375,0.375,18.1875,18.1875,18.1875,1.407709,2.890489,9.73115,7.834335,5.295886,2.136184,-0.162845,-0.4730965,1.782668,-0.03383989,-0.01750688,1.691463,0.07549265,0.3257775,1.839369,-0.1359826,-0.458802,1.737266,-0.004099596,0.01944948,1.719922,0.06214366,-0.1444752,1.859512,0.06136752,-0.4640421,1.857955,-0.09849747,0.06143828,1.832699,-0.02156026,-0.454659,1.829256,-0.1602494,-0.2139605,1.897672,0.2215744,-0.116648,1.667992,NA,NA,NotTracked,Unknown,
0.9667969,-0.1791992,-0.1469727,0.02441406,1.05127,-0.265625,-1,-1,-1,2,-1,0,0,-1,5,4,5,-1,-1,-2,-3,9,0.375,0.375,0.375,30.25,30.25,30.25,1.407709,2.890489,9.73115,7.867235,5.234109,2.039165,-0.1620387,-0.4712042,1.782727,-0.03294162,-0.01754106,1.690838,0.07577368,0.3254515,1.838181,-0.1379218,-0.4762534,1.724789,-0.005331025,0.0280118,1.714909,0.06168859,-0.1448941,1.859347,0.06068017,-0.4644973,1.857956,-0.09880477,0.06096272,1.832295,-0.02266335,-0.4548938,1.828885,-0.1606285,-0.2142387,1.897768,0.2404065,-0.1176929,1.67164,NA,NA,NotTracked,Unknown,
0.9667969,-0.1791992,-0.1469727,0.04443359,1.019531,-0.2124023,-1,-1,-1,2,-1,0,0,-1,-2,5,-2,9,-4,-12,-27,-8,0.375,0.375,0.375,48.625,48.625,48.625,1.407709,2.890489,9.73115,7.911466,5.164643,1.885277,-0.1635642,-0.4740483,1.781858,0.06799246,-0.03130471,1.653549,0.07568818,0.3250155,1.836686,-0.1356006,-0.4592078,1.736784,0.1046123,-0.02356275,1.611965,0.06120057,-0.145163,1.85925,0.05966211,-0.4646901,1.857897,-0.1023876,0.06070355,1.837752,-0.02403974,-0.4547923,1.828369,-0.1621439,-0.216466,1.898242,0.2780717,-0.1151512,1.677449,NA,NA,NotTracked,Unknown,
0.9667969,-0.1791992,-0.1469727,-0.01269531,1.066406,-0.140625,-1,-1,-1,2,-1,0,0,-1,-6,-11,1,1,3,10,6,13,0.375,0.375,0.375,47.3125,47.3125,47.3125,1.407709,2.890489,9.73115,7.949672,5.121549,1.751747,-0.1627932,-0.4689536,1.785114,0.04158965,-0.01616703,1.65742,0.07522655,0.324818,1.835558,-0.1359718,-0.4630101,1.733969,0.05635486,-0.06429514,1.704333,0.06077919,-0.145284,1.858989,0.05901814,-0.4646031,1.857686,-0.1053213,0.060578,1.842185,-0.02467245,-0.4544728,1.8277,-0.1629714,-0.2160958,1.897678,0.3122192,-0.1096216,1.692076,NA,NA,NotTracked,Unknown,
0.9667969,-0.1791992,-0.1469727,-0.02734375,1.036133,-0.1650391,-1,-1,-1,2,-1,0,0,-1,-3,3,0,-18,-4,6,1,-27,0.375,0.375,0.375,53.875,53.875,53.875,1.407709,2.890489,9.73115,8.016866,5.06367,1.502237,-0.1637136,-0.4664287,1.787514,0.09227253,-0.008985837,1.647843,0.07421481,0.3247006,1.834207,-0.1366287,-0.463757,1.733017,0.04436509,-0.02969338,1.6335,0.06042425,-0.1453152,1.858755,0.05873622,-0.4643873,1.857793,-0.1073519,0.06034953,1.844239,-0.02496861,-0.4541546,1.827532,-0.1639393,-0.215429,1.895957,0.3487454,-0.09819578,1.712954,NA,NA,NotTracked,Unknown,
0.9667969,-0.1791992,-0.1469727,-0.1279297,1.04248,-0.1962891,-1,-1,-1,2,-1,0,0,-1,2,0,-7,-40,-6,-1,-10,1,0.375,0.375,0.375,71.6875,71.6875,71.6875,1.407709,2.890489,9.73115,8.181387,5.035205,0.9847349,-0.1615584,-0.4655135,1.784993,0.1800278,-0.0009941334,1.638144,0.07259955,0.3240642,1.831959,-0.1345706,-0.4612906,1.734509,0.183213,0.028596,1.608825,0.05978431,-0.1453039,1.858392,0.05804249,-0.4639591,1.857844,-0.1074725,0.05993706,1.841628,-0.0260296,-0.4534847,1.827308,-0.165076,-0.2151869,1.894437,0.3853948,-0.08590947,1.740019,NA,NA,NotTracked,Unknown,
0.9667969,-0.1791992,-0.1469727,-0.2060547,0.9731445,-0.1962891,-1,-1,-1,2,-1,0,0,-1,-8,-7,-4,-5,0,4,-5,-50,0.375,0.375,0.375,81.5,81.5,81.5,1.407709,2.890489,9.73115,8.29602,5.07321,0.6424787,-0.1661481,-0.4606536,1.793951,0.2003686,0.01225673,1.649955,0.07115769,0.3235146,1.829366,-0.1444129,-0.4646018,1.735197,0.1618657,0.04425357,1.628625,0.05940202,-0.1453714,1.857703,0.05797642,-0.4637926,1.857735,-0.1085355,0.05976154,1.841555,-0.02617212,-0.4532481,1.826799,-0.1662994,-0.2147638,1.891574,0.4048724,-0.07055,1.764223,NA,NA,NotTracked,Unknown,
0.9667969,-0.1791992,-0.1469727,-0.2851563,0.8701172,-0.1660156,-1,-1,-1,2,-1,0,0,-1,-3,1,-1,-49,-16,14,12,6,0.375,0.375,0.375,72.125,72.125,72.125,1.407709,2.890489,9.73115,8.397777,5.149337,0.3124632,-0.1663114,-0.4600091,1.79399,0.2571045,0.02195091,1.655863,0.06998222,0.3233477,1.825801,-0.1435754,-0.460759,1.735988,0.2933654,0.05353459,1.628088,0.05942084,-0.1453574,1.856856,0.05796607,-0.463472,1.857554,-0.1088466,0.05977233,1.840834,-0.02616669,-0.4526519,1.825987,-0.1671678,-0.2139058,1.889811,0.4593335,-0.06832137,1.814523,NA,NA,NotTracked,Unknown,
0.9667969,-0.1791992,-0.1469727,-0.3891602,0.7641602,-0.2573242,-1,-1,-1,2,-1,0,0,-1,-1,2,1,-21,-7,-1,-6,2,0.375,0.375,0.375,28.5625,28.5625,28.5625,1.407709,2.890489,9.73115,8.457402,5.270071,9.911283,-0.1629689,-0.4619388,1.790356,0.2737582,0.02809225,1.670478,0.06966642,0.3230402,1.823266,-0.1344352,-0.456042,1.735884,0.3008264,0.05923271,1.644105,0.05941643,-0.145285,1.856034,0.05788518,-0.462984,1.857198,-0.1088304,0.05970703,1.839577,-0.02627319,-0.4516427,1.82467,-0.1675384,-0.2140989,1.888206,0.4170111,-0.05000142,1.811298,NA,NA,NotTracked,Unknown,
0.9667969,-0.1791992,-0.1469727,-0.3901367,0.7978516,-0.2963867,-1,-1,-1,2,-1,0,0,-1,-2,-1,-33,21,19,3,0,3,0.375,0.375,0.375,9.3125,9.3125,9.3125,1.407709,2.890489,9.73115,8.439129,5.308361,9.814037,-0.164058,-0.4600692,1.788135,0.2894662,0.02966593,1.679064,0.06999605,0.322715,1.821058,-0.1374342,-0.457692,1.735402,0.3153155,0.06121846,1.651889,0.05980199,-0.1452418,1.855174,0.05797863,-0.4625851,1.856733,-0.1078321,0.05975888,1.837764,-0.02601429,-0.4508145,1.823241,-0.16742,-0.2139958,1.886682,0.4172477,-0.0509953,1.820016,NA,NA,NotTracked,Unknown,
0.9667969,-0.1791992,-0.1469727,-0.340332,0.8139648,-0.4121094,-1,-1,-1,2,-1,0,0,-1,-2,-6,-3,12,-13,-4,15,-31,0.375,0.375,0.375,-10.375,-10.375,-10.375,1.407709,2.890489,9.73115,8.38923,5.333884,9.712385,-0.1640368,-0.459672,1.788736,0.2929205,0.0224881,1.685243,0.07078454,0.3221433,1.819803,-0.1366481,-0.4551808,1.735255,0.3156256,0.05221736,1.65987,0.06048562,-0.145316,1.854666,0.05833368,-0.4623434,1.856407,-0.106993,0.06007058,1.836642,-0.0255245,-0.4504085,1.82243,-0.1672575,-0.2140271,1.884683,0.4136409,-0.0552582,1.836182,NA,NA,NotTracked,Unknown,
0.9667969,-0.1791992,-0.1469727,-0.3222656,0.8623047,-0.4726563,-1,-1,-1,2,-1,0,0,-1,-2,-2,-13,-57,-14,7,15,1,0.375,0.375,0.375,-16.1875,-16.1875,-16.1875,1.407709,2.890489,9.73115,8.343902,5.323169,9.677115,-0.1650557,-0.4575151,1.79188,0.2956262,0.01545414,1.687208,0.07160813,0.322051,1.819604,-0.1359009,-0.4546827,1.736344,0.3218457,0.04442923,1.659045,0.06071668,-0.1453128,1.854579,0.05840575,-0.4621853,1.856302,-0.1064326,0.06026706,1.836174,-0.02548219,-0.4502091,1.822237,-0.1671064,-0.2131865,1.883877,0.4091513,-0.06023507,1.846431,NA,NA,NotTracked,Unknown,
0.9667969,-0.1791992,-0.1469727,-0.1455078,0.8613281,-0.3452148,-1,-1,-1,2,-1,0,0,-1,0,-9,-18,-42,2,6,0,-2,0.375,0.375,0.375,-16.4375,-16.4375,-16.4375,1.407709,2.890489,9.73115,8.319977,5.312332,9.670448,-0.1645814,-0.4564758,1.792573,0.296528,0.008792499,1.684064,0.07264899,0.3219154,1.819793,-0.1403063,-0.458874,1.734787,0.3217627,0.03833917,1.657632,0.06078938,-0.1453215,1.854569,0.05807076,-0.4620302,1.856259,-0.1061084,0.06026164,1.836092,-0.02594384,-0.4500224,1.822111,-0.1668521,-0.2135548,1.883422,0.4064698,-0.06380832,1.849601,NA,NA,NotTracked,Unknown,
0.9667969,-0.1791992,-0.1469727,-0.5551758,0.9228516,-0.7260742,-1,-1,-1,2,-1,0,0,-1,-1,1,19,80,8,-15,-12,-1,0.375,0.375,0.375,-8.1875,-8.1875,-8.1875,1.407709,2.890489,9.73115,8.29884,5.293486,9.666543,-0.1651334,-0.457413,1.792663,0.3004515,-0.005031643,1.678746,0.07335608,0.3219013,1.820348,-0.1383221,-0.4562994,1.736951,0.3284028,0.02513461,1.649305,0.06090679,-0.1453236,1.854694,0.05802105,-0.4619764,1.856319,-0.1057497,0.06047519,1.836408,-0.02602361,-0.4499385,1.822168,-0.1667735,-0.2130016,1.883543,0.4064049,-0.07409409,1.855331,NA,NA,NotTracked,Unknown,
0.9667969,-0.1791992,-0.1469727,-0.3989258,0.9174805,-0.7573242,-1,-1,-1,2,-1,0,0,-1,-3,-1,4,8,1,5,6,-1,0.375,0.375,0.375,-14.75,-14.75,-14.75,1.407709,2.890489,9.73115,8.302011,5.276577,9.674182,-0.1650753,-0.4575947,1.794043,0.3431676,-0.04430733,1.674967,0.0735907,0.3218631,1.820676,-0.134826,-0.4507279,1.742897,0.3644362,-0.01126698,1.65184,0.06098221,-0.1453163,1.854851,0.05773332,-0.4619279,1.856349,-0.1054899,0.06057829,1.836805,-0.02640144,-0.4498032,1.822263,-0.1667155,-0.2130537,1.883685,0.4063272,-0.1115862,1.875223,NA,NA,NotTracked,Unknown,
0.9667969,-0.1791992,-0.1469727,0.03320313,0.9599609,-0.5786133,-1,-1,-1,2,-1,0,0,-1,5,3,-3,-3,2,-2,3,1,0.375,0.375,0.375,-15.5625,-15.5625,-15.5625,1.407709,2.890489,9.73115,8.240376,4.955837,9.712622,-0.1739932,-0.4719402,1.799602,0.2976034,-0.1303466,1.64995,0.07347718,0.3220529,1.821139,-0.1760212,-0.4895012,1.750334,0.2864476,-0.1084581,1.6292,0.06098621,-0.1452931,1.854884,0.05721537,-0.4617946,1.856432,-0.1054267,0.06056621,1.837274,-0.02694701,-0.4496026,1.822516,-0.1666025,-0.212902,1.883857,0.3694715,-0.06983845,1.942232,NA,NA,NotTracked,Unknown,
0.9667969,-0.1791992,-0.1469727,0.2597656,0.7758789,-0.3554688,-1,-1,-1,2,-1,0,0,-1,-2,3,7,-8,-7,-3,0,-3,0.375,0.375,0.375,-16.4375,-16.4375,-16.4375,1.407709,2.890489,9.73115,8.183831,4.650622,9.761661,-0.1625455,-0.4681693,1.785071,0.3220353,-0.2187298,1.660952,0.07278424,0.3223354,1.82208,-0.1415216,-0.4712897,1.729727,0.3212351,-0.1793829,1.637625,0.06086471,-0.1452312,1.854956,0.05652833,-0.4615586,1.856459,-0.1055737,0.06055211,1.837754,-0.02795755,-0.4492226,1.822866,-0.1660526,-0.2131257,1.884554,0.3750443,-0.08187018,1.93482,NA,NA,NotTracked,Unknown,
0.9667969,-0.1791992,-0.1469727,0.5400391,0.8789063,-0.3193359,-1,-1,-1,2,-1,0,0,-1,-2,1,1,-4,0,-1,4,-4,0.375,0.375,0.375,2.6875,2.6875,2.6875,1.407709,2.890489,9.73115,8.174873,4.322334,9.809808,-0.163012,-0.4680826,1.786292,0.3351608,-0.2895942,1.693767,0.07171711,0.3225215,1.822997,-0.1475327,-0.47286,1.73144,0.3020173,-0.2657831,1.7105,0.06082368,-0.1452014,1.854952,0.05641561,-0.4615017,1.85642,-0.1057491,0.06048929,1.838529,-0.02813105,-0.4491448,1.822894,-0.1658633,-0.2131318,1.884832,0.376741,-0.1010993,1.932464,NA,NA,NotTracked,Unknown,
0.9667969,-0.1791992,-0.1469727,0.6191406,0.8305664,-0.3105469,-1,-1,-1,2,-1,0,0,-1,1,6,4,6,4,2,4,0,0.375,0.375,0.375,-3.375,-3.375,-3.375,1.407709,2.890489,9.73115,8.178372,3.946541,9.844494,-0.1651501,-0.4700097,1.788809,0.332224,-0.3420505,1.729087,0.07036943,0.322758,1.82361,-0.1516655,-0.473862,1.734116,0.2903444,-0.3439973,1.749,0.06067692,-0.1451199,1.854963,0.05599354,-0.461364,1.856547,-0.1062805,0.0604739,1.839272,-0.02882706,-0.4490201,1.823056,-0.1655762,-0.2133056,1.88515,0.3741578,-0.1221531,1.930502,NA,NA,NotTracked,Unknown,
0.9667969,-0.1791992,-0.1469727,0.8349609,0.7104492,-0.2148438,-1,-1,-1,2,-1,0,0,-1,0,-5,-5,-6,-1,0,4,11,0.375,0.375,0.375,-10.75,-10.75,-10.75,1.407709,2.890489,9.73115,8.164321,3.722876,9.828196,-0.1661148,-0.4601367,1.793631,0.3249614,-0.3743916,1.75047,0.06929614,0.3229132,1.823833,-0.1434894,-0.4572602,1.737439,0.2736313,-0.3781766,1.76284,0.06054354,-0.1450961,1.854716,0.0559222,-0.4613591,1.856457,-0.1066223,0.06032475,1.839391,-0.02896254,-0.449137,1.822908,-0.1654112,-0.2140187,1.885348,0.3688361,-0.1313609,1.931432,NA,NA,NotTracked,Unknown,
