ALX,ALY,ALZ,ARX,ARY,ARZ,EMG0L,EMG1L,EMG2L,EMG3L,EMG4L,EMG5L,EMG6L,EMG7L,EMG0R,EMG1R,EMG2R,EMG3R,EMG4R,EMG5R,EMG6R,EMG7R,GLX,GLY,GLZ,GRX,GRY,GRZ,ORL,OPL,OYL,ORR,OPR,OYR,LHNX,LHNY,LHNZ,RHNX,RHNY,RHNZ,HX,HY,HZ,LTX,LTY,LTZ,RTX,RTY,RTZ,SpineMidX,SpineMidY,SpineMidZ,SpineBaseX,SpineBaseY,SpineBaseZ,ShoulderLeftX,ShoulderLeftY,ShoulderLeftZ,ShoulderRightX,ShoulderRightY,ShoulderRightZ,ElbowLeftX,ElbowLeftY,ElbowLeftZ,ElbowRightX,ElbowRightY,ElbowRightZ,Myo_Pose_left,Myo_Pose_Right,Kinect_pose_left,Kinect_pose_right
0.9604492,-0.2958984,-0.1733398,0.859375,0.4404297,0.0009765625,-3,0,-1,-1,-1,0,0,-3,-2,-3,-3,-3,0,-4,-3,-1,3.1875,3.1875,3.1875,-1.4375,-1.4375,-1.4375,1.66367,3.075983,8.849994,7.503649,3.287812,0.7042494,-0.1681928,-0.4877785,1.70896,0.2111123,-0.4638256,1.694,0.05734003,0.3246408,1.811291,-0.2049501,-0.5036865,1.711955,0.1747319,-0.4556906,1.658758,0.02975255,-0.1198468,1.831644,0.02667754,-0.4180915,1.835274,-0.1295066,0.06618197,1.828126,-0.05164744,-0.4091069,1.800359,-0.1852474,-0.2056713,1.843397,0.2427676,-0.2160593,1.849294,NA,NA,NotTracked,Unknown,
0.9345703,-0.3066406,-0.1679688,0.8554688,0.4648438,-0.00390625,-1,0,-3,-1,-2,0,-1,-2,-2,-1,-2,-1,-4,-5,-2,-1,0.4375,0.4375,0.4375,-6.5625,-6.5625,-6.5625,1.674221,3.077753,8.840913,7.498806,3.28748,0.6999671,-0.1681464,-0.493012,1.70769,0.2111792,-0.4643657,1.694495,0.05613622,0.3235777,1.808861,-0.203253,-0.5146282,1.707857,0.1730157,-0.4515698,1.662713,0.02941677,-0.1204945,1.832154,0.02632897,-0.4180605,1.835453,-0.1309537,0.06679508,1.828402,-0.05201001,-0.4090783,1.800663,-0.1854797,-0.2058595,1.844105,0.2427169,-0.2161019,1.849525,NA,NA,NotTracked,Unknown,
0.9213867,-0.3198242,-0.1791992,0.8496094,0.4902344,-0.004882813,0,0,-1,-4,-3,-3,-1,-1,0,0,-1,2,-1,-1,0,-2,-1,-1,-1,-4.375,-4.375,-4.375,1.674609,3.07828,8.840592,7.490545,3.28758,0.6945649,-0.1679406,-0.4932429,1.708265,0.2107081,-0.4640566,1.695786,0.05489963,0.3225618,1.806517,-0.2039135,-0.5163211,1.713429,0.1735332,-0.455857,1.660003,0.02927533,-0.1210094,1.832494,0.02627911,-0.4180365,1.835516,-0.1319855,0.06721422,1.82859,-0.05208637,-0.4090461,1.800806,-0.1856896,-0.2054876,1.84481,0.2425995,-0.2162026,1.849836,NA,NA,NotTracked,Unknown,
0.9331055,-0.3056641,-0.1723633,0.8486328,0.4643555,0.00390625,0,-2,-2,-1,-2,-1,-1,-1,-1,-1,1,2,-2,0,0,-1,1.5625,1.5625,1.5625,-0.1875,-0.1875,-0.1875,1.675299,3.078433,8.840838,7.489835,3.289304,0.6919822,-0.1682267,-0.4882078,1.710237,0.2105131,-0.4658699,1.69437,0.05381145,0.3218501,1.804406,-0.2071206,-0.499247,1.719083,0.1736472,-0.4545045,1.661254,0.02912173,-0.1213824,1.832669,0.02624701,-0.4180293,1.835516,-0.1326338,0.06724177,1.828644,-0.05212942,-0.4090322,1.800863,-0.1856848,-0.205306,1.84525,0.2425004,-0.2163646,1.850292,NA,NA,NotTracked,Unknown,
0.9355469,-0.3012695,-0.1743164,0.8662109,0.4663086,0.006347656,-2,-4,-2,0,1,-2,-3,-1,0,-1,-1,-3,0,1,-1,-2,-0.75,-0.75,-0.75,3.875,3.875,3.875,1.67393,3.077276,8.841979,7.495839,3.286746,0.6910288,-0.1682336,-0.4854562,1.711999,0.2109581,-0.465043,1.694336,0.0527938,0.3210939,1.802287,-0.2078707,-0.4802032,1.729077,0.1745666,-0.4589838,1.657776,0.029088,-0.1216651,1.832692,0.02631785,-0.4179817,1.83542,-0.1331653,0.06762815,1.828603,-0.0520404,-0.408992,1.800823,-0.1856551,-0.2052861,1.84559,0.2424616,-0.2165456,1.850438,NA,NA,NotTracked,Unknown,
0.9311523,-0.293457,-0.1733398,0.8544922,0.4511719,0.01025391,0,-2,-1,-1,-3,-2,-1,-2,-2,-5,-2,0,0,0,-3,0,-0.0625,-0.0625,-0.0625,4.4375,4.4375,4.4375,1.674216,3.077499,8.841823,7.497107,3.282922,0.6971793,-0.1687384,-0.4839723,1.711851,0.2113255,-0.4637946,1.693982,0.05184467,0.3203611,1.800379,-0.2080576,-0.4810234,1.730815,0.174338,-0.457195,1.657975,0.02900308,-0.1219508,1.832711,0.02629474,-0.4179449,1.835372,-0.1332744,0.06738637,1.828621,-0.05209742,-0.4089716,1.800859,-0.1856366,-0.2053211,1.845672,0.2424615,-0.2165771,1.85055,NA,NA,NotTracked,Unknown,
0.9404297,-0.2768555,-0.1748047,0.8779297,0.4453125,-0.003417969,2,-2,-2,-3,-1,-1,0,1,1,-4,-4,-5,-2,-2,-11,2,1.625,1.625,1.625,4.6875,4.6875,4.6875,1.670937,3.075602,8.847629,7.498219,3.281275,0.7023056,-0.1680223,-0.4936502,1.707851,0.2313433,-0.4474821,1.708967,0.05141385,0.3202218,1.799036,-0.2045639,-0.5044777,1.711625,0.219188,-0.4540541,1.668357,0.02900633,-0.1222447,1.832732,0.02624033,-0.4179466,1.835433,-0.133557,0.06745588,1.828357,-0.05213438,-0.4089493,1.801037,-0.1856639,-0.205263,1.845905,0.2424679,-0.2166093,1.850558,NA,NA,NotTracked,Unknown,
0.9536133,-0.253418,-0.1767578,0.8818359,0.4394531,0.001953125,-94,-10,5,-4,-1,-5,-5,-20,8,0,0,2,0,-1,6,14,-1.1875,-1.1875,-1.1875,6.5625,6.5625,6.5625,1.67392,3.076602,8.842802,7.499648,3.288594,0.7191747,-0.1700293,-0.4855803,1.711839,0.2115857,-0.4602131,1.695755,0.05122708,0.3198192,1.798086,-0.2102891,-0.5089448,1.722,0.1738432,-0.4499765,1.663908,0.02890133,-0.1225479,1.832681,0.02607757,-0.4179559,1.835283,-0.1338425,0.06761448,1.828194,-0.05226064,-0.408931,1.801002,-0.1856604,-0.2052857,1.845927,0.2424807,-0.2166417,1.850515,NA,NA,NotTracked,Unknown,
0.9301758,-0.2250977,-0.2036133,0.8383789,0.5083008,-0.05810547,-6,-4,-6,-16,-4,-1,-1,-7,-17,-2,0,25,-9,-63,-14,-17,-4.125,-4.125,-4.125,53.375,53.375,53.375,1.772833,3.136443,8.749502,7.488091,3.330769,0.8173953,-0.1750931,-0.4908303,1.701847,0.2371214,-0.4442153,1.707122,0.05105932,0.3194053,1.797046,-0.2170562,-0.5018455,1.702615,0.2076139,-0.4197824,1.685622,0.02892367,-0.1227728,1.832541,0.02615039,-0.417916,1.835146,-0.1339479,0.06769203,1.827956,-0.05220449,-0.40895,1.800896,-0.1852002,-0.2048043,1.846874,0.2428429,-0.2168047,1.850248,NA,NA,NotTracked,Unknown,
0.8955078,-0.4052734,-0.2729492,0.859375,0.6870117,-0.04199219,3,-11,22,-40,-24,-13,-11,-13,4,0,7,9,18,126,39,21,-33.5,-33.5,-33.5,47.875,47.875,47.875,1.766125,3.231441,8.708805,7.491076,3.409789,0.9179159,-0.1841704,-0.4585795,1.690317,0.2443735,-0.4388337,1.691737,0.05091701,0.3191475,1.796593,-0.2284876,-0.4700034,1.684806,0.2119491,-0.4098978,1.673647,0.02910214,-0.1229422,1.832408,0.02673636,-0.4177121,1.834778,-0.1339768,0.06776477,1.827926,-0.05166057,-0.4089704,1.800513,-0.1846812,-0.2032577,1.849139,0.2447875,-0.2163937,1.849622,NA,NA,Unknown,Unknown,
0.7905273,-0.3867188,-0.3398438,0.8701172,0.7099609,-0.05859375,0,-46,23,58,23,10,1,18,-2,10,2,-15,82,6,88,-5,-48,-48,-48,43.625,43.625,43.625,1.76073,3.374424,8.624888,7.541377,3.549942,0.9701149,-0.1855735,-0.4281547,1.670003,0.2322747,-0.4052787,1.690948,0.05069987,0.3186978,1.79598,-0.2183748,-0.4190304,1.649,0.2696511,-0.4317158,1.648714,0.02933579,-0.1230768,1.832186,0.0274217,-0.4173196,1.833946,-0.1337308,0.06779764,1.828596,-0.05110676,-0.4088919,1.799849,-0.1839765,-0.1976362,1.851654,0.2507359,-0.2059828,1.850497,NA,NA,Unknown,Unknown,
0.8120117,-0.5351563,-0.2583008,0.6967773,0.7597656,0.04394531,25,12,-9,-33,-60,-4,-9,-5,-19,-12,-16,-6,-19,-43,-33,-19,-23.3125,-23.3125,-23.3125,60.5625,60.5625,60.5625,1.748774,3.639733,8.492439,7.570001,3.854395,1.038518,-0.1770962,-0.3783526,1.652501,0.2235959,-0.4054098,1.67093,0.05047622,0.3184066,1.795891,-0.1619325,-0.4064264,1.665539,0.1901348,-0.3752821,1.705,0.02976356,-0.1232756,1.831893,0.02844843,-0.4171484,1.832672,-0.1338036,0.06796212,1.828718,-0.05004929,-0.4090115,1.798569,-0.1879981,-0.1705583,1.858751,0.2575553,-0.1930294,1.850456,NA,NA,Closed,Unknown,
0.6635742,-0.9116211,-0.3725586,0.53125,0.8969727,-0.06835938,-1,10,-1,6,3,12,3,-4,5,-3,-4,-56,-87,1,19,1,-78.875,-78.875,-78.875,38.3125,38.3125,38.3125,1.686005,3.885547,8.412032,7.629562,4.116962,1.073729,-0.1671216,-0.3311391,1.617779,0.2144484,-0.3313769,1.612509,0.05037083,0.3182706,1.79616,-0.1303747,-0.3575956,1.641429,0.1721105,-0.3504511,1.625584,0.03074308,-0.1237345,1.832,0.03030984,-0.4177409,1.832044,-0.1335277,0.06864379,1.829394,-0.04760463,-0.4096273,1.798122,-0.1896039,-0.1583165,1.858746,0.2648207,-0.2001366,1.812888,NA,NA,Unknown,Unknown,
0.4892578,-0.8056641,-0.4780273,0.3530273,0.9545898,-0.07617188,-3,4,18,-83,-65,-7,-12,-9,11,-5,-3,-19,-20,21,38,16,-40.5,-40.5,-40.5,34.3125,34.3125,34.3125,1.656494,4.179436,8.342552,7.676034,4.404353,1.100387,-0.1584083,-0.2677691,1.585678,0.2087837,-0.2712607,1.583809,0.0499379,0.3182776,1.797005,-0.128827,-0.2447267,1.578866,0.1636963,-0.2914826,1.593,0.03114096,-0.1240894,1.832203,0.030777,-0.4182335,1.831638,-0.1333667,0.0691298,1.829972,-0.04708581,-0.4099405,1.797756,-0.1956025,-0.1508241,1.853631,0.2871457,-0.1634425,1.853293,NA,NA,Closed,Closed,
0.2919922,-0.8251953,-0.5385742,0.1308594,0.9355469,-0.08789063,-9,18,5,0,4,2,15,4,-16,-2,-2,-3,-1,-16,-17,-5,-35.625,-35.625,-35.625,27.4375,27.4375,27.4375,1.593556,4.581364,8.27279,7.730703,4.791401,1.121146,-0.1490511,-0.198104,1.56464,0.2042164,-0.2068536,1.562521,0.04945984,0.3180508,1.798088,-0.176275,-0.187106,1.543161,0.1603298,-0.2181547,1.577625,0.03119831,-0.1248222,1.832787,0.03066849,-0.419783,1.831641,-0.1325163,0.06876286,1.830964,-0.04707266,-0.410915,1.797509,-0.2054224,-0.1491843,1.846787,0.2946617,-0.1603835,1.851539,NA,NA,Closed,Closed,
0.2006836,-0.8325195,-0.5273438,0.03564453,0.9228516,-0.08886719,-6,27,0,14,25,2,-6,-3,8,-8,-3,5,38,-1,-20,6,-40.5,-40.5,-40.5,25.9375,25.9375,25.9375,1.555304,4.766482,8.245328,7.759216,4.966044,1.128579,-0.1397589,-0.1344015,1.551025,0.1940173,-0.1479371,1.549629,0.04864813,0.3178207,1.799809,-0.1518122,-0.1616785,1.525222,0.1778272,-0.1163597,1.53625,0.03107775,-0.1256797,1.833816,0.02960932,-0.4212258,1.832211,-0.132228,0.06951482,1.832541,-0.04741611,-0.4119852,1.797846,-0.2584887,-0.1246679,1.804389,0.3096797,-0.1530725,1.824023,NA,NA,Closed,Closed,
0.05664063,-0.7670898,-0.5141602,-0.125,0.8603516,-0.08984375,-11,-87,-36,-27,-5,5,10,5,-12,-9,-1,-10,-30,-26,-50,-9,-36.25,-36.25,-36.25,20.1875,20.1875,20.1875,1.472504,5.068134,8.205662,7.810121,5.240528,1.127574,-0.1338911,-0.08176648,1.548306,0.1965965,-0.09413744,1.553624,0.04793468,0.3176278,1.801479,-0.103028,-0.1024425,1.5487,0.1567569,-0.1111997,1.56,0.03100388,-0.1261154,1.834631,0.02921433,-0.4215518,1.832423,-0.1320874,0.07068854,1.834394,-0.04773602,-0.4122181,1.798033,-0.2590765,-0.1463624,1.784429,0.305055,-0.1522003,1.778324,NA,NA,Closed,Unknown,
0.01806641,-0.7426758,-0.4887695,-0.2036133,0.9399414,-0.3027344,-10,34,14,-13,10,6,8,9,-1,-12,-8,-17,-4,-33,-19,-1,-21.75,-21.75,-21.75,11.25,11.25,11.25,1.433027,5.199905,8.187406,7.817894,5.340775,1.122601,-0.1315077,-0.04865858,1.551822,0.1954359,-0.0628971,1.558674,0.04724611,0.3178384,1.803323,-0.09935934,-0.0678003,1.551727,0.1583304,-0.08048846,1.5654,0.0322042,-0.1268813,1.836393,0.03161529,-0.4230837,1.834009,-0.1312688,0.07067471,1.83497,-0.04465504,-0.4145086,1.799768,-0.2588952,-0.1435808,1.783252,0.3481129,-0.1711905,1.791443,NA,NA,Closed,Closed,
-0.04931641,-0.7436523,-0.4936523,0.4379883,0.9321289,0.06787109,-6,-10,-2,-3,1,-4,-2,-6,-3,4,0,-13,-15,-9,33,5,-3.125,-3.125,-3.125,-3.625,-3.625,-3.625,1.423162,5.273629,8.179345,7.821781,5.41944,1.116688,-0.1145072,-0.03019152,1.549613,0.1950315,-0.05098622,1.561666,0.04687464,0.3181107,1.804744,-0.09600715,-0.01289607,1.546031,0.1571577,-0.06119725,1.564077,0.03267889,-0.1273757,1.83709,0.03220786,-0.4238172,1.834229,-0.1303815,0.07085064,1.835337,-0.04383725,-0.4153614,1.800213,-0.2393432,-0.1304942,1.781194,0.3088038,-0.1460949,1.767546,NA,NA,Unknown,Closed,
-0.08154297,-0.7211914,-0.5024414,-0.7597656,0.7329102,-0.2949219,46,-7,0,1,16,6,9,7,-8,-1,3,-9,6,-5,0,-1,14.8125,14.8125,14.8125,-17.875,-17.875,-17.875,1.451076,5.251279,8.183905,7.799895,5.395299,1.106799,-0.1145416,-0.03487759,1.549736,0.1976115,-0.06202891,1.562439,0.0463642,0.3185059,1.806352,-0.1018606,-0.0117878,1.544726,0.1558064,-0.08007813,1.5744,0.03317145,-0.1276096,1.838115,0.03274335,-0.4242229,1.834988,-0.1298927,0.0710564,1.835661,-0.04323988,-0.4159519,1.801062,-0.2366052,-0.1311069,1.779462,0.3083226,-0.1461936,1.768153,NA,NA,Unknown,Closed,
-0.05029297,-0.7299805,-0.5322266,-0.4853516,0.9033203,-0.5073242,0,17,-15,7,5,2,0,3,-16,-4,-5,-7,-38,-6,10,0,24.5,24.5,24.5,-21.375,-21.375,-21.375,1.478603,5.191702,8.19129,7.753824,5.259186,1.087454,-0.1192669,-0.06634879,1.54304,0.1935713,-0.08400223,1.557516,0.04576068,0.3188365,1.807707,-0.1435347,-0.05134837,1.522143,0.1614903,-0.1113114,1.559,0.03312428,-0.1276149,1.838604,0.03192474,-0.4239683,1.835175,-0.1299452,0.07275414,1.836637,-0.04439624,-0.415496,1.801163,-0.2327609,-0.1313903,1.780104,0.3063853,-0.1482299,1.768375,NA,NA,Unknown,Closed,
-0.01074219,-0.8349609,-0.5600586,-0.6674805,0.8051758,-0.5126953,-6,3,12,11,1,2,3,2,8,3,2,10,3,-1,8,1,47.875,47.875,47.875,-30.5,-30.5,-30.5,1.551401,4.994812,8.207667,7.711735,5.03662,1.065335,-0.1329808,-0.1194896,1.541559,0.1947935,-0.1287545,1.55051,0.04530323,0.3188734,1.808548,-0.1561321,-0.09644845,1.525767,0.1610304,-0.1543616,1.556933,0.03323231,-0.1277652,1.839045,0.03210967,-0.4243944,1.835591,-0.1302652,0.07266061,1.836997,-0.04420766,-0.4158837,1.801524,-0.2337842,-0.1331233,1.79223,0.3019044,-0.1534563,1.781339,NA,NA,Closed,Closed,
0.1015625,-0.765625,-0.5395508,0.7387695,1.159668,0.3149414,-7,-22,0,5,0,-3,-6,-8,3,0,3,-1,7,11,16,9,30.5,30.5,30.5,-25.0625,-25.0625,-25.0625,1.589553,4.862871,8.220738,7.673027,4.787157,1.045947,-0.139178,-0.179461,1.545195,0.2001897,-0.185803,1.552353,0.04480568,0.3189057,1.809441,-0.1463678,-0.151943,1.519638,0.168823,-0.2197323,1.5525,0.03326774,-0.1278878,1.839074,0.03225803,-0.4249644,1.83536,-0.1298463,0.0702296,1.8364,-0.04412431,-0.4163755,1.801174,-0.2281689,-0.1397932,1.810027,0.2999515,-0.1520729,1.844817,NA,NA,Closed,Closed,
0.2050781,-0.7495117,-0.5332031,0.4824219,0.8774414,0.3974609,13,4,5,-1,13,5,1,6,-12,-1,-7,-6,0,-34,-32,0,26.8125,26.8125,26.8125,-13.4375,-13.4375,-13.4375,1.654006,4.502805,8.259491,7.624991,4.432963,1.021241,-0.151677,-0.2453588,1.564229,0.2037357,-0.2472728,1.565771,0.04429838,0.3192583,1.810193,-0.1240094,-0.2245084,1.526167,0.1682044,-0.2854445,1.5696,0.03308383,-0.1277098,1.838758,0.03172623,-0.424768,1.834215,-0.1306048,0.06990454,1.836019,-0.04479216,-0.4158991,1.799947,-0.2207095,-0.1440338,1.818585,0.292416,-0.1567395,1.848299,NA,NA,Closed,Closed,
0.3095703,-0.8496094,-0.5083008,1.093262,0.9321289,0.01708984,-9,17,-3,-63,-19,0,1,-4,3,7,-3,2,-5,2,-4,1,31.4375,31.4375,31.4375,-20.75,-20.75,-20.75,1.666145,4.282603,8.297697,7.596936,4.140599,0.9946674,-0.1598698,-0.3377144,1.569931,0.202871,-0.3160361,1.581417,0.04387397,0.3197149,1.81067,-0.1339003,-0.314005,1.542,0.1777052,-0.3634533,1.612571,0.03372948,-0.1271616,1.838072,0.03334738,-0.4236097,1.832891,-0.1320811,0.06894111,1.834876,-0.0434128,-0.4150845,1.79885,-0.2140303,-0.196873,1.785347,0.2618096,-0.1990921,1.788162,NA,NA,Closed,Unknown,
0.628418,-0.815918,-0.4316406,0.6748047,0.8706055,-0.06298828,28,9,1,17,5,-3,3,14,-16,-16,-9,6,8,-17,-14,-2,34.9375,34.9375,34.9375,-10.75,-10.75,-10.75,1.669358,3.798839,8.414909,7.585815,3.882457,0.9685766,-0.1819345,-0.3944804,1.624328,0.2108057,-0.3718331,1.613661,0.04357275,0.3203877,1.811272,-0.196609,-0.3998984,1.584208,0.1750795,-0.4080117,1.646539,0.03346766,-0.125972,1.836791,0.03268248,-0.4215555,1.831139,-0.1335102,0.06688191,1.832424,-0.04457989,-0.4131547,1.797083,-0.1970266,-0.1633791,1.818394,0.2668977,-0.1717412,1.844541,NA,NA,Closed,Closed,
1.020508,-0.3588867,-0.2895508,0.8657227,0.6591797,-0.05957031,-14,-13,-25,-30,-9,-1,-2,-28,18,5,3,12,3,10,-8,27,63.625,63.625,63.625,-26.4375,-26.4375,-26.4375,1.664172,3.347317,8.61427,7.579648,3.600824,0.9018422,-0.1941218,-0.4500867,1.663242,0.2189823,-0.4175946,1.630613,0.04337765,0.3209832,1.811603,-0.2326,-0.4543265,1.658538,0.1806426,-0.4142096,1.634318,0.03278064,-0.1251851,1.836074,0.03124341,-0.4205106,1.831148,-0.1348374,0.06428002,1.828927,-0.04655759,-0.4121352,1.797021,-0.1948159,-0.1814373,1.810302,0.2644988,-0.1820481,1.840807,NA,NA,Unknown,Unknown,
1.029785,-0.1489258,-0.2338867,0.8793945,0.5683594,0.01220703,23,5,4,1,2,-3,0,29,14,12,6,-3,-6,11,22,57,29.375,29.375,29.375,-47.625,-47.625,-47.625,1.502032,3.083204,8.880504,7.587792,3.469629,0.8105021,-0.1968091,-0.4778971,1.69118,0.2285751,-0.4383514,1.661551,0.04315558,0.3216803,1.811598,-0.2326924,-0.4843617,1.674286,0.1847888,-0.4414039,1.646682,0.03203344,-0.1246754,1.835281,0.02944872,-0.4201148,1.831662,-0.134265,0.06299974,1.826885,-0.04842764,-0.4117339,1.797529,-0.1950007,-0.1957357,1.809885,0.2620679,-0.188793,1.839689,NA,NA,Unknown,Unknown,
0.9926758,-0.2851563,-0.2231445,0.824707,0.5439453,-0.0004882813,-8,0,-4,-6,-2,3,0,-6,12,1,-2,-2,1,1,3,51,35.625,35.625,35.625,-46.625,-46.625,-46.625,1.466266,3.038715,8.985272,7.574647,3.393596,0.7368944,-0.1918277,-0.4841792,1.70751,0.2297135,-0.4688862,1.675447,0.04276459,0.3224034,1.811119,-0.2351353,-0.4806081,1.70945,0.187086,-0.4527152,1.658604,0.03153735,-0.1240864,1.834033,0.02884382,-0.4198339,1.83193,-0.1343991,0.06276067,1.822506,-0.04897381,-0.4115145,1.7978,-0.1948536,-0.2010677,1.81649,0.2605585,-0.1994085,1.839119,NA,NA,NotTracked,Unknown,
0.8994141,-0.3759766,-0.2304688,0.8305664,0.4775391,0.04052734,-8,-5,-2,0,-2,-1,-5,-7,4,0,0,12,1,2,0,9,13.0625,13.0625,13.0625,-27.4375,-27.4375,-27.4375,1.526464,3.046153,8.968154,7.539267,3.340675,0.7031262,-0.1879939,-0.48437,1.714918,0.2288928,-0.4805321,1.687046,0.04220631,0.3233955,1.81024,-0.2289303,-0.4711864,1.7287,0.1876849,-0.4603408,1.662056,0.03114867,-0.1235865,1.832829,0.02830647,-0.4196077,1.832273,-0.1347146,0.06278606,1.820849,-0.0495392,-0.4113142,1.798294,-0.1949955,-0.2014091,1.828122,0.2584282,-0.2073359,1.841078,NA,NA,NotTracked,Unknown,
0.8779297,-0.378418,-0.2026367,0.8198242,0.5581055,0.04492188,-20,-8,13,-3,-5,-5,-7,-7,-3,-2,-1,-7,4,-2,1,2,-4.5625,-4.5625,-4.5625,-7.6875,-7.6875,-7.6875,1.582682,3.039828,8.915176,7.506092,3.294129,0.7117944,-0.185023,-0.48649,1.72145,0.2420397,-0.4610029,1.709132,0.04136269,0.3243387,1.808922,-0.2217142,-0.4864542,1.737455,0.2745008,-0.4964236,1.724,0.03078279,-0.1232822,1.831455,0.02799134,-0.4195704,1.832351,-0.1350816,0.06303173,1.819971,-0.0498963,-0.4112821,1.798497,-0.194299,-0.2022293,1.836999,0.2557646,-0.2107794,1.844219,NA,NA,NotTracked,Unknown,
0.8369141,-0.4326172,-0.2045898,0.8500977,0.4887695,0.00390625,1,0,0,-1,0,0,0,2,2,2,0,-3,-7,-2,-2,8,-5.25,-5.25,-5.25,-41.875,-41.875,-41.875,1.609626,3.034134,8.8646,7.471108,3.293854,0.6944938,-0.18096,-0.4865036,1.724656,0.24008,-0.4612987,1.712207,0.04055674,0.3246447,1.808061,-0.2141081,-0.4997776,1.7305,0.2623707,-0.4389312,1.7322,0.03025033,-0.1233811,1.830789,0.02637772,-0.4199904,1.833152,-0.1341642,0.06278729,1.821372,-0.05149799,-0.411559,1.799895,-0.1936077,-0.205208,1.841737,0.253403,-0.213955,1.845889,NA,NA,NotTracked,Unknown,
0.9150391,-0.246582,-0.2592773,0.8710938,0.4287109,-0.01806641,0,-1,-1,-4,-2,-2,-1,-1,-2,-3,-1,2,0,2,5,9,32.8125,32.8125,32.8125,-14.4375,-14.4375,-14.4375,1.616352,3.031536,8.931302,7.44079,3.286986,0.667355,-0.1807813,-0.4876349,1.724702,0.2392915,-0.4610236,1.711936,0.03921498,0.3249543,1.806498,-0.211496,-0.4978085,1.727353,0.2629181,-0.4444408,1.739,0.03011561,-0.1232703,1.830139,0.02616985,-0.4198828,1.833372,-0.134946,0.06358352,1.819967,-0.05176176,-0.4113678,1.800273,-0.1919038,-0.2067014,1.843688,0.2503359,-0.2169736,1.847434,NA,NA,NotTracked,Unknown,
0.9750977,-0.2216797,-0.2192383,0.8896484,0.4067383,-0.01171875,-3,-2,-1,-3,-3,-3,-4,-1,-2,-3,-2,-4,-6,-7,-3,2,-6.875,-6.875,-6.875,-1.0625,-1.0625,-1.0625,1.55236,3.020428,9.005649,7.443673,3.281671,0.6569277,-0.1814291,-0.4889592,1.724069,0.2389995,-0.4665484,1.708311,0.03820766,0.3253611,1.805376,-0.2137308,-0.4839863,1.736221,0.2134822,-0.5067122,1.703333,0.03020313,-0.1232747,1.829669,0.02618675,-0.4198971,1.833411,-0.1345195,0.06352051,1.820282,-0.05175823,-0.4113761,1.800335,-0.1910777,-0.2076047,1.843792,0.2483784,-0.2192359,1.847231,NA,NA,NotTracked,Unknown,
0.9619141,-0.2280273,-0.1767578,0.8925781,0.4121094,0.01269531,-1,0,0,-3,1,-3,-3,0,-3,0,-3,-4,-3,-2,0,-1,-19,-19,-19,6.25,6.25,6.25,1.503176,3.00968,9.02581,7.450627,3.2806,0.6571432,-0.1815529,-0.488431,1.722751,0.2392304,-0.4647854,1.708774,0.03731814,0.3254734,1.804538,-0.2083274,-0.501903,1.7336,0.2136475,-0.5109815,1.7084,0.03014393,-0.1233015,1.829439,0.02573465,-0.4199466,1.833667,-0.1343039,0.06376241,1.820598,-0.052169,-0.4113552,1.80062,-0.1906323,-0.2085745,1.843046,0.2474571,-0.2203092,1.847331,NA,NA,NotTracked,Unknown,
0.9545898,-0.2119141,-0.1547852,0.8623047,0.4443359,0.06005859,-1,-2,-1,-1,-3,1,-2,-1,1,-3,-2,-4,4,-3,0,-2,-8.4375,-8.4375,-8.4375,0.625,0.625,0.625,1.477154,3.005086,9.03163,7.441737,3.283264,0.6753422,-0.1817666,-0.489871,1.72306,0.2397764,-0.4618822,1.710691,0.03676919,0.3254339,1.804028,-0.1690426,-0.5312943,1.748667,0.2605609,-0.4451137,1.7235,0.03017327,-0.1233854,1.829343,0.02543571,-0.4200089,1.833887,-0.1339274,0.06389902,1.820945,-0.05239253,-0.411339,1.800835,-0.1900076,-0.209482,1.841694,0.2469545,-0.2208118,1.847556,NA,NA,NotTracked,Unknown,
0.9545898,-0.2011719,-0.159668,0.8647461,0.4511719,0.04492188,-1,-2,-2,0,-3,-1,0,-3,0,4,2,-1,0,0,2,1,-0.625,-0.625,-0.625,-4.25,-4.25,-4.25,1.453887,2.998303,9.048829,7.425763,3.285763,0.6866838,-0.180755,-0.4910601,1.719932,0.2392461,-0.4611106,1.709919,0.03627853,0.3248591,1.803286,-0.2146235,-0.4986784,1.7245,0.2137751,-0.5074045,1.705667,0.03008607,-0.1235285,1.828925,0.02452643,-0.4199667,1.833203,-0.1337315,0.06395201,1.821155,-0.05312171,-0.4111685,1.800209,-0.1894777,-0.2096644,1.840276,0.2468206,-0.2211685,1.847768,NA,NA,NotTracked,Unknown,
0.9570313,-0.2163086,-0.1865234,0.8666992,0.4599609,0.02978516,-3,1,-2,-1,-3,-2,0,-1,0,-2,-1,0,-3,-3,-2,-2,0.5,0.5,0.5,-3.0625,-3.0625,-3.0625,1.446751,2.994956,9.05616,7.413867,3.288811,0.6910741,-0.1804799,-0.4932862,1.722321,0.238939,-0.461941,1.710647,0.0361304,0.3245448,1.802892,-0.1796314,-0.5155795,1.749,0.2624495,-0.4318671,1.735667,0.03101972,-0.123958,1.828888,0.02597374,-0.4203951,1.833609,-0.1327105,0.06362516,1.822277,-0.05141199,-0.4118046,1.800565,-0.18905,-0.2097244,1.839601,0.24675,-0.2215254,1.848438,NA,NA,NotTracked,Unknown,
0.9482422,-0.2275391,-0.2060547,0.8520508,0.4511719,0.02734375,-1,0,1,-4,2,-2,2,-1,0,1,-1,-2,-2,-2,0,0,2.8125,2.8125,2.8125,-5.0625,-5.0625,-5.0625,1.437841,2.994953,9.070088,7.405254,3.293476,0.6931821,-0.1799268,-0.491231,1.722537,0.2388876,-0.4625567,1.710439,0.03618149,0.3243454,1.802757,-0.1723753,-0.5167925,1.758167,0.2134402,-0.50761,1.704813,0.03122256,-0.1240258,1.829056,0.02567718,-0.4203091,1.834285,-0.1319308,0.06345896,1.823128,-0.05195262,-0.411521,1.801377,-0.187939,-0.2113765,1.839022,0.2466974,-0.221964,1.849339,NA,NA,NotTracked,Unknown,
0.9487305,-0.2319336,-0.2060547,0.8510742,0.4638672,0.04003906,-2,-1,-1,0,-3,-1,-2,0,-3,-2,0,7,-2,-5,-1,-2,2.5625,2.5625,2.5625,-1,-1,-1,1.434173,2.996804,9.077187,7.39508,3.297908,0.7001862,-0.1803062,-0.4912271,1.722703,0.2392534,-0.4613502,1.710571,0.03643128,0.324188,1.80258,-0.172352,-0.5223032,1.750925,0.2134514,-0.5076578,1.704941,0.03170092,-0.1242288,1.82915,0.02559626,-0.4204517,1.8346,-0.1313769,0.06339125,1.823808,-0.05199131,-0.4116102,1.801693,-0.1873418,-0.2119752,1.838979,0.2467594,-0.2229287,1.850244,NA,NA,NotTracked,Unknown,
0.9399414,-0.2402344,-0.2075195,0.8564453,0.4575195,0.05175781,-3,-3,-1,-1,-1,2,-1,2,0,0,-3,-3,-4,-2,-1,-2,-2.625,-2.625,-2.625,-0.6875,-0.6875,-0.6875,1.423818,3.000944,9.084603,7.389386,3.299906,0.7048774,-0.179467,-0.4908065,1.722245,0.2389618,-0.4617502,1.710669,0.03666957,0.3241077,1.80244,-0.1716846,-0.521443,1.752929,0.2134517,-0.5076573,1.704941,0.03256724,-0.1245005,1.829173,0.02658486,-0.4208035,1.834741,-0.13102,0.06326445,1.824032,-0.05057388,-0.4122167,1.801798,-0.1869927,-0.2125309,1.838881,0.2467312,-0.2226428,1.850692,NA,NA,NotTracked,Unknown,
0.9487305,-0.2285156,-0.2026367,0.8608398,0.4609375,0.04541016,-2,-2,1,1,3,2,2,-2,-3,-1,-1,2,-5,-2,-1,-2,-2.625,-2.625,-2.625,1,1,1,1.417978,3.003206,9.087383,7.386942,3.301503,0.7083706,-0.1798693,-0.4915259,1.722125,0.2396184,-0.4619961,1.71156,0.03710437,0.3239313,1.802219,-0.1719569,-0.5219116,1.747885,0.2133723,-0.5076777,1.704692,0.03281774,-0.1245469,1.829165,0.0266179,-0.4207932,1.834723,-0.1307818,0.06321808,1.824245,-0.05057201,-0.4122066,1.801779,-0.1867037,-0.2128188,1.838813,0.2467867,-0.2229402,1.850951,NA,NA,NotTracked,Unknown,
0.9458008,-0.2285156,-0.1972656,0.871582,0.4521484,0.04589844,-2,-2,-2,1,-2,-1,0,1,-1,0,1,-1,-1,-2,-1,-1,-3.5,-3.5,-3.5,-0.1875,-0.1875,-0.1875,1.415387,3.004698,9.088048,7.383339,3.303036,0.71205,-0.1792809,-0.490786,1.721517,0.2397775,-0.4636983,1.712414,0.03760349,0.3237282,1.802115,-0.1715103,-0.5210307,1.746603,0.2335414,-0.4775007,1.6667,0.03346961,-0.1247634,1.829406,0.02748309,-0.4211038,1.834952,-0.1305763,0.06324729,1.824475,-0.04956872,-0.4126382,1.801965,-0.1865602,-0.2126904,1.838703,0.2469901,-0.2219885,1.852084,NA,NA,NotTracked,Unknown,
0.9541016,-0.2226563,-0.1962891,0.8588867,0.4545898,0.05078125,0,0,-1,-2,0,-1,1,1,-1,-3,-2,-6,-28,-6,-2,-1,-3.25,-3.25,-3.25,0.375,0.375,0.375,1.405181,3.005946,9.092086,7.380364,3.304911,0.7155736,-0.1793776,-0.4904562,1.721877,0.2390297,-0.463269,1.71159,0.03792675,0.3236355,1.802159,-0.1829251,-0.5246844,1.7384,0.2442099,-0.4763512,1.675521,0.03403664,-0.1247655,1.829661,0.02818897,-0.4210495,1.835262,-0.1303495,0.06327225,1.824804,-0.04870462,-0.4126351,1.802292,-0.1865095,-0.2126715,1.838717,0.2470533,-0.2217937,1.852931,NA,NA,NotTracked,Unknown,
0.9536133,-0.2236328,-0.1987305,0.8544922,0.4584961,0.05664063,-2,-2,-2,-2,-2,0,-2,-1,0,-2,-3,3,5,1,-3,-1,-2.375,-2.375,-2.375,-0.6875,-0.6875,-0.6875,1.400733,3.006584,9.093714,7.375947,3.30695,0.7191849,-0.1793708,-0.4909953,1.721225,0.2392619,-0.4611771,1.712714,0.03913219,0.3234816,1.802102,-0.2135775,-0.5150946,1.72375,0.2521587,-0.4853531,1.683131,0.03476947,-0.1249916,1.830015,0.02902241,-0.42123,1.835566,-0.129958,0.06328075,1.825137,-0.04795133,-0.4128566,1.802465,-0.1861707,-0.2126214,1.838707,0.2471014,-0.2218076,1.853579,NA,NA,NotTracked,Unknown,
0.9418945,-0.2143555,-0.1962891,0.8588867,0.4648438,0.05566406,-1,-1,-3,-1,-1,-2,0,-3,-2,-1,4,5,1,0,-1,-1,-2.625,-2.625,-2.625,-3.6875,-3.6875,-3.6875,1.39834,3.00643,9.094532,7.370816,3.308684,0.7204579,-0.1796958,-0.489998,1.721488,0.2391316,-0.46027,1.712007,0.03981872,0.3233917,1.802165,-0.167495,-0.5298189,1.749,0.2623701,-0.4246718,1.735,0.03477018,-0.1249949,1.830027,0.02879251,-0.421153,1.8355,-0.1297144,0.06325824,1.825338,-0.04848297,-0.4126352,1.80232,-0.1860727,-0.2126554,1.838681,0.2471238,-0.221827,1.853758,NA,NA,NotTracked,Unknown,
0.9453125,-0.2329102,-0.1982422,0.8569336,0.4702148,0.05273438,-3,-2,-1,2,1,-1,0,-3,0,-3,-2,-1,3,-3,-1,-1,-2.4375,-2.4375,-2.4375,-3.125,-3.125,-3.125,1.395352,3.005783,9.093799,7.364859,3.310648,0.7218674,-0.1789293,-0.4890606,1.719393,0.2391514,-0.4627267,1.712516,0.04057145,0.32315,1.802107,-0.2147213,-0.5088821,1.725,0.2624674,-0.4272777,1.735693,0.03512425,-0.1250232,1.829918,0.02914206,-0.4210436,1.835214,-0.1295499,0.06329549,1.825496,-0.04818748,-0.412513,1.801936,-0.185778,-0.2122652,1.838295,0.2471754,-0.2220438,1.853887,NA,NA,NotTracked,Unknown,
0.9492188,-0.2407227,-0.2026367,0.8618164,0.4750977,0.05761719,-1,-2,-2,-2,-2,-2,-1,0,-2,-2,-3,0,0,1,-2,-2,-2.0625,-2.0625,-2.0625,-3.5,-3.5,-3.5,1.391963,3.004919,9.094371,7.359606,3.312027,0.722923,-0.1790283,-0.4905998,1.720126,0.2385488,-0.4601257,1.712826,0.04142296,0.3229895,1.802306,-0.2149599,-0.5187367,1.728111,0.2146525,-0.5102384,1.709,0.03529806,-0.1250679,1.82994,0.0291525,-0.421026,1.835162,-0.1293836,0.06336206,1.825644,-0.04819529,-0.4124899,1.801889,-0.1856194,-0.2124876,1.838209,0.2472687,-0.2214452,1.854672,NA,NA,NotTracked,Unknown,
0.9482422,-0.2373047,-0.2050781,0.8510742,0.4692383,0.04541016,-2,-2,-1,-1,0,-1,-3,-1,2,-1,0,1,-4,5,-2,-3,-0.4375,-0.4375,-0.4375,-1.875,-1.875,-1.875,1.391296,3.004542,9.094907,7.355557,3.313924,0.7241748,-0.1781225,-0.4896455,1.719431,0.2385321,-0.4608712,1.711178,0.04205544,0.3228706,1.802399,-0.2148425,-0.5150912,1.728365,0.2144665,-0.5088835,1.707928,0.03540213,-0.125065,1.829957,0.02918805,-0.4209699,1.83503,-0.1292286,0.06335519,1.825736,-0.04818215,-0.4124204,1.801725,-0.1853188,-0.2126869,1.838202,0.2472495,-0.2217375,1.855199,NA,NA,NotTracked,Unknown,
