ALX,ALY,ALZ,ARX,ARY,ARZ,EMG0L,EMG1L,EMG2L,EMG3L,EMG4L,EMG5L,EMG6L,EMG7L,EMG0R,EMG1R,EMG2R,EMG3R,EMG4R,EMG5R,EMG6R,EMG7R,GLX,GLY,GLZ,GRX,GRY,GRZ,ORL,OPL,OYL,ORR,OPR,OYR,LHNX,LHNY,LHNZ,RHNX,RHNY,RHNZ,HX,HY,HZ,LTX,LTY,LTZ,RTX,RTY,RTZ,SpineMidX,SpineMidY,SpineMidZ,SpineBaseX,SpineBaseY,SpineBaseZ,ShoulderLeftX,ShoulderLeftY,ShoulderLeftZ,ShoulderRightX,ShoulderRightY,ShoulderRightZ,ElbowLeftX,ElbowLeftY,ElbowLeftZ,ElbowRightX,ElbowRightY,ElbowRightZ,Myo_Pose_left,Myo_Pose_Right,Kinect_pose_left,Kinect_pose_right
0.9750977,-0.1445313,-0.1376953,0.9858398,0.2231445,0.00390625,0,-2,-1,0,-3,1,0,-1,-1,-3,-1,-2,1,0,0,0,-0.8125,-0.8125,-0.8125,8.9375,8.9375,8.9375,1.355029,2.842003,1.668499,7.515061,2.960145,0.7753465,-0.1752673,-0.4860931,1.728208,0.2622186,-0.5064254,1.730457,0.07676378,0.323725,1.797894,-0.1504699,-0.4844864,1.677833,0.2400121,-0.5124279,1.687453,0.04846907,-0.1315402,1.814778,0.03873057,-0.4367822,1.804184,-0.1107144,0.06787237,1.815263,-0.04014969,-0.4230456,1.764379,-0.170627,-0.2042071,1.842717,0.2612113,-0.218058,1.854048,NA,NA,NotTracked,NotTracked,
0.9750977,-0.1445313,-0.1376953,0.9321289,0.1757813,-0.05615234,0,-2,-1,0,-3,1,0,-1,1,0,1,0,3,0,0,-4,-0.8125,-0.8125,-0.8125,20.8125,20.8125,20.8125,1.355029,2.842003,1.668499,7.549412,2.938642,0.7693228,-0.175002,-0.4859956,1.728602,0.2627006,-0.5076625,1.731917,0.07049377,0.3240499,1.794128,-0.1427675,-0.4631484,1.68975,0.2400564,-0.5109993,1.689081,0.04715889,-0.1320405,1.813597,0.03844249,-0.4370308,1.804101,-0.1136365,0.06719575,1.814326,-0.04059451,-0.424019,1.76487,-0.1715242,-0.2043532,1.841832,0.2604152,-0.2172671,1.853409,NA,NA,NotTracked,NotTracked,
0.9750977,-0.1445313,-0.1376953,0.9072266,0.2885742,-0.06103516,0,-2,-1,0,-3,1,0,-1,-1,-1,0,2,-1,-3,0,0,-0.8125,-0.8125,-0.8125,9.3125,9.3125,9.3125,1.355029,2.842003,1.668499,7.639978,2.929411,0.7208599,-0.1754662,-0.4971327,1.723792,0.2621968,-0.5055759,1.730549,0.06473669,0.323563,1.790528,-0.1479604,-0.4853902,1.672615,0.2398958,-0.5149178,1.686521,0.04596943,-0.1326739,1.812169,0.03825748,-0.4372997,1.803909,-0.116475,0.06660853,1.81369,-0.04086785,-0.4247786,1.765107,-0.172151,-0.2045094,1.841256,0.2594128,-0.216589,1.852252,NA,NA,NotTracked,NotTracked,
0.9750977,-0.1445313,-0.1376953,0.9355469,0.2666016,0.01611328,0,-2,-1,0,-3,1,0,-1,1,0,0,-1,0,1,0,-2,-0.8125,-0.8125,-0.8125,-1.6875,-1.6875,-1.6875,1.355029,2.842003,1.668499,7.654968,2.927876,0.7018561,-0.1753778,-0.4944861,1.72481,0.2642241,-0.5046693,1.732995,0.06049272,0.3235995,1.788252,-0.1477234,-0.4836977,1.677815,0.2404961,-0.5157536,1.688,0.04485317,-0.1331601,1.811143,0.0379623,-0.4376214,1.803828,-0.118838,0.06598691,1.813143,-0.04130063,-0.4256062,1.765521,-0.1724853,-0.2045228,1.840892,0.2587438,-0.2148026,1.851299,NA,NA,NotTracked,NotTracked,
0.9750977,-0.1445313,-0.1376953,0.9262695,0.2612305,-0.001953125,0,-2,-1,0,-3,1,0,-1,-1,0,0,-1,-2,-4,-1,0,-0.8125,-0.8125,-0.8125,8.75,8.75,8.75,1.355029,2.842003,1.668499,7.671923,2.920157,0.6940174,-0.1759098,-0.4970479,1.724919,0.2650376,-0.5068557,1.734707,0.0565412,0.3235284,1.78605,-0.1505973,-0.4916147,1.674538,0.2401406,-0.5149875,1.6855,0.04403446,-0.1335466,1.810229,0.03785267,-0.4378933,1.803775,-0.1211468,0.06531421,1.812758,-0.04149412,-0.4263689,1.765981,-0.1733123,-0.2046118,1.840252,0.2579812,-0.2145662,1.850285,NA,NA,NotTracked,NotTracked,
0.9750977,-0.1445313,-0.1376953,0.9599609,0.2045898,-0.02441406,0,-2,-1,0,-3,1,0,-1,-2,0,0,-1,3,-2,-2,-1,-0.8125,-0.8125,-0.8125,13.3125,13.3125,13.3125,1.355029,2.842003,1.668499,7.689857,2.900756,0.6979963,-0.1770159,-0.4964609,1.725546,0.2623808,-0.5055717,1.732859,0.05353194,0.323454,1.78444,-0.1448631,-0.4711484,1.687444,0.2345929,-0.4760325,1.700657,0.0432088,-0.1338194,1.809384,0.03746278,-0.4382302,1.80371,-0.1233016,0.06524328,1.812359,-0.04193666,-0.4269958,1.766285,-0.1740282,-0.20501,1.839367,0.2570516,-0.2137726,1.847874,NA,NA,NotTracked,NotTracked,
0.9750977,-0.1445313,-0.1376953,0.9858398,0.1484375,-0.04150391,0,-2,-1,0,-3,1,0,-1,0,2,-2,1,2,-4,0,-2,-0.8125,-0.8125,-0.8125,22.0625,22.0625,22.0625,1.355029,2.842003,1.668499,7.71986,2.880998,0.6996016,-0.1791761,-0.4960461,1.727295,0.2623328,-0.5051292,1.732592,0.0509128,0.323657,1.782594,-0.1501628,-0.477817,1.687762,0.2331302,-0.4701138,1.702226,0.04199233,-0.13391,1.808284,0.03666045,-0.4385193,1.80353,-0.1248138,0.06465439,1.81183,-0.04291775,-0.4275322,1.766664,-0.1748349,-0.2059732,1.838332,0.2563052,-0.2107096,1.845051,NA,NA,NotTracked,NotTracked,
0.9750977,-0.1445313,-0.1376953,0.9121094,0.2250977,-0.06835938,0,-2,-1,0,-3,1,0,-1,-1,0,0,-2,-7,-4,0,0,-0.8125,-0.8125,-0.8125,5.5625,5.5625,5.5625,1.355029,2.842003,1.668499,7.749625,2.871768,0.6949025,-0.1803015,-0.4910358,1.731084,0.2608263,-0.5036606,1.731339,0.04896563,0.3239037,1.781148,-0.1512133,-0.4795542,1.690944,0.2342843,-0.4761924,1.700411,0.0412916,-0.1339933,1.807394,0.03648195,-0.4386778,1.803391,-0.1258619,0.06439438,1.811321,-0.04308603,-0.4279038,1.766847,-0.1752403,-0.2053498,1.837551,0.2558436,-0.2103158,1.84337,NA,NA,NotTracked,NotTracked,
0.9750977,-0.1445313,-0.1376953,0.9023438,0.2685547,-0.0625,0,-2,-1,0,-3,1,0,-1,0,-1,-1,0,4,0,-1,0,-0.8125,-0.8125,-0.8125,-12.9375,-12.9375,-12.9375,1.355029,2.842003,1.668499,7.776987,2.875606,0.6550573,-0.1782476,-0.4939925,1.727119,0.2631802,-0.5046452,1.73235,0.04717945,0.3238428,1.780185,-0.1495792,-0.4807352,1.685169,0.2405884,-0.5060357,1.688411,0.04079849,-0.1340161,1.806758,0.03647843,-0.4387918,1.803242,-0.1267766,0.06395408,1.810589,-0.04308966,-0.4282188,1.766988,-0.1752709,-0.2054429,1.837383,0.2555856,-0.2104574,1.842268,NA,NA,NotTracked,NotTracked,
0.9750977,-0.1445313,-0.1376953,0.9682617,0.2045898,-0.01611328,0,-2,-1,0,-3,1,0,-1,-2,0,-1,-2,4,-2,0,0,-0.8125,-0.8125,-0.8125,-0.375,-0.375,-0.375,1.355029,2.842003,1.668499,7.781936,2.875221,0.630429,-0.1766022,-0.4936306,1.726735,0.2618916,-0.5045234,1.731004,0.04565176,0.3238222,1.779426,-0.1486157,-0.4798548,1.685731,0.2427268,-0.5204468,1.689977,0.04011444,-0.1341261,1.805886,0.03628591,-0.4391109,1.802699,-0.12752,0.06372017,1.810094,-0.04317577,-0.4285866,1.766854,-0.1753843,-0.2060216,1.836808,0.2554727,-0.2107917,1.840692,NA,NA,NotTracked,NotTracked,
0.9750977,-0.1445313,-0.1376953,0.949707,0.2021484,-0.05761719,0,-2,-1,0,-3,1,0,-1,-2,-1,-2,-2,-2,-1,-1,-2,-0.8125,-0.8125,-0.8125,0.8125,0.8125,0.8125,1.355029,2.842003,1.668499,7.797662,2.871382,0.6196508,-0.1774704,-0.4949158,1.725611,0.2630808,-0.5036142,1.731462,0.04454927,0.3238834,1.778902,-0.1470065,-0.47374,1.688291,0.2346653,-0.4773807,1.698857,0.03972325,-0.1341282,1.805247,0.03623436,-0.4392144,1.802425,-0.1282357,0.06363257,1.809266,-0.04320623,-0.428739,1.766862,-0.175543,-0.2062057,1.836139,0.2555483,-0.2111125,1.839065,NA,NA,NotTracked,NotTracked,
0.9750977,-0.1445313,-0.1376953,0.9970703,0.1748047,-0.1757813,0,-2,-1,0,-3,1,0,-1,2,-8,-5,-5,1,3,0,31,-0.8125,-0.8125,-0.8125,14.3125,14.3125,14.3125,1.355029,2.842003,1.668499,7.785623,2.872478,0.6473985,-0.1824396,-0.4805895,1.737772,0.2625849,-0.5054029,1.730925,0.04384125,0.3239521,1.77891,-0.1582342,-0.4730408,1.699616,0.2395151,-0.5093669,1.689718,0.03935082,-0.1341788,1.804875,0.0359756,-0.4394065,1.802208,-0.1289293,0.063538,1.808741,-0.04347094,-0.4290249,1.766834,-0.1760369,-0.2066445,1.835378,0.2557209,-0.210608,1.838323,NA,NA,NotTracked,NotTracked,
0.9750977,-0.1445313,-0.1376953,0.9824219,0.171875,0.03076172,0,-2,-1,0,-3,1,0,-1,-8,2,-2,-10,1,14,-3,-83,-0.8125,-0.8125,-0.8125,2.1875,2.1875,2.1875,1.355029,2.842003,1.668499,7.628812,2.921962,0.8043218,-0.1804153,-0.4838504,1.733457,0.2639912,-0.5060622,1.723269,0.04334617,0.3239221,1.778981,-0.154322,-0.4747414,1.696102,0.2500798,-0.5193042,1.683769,0.03922016,-0.1342421,1.80471,0.03586863,-0.4395125,1.802119,-0.1292199,0.06355506,1.808515,-0.04357038,-0.429168,1.766823,-0.1763652,-0.2067019,1.834928,0.2562445,-0.2104106,1.837849,NA,NA,NotTracked,NotTracked,
0.9750977,-0.1445313,-0.1376953,1.027832,0.543457,0.04150391,0,-2,-1,0,-3,1,0,-1,3,5,10,2,-6,2,10,13,-0.8125,-0.8125,-0.8125,73.6875,73.6875,73.6875,1.355029,2.842003,1.668499,7.48026,3.038409,1.047802,-0.1806477,-0.4855533,1.733699,0.2541978,-0.4779842,1.690211,0.04317799,0.3238969,1.779108,-0.1530675,-0.468111,1.696689,0.2541273,-0.4832941,1.648566,0.03891603,-0.1342937,1.804561,0.03504517,-0.4397612,1.801772,-0.1294288,0.06363511,1.808591,-0.04431696,-0.4293433,1.766669,-0.1766744,-0.2075817,1.834804,0.2578076,-0.2095318,1.837507,NA,NA,NotTracked,NotTracked,
0.9750977,-0.1445313,-0.1376953,0.8632813,0.6420898,-0.004394531,0,-2,-1,0,-3,1,0,-1,-6,-9,-1,16,-15,-18,-5,-1,-0.8125,-0.8125,-0.8125,94.6875,94.6875,94.6875,1.355029,2.842003,1.668499,7.355822,3.375051,1.391236,-0.194327,-0.4764612,1.749457,0.219875,-0.4530528,1.642657,0.04314193,0.323853,1.779171,-0.1772483,-0.4633746,1.710537,0.2230707,-0.4373345,1.597485,0.03820685,-0.1343259,1.80422,0.03224146,-0.440004,1.800733,-0.12949,0.06356303,1.808615,-0.0472115,-0.4291097,1.765747,-0.1768456,-0.2078783,1.834604,0.2612878,-0.2031878,1.833814,NA,NA,NotTracked,Unknown,
0.9750977,-0.1445313,-0.1376953,0.7910156,0.7084961,0.06787109,0,-2,-1,0,-3,1,0,-1,-2,-3,-2,5,5,-2,0,-10,-0.8125,-0.8125,-0.8125,117.3125,117.3125,117.3125,1.355029,2.842003,1.668499,7.342676,3.591168,1.561408,-0.2032441,-0.4731645,1.768232,0.1747038,-0.3799458,1.599717,0.04331303,0.3237651,1.779333,-0.2032962,-0.4943436,1.730795,0.1779366,-0.3580489,1.553441,0.03773667,-0.1344622,1.803856,0.03071563,-0.4404531,1.79968,-0.1294838,0.06339971,1.808445,-0.04846758,-0.429099,1.764892,-0.176896,-0.2085489,1.834221,0.267602,-0.1857078,1.823031,NA,NA,NotTracked,Unknown,
0.9750977,-0.1445313,-0.1376953,0.6860352,0.8833008,0.09130859,0,-2,-1,0,-3,1,0,-1,-16,-17,-15,-1,-3,-17,-13,-31,-0.8125,-0.8125,-0.8125,112.5,112.5,112.5,1.355029,2.842003,1.668499,7.357878,3.834494,1.719473,-0.1774107,-0.4865171,1.731289,0.1203173,-0.2977543,1.555754,0.04417048,0.3238105,1.780084,-0.1480815,-0.4714451,1.692055,0.08313843,-0.3259669,1.59225,0.03800139,-0.1345606,1.803857,0.03167211,-0.4408783,1.799038,-0.1293692,0.06327404,1.808456,-0.04667347,-0.4294531,1.764477,-0.1769599,-0.2091133,1.833734,0.2575199,-0.1947436,1.762719,NA,NA,NotTracked,Unknown,
0.9750977,-0.1445313,-0.1376953,0.3120117,0.9047852,0.1157227,0,-2,-1,0,-3,1,0,-1,0,-3,-2,-6,3,3,3,7,-0.8125,-0.8125,-0.8125,62.1875,62.1875,62.1875,1.355029,2.842003,1.668499,7.406458,4.442365,2.044351,-0.1787264,-0.4866794,1.731216,0.09028894,-0.2008373,1.558205,0.045919,0.3239645,1.781511,-0.1496925,-0.469649,1.693635,0.0469854,-0.2342557,1.59,0.03826397,-0.134359,1.803921,0.03206042,-0.4403936,1.798945,-0.1290382,0.06336137,1.808494,-0.04630197,-0.429084,1.764449,-0.1768979,-0.2089579,1.833361,0.3029141,-0.1682461,1.752537,NA,NA,NotTracked,Unknown,
0.9750977,-0.1445313,-0.1376953,0.1445313,0.8598633,0.184082,0,-2,-1,0,-3,1,0,-1,-1,-7,-3,7,0,-1,0,-19,-0.8125,-0.8125,-0.8125,28.875,28.875,28.875,1.355029,2.842003,1.668499,7.440718,4.823587,2.239439,-0.1778465,-0.488046,1.732059,0.06359552,-0.1360819,1.558375,0.0477467,0.3241313,1.782885,-0.1486748,-0.468329,1.694389,0.07317749,-0.09443586,1.54654,0.03855978,-0.1339293,1.804302,0.03174097,-0.4390171,1.799327,-0.1282221,0.06399921,1.809179,-0.04646551,-0.4276254,1.764837,-0.1767294,-0.2088345,1.833053,0.3274516,-0.1711578,1.76686,NA,NA,NotTracked,Closed,
0.9750977,-0.1445313,-0.1376953,0.05126953,0.8881836,0.1025391,0,-2,-1,0,-3,1,0,-1,2,-4,-3,-6,1,1,0,21,-0.8125,-0.8125,-0.8125,11.5625,11.5625,11.5625,1.355029,2.842003,1.668499,7.4649,5.018833,2.346777,-0.1772935,-0.4873838,1.730374,0.04866153,-0.08877187,1.570097,0.04955519,0.3244384,1.784308,-0.1489319,-0.4705252,1.692787,0.05743491,-0.03694157,1.5816,0.03874801,-0.1333635,1.804544,0.03100825,-0.4375767,1.799371,-0.1270952,0.06400725,1.809403,-0.04705283,-0.4260902,1.765318,-0.1764666,-0.2085982,1.83282,0.3277553,-0.1763653,1.756604,NA,NA,NotTracked,Closed,
0.9750977,-0.1445313,-0.1376953,0.046875,0.9350586,0.1411133,0,-2,-1,0,-3,1,0,-1,4,2,1,8,4,2,4,28,-0.8125,-0.8125,-0.8125,-0.375,-0.375,-0.375,1.355029,2.842003,1.668499,7.460246,5.122518,2.442677,-0.1764084,-0.4836877,1.732683,0.03141724,-0.05765139,1.580392,0.05075172,0.3246428,1.785752,-0.1459105,-0.4656172,1.695891,0.05221192,-0.0280569,1.561766,0.03900345,-0.1329283,1.804855,0.03068132,-0.4367384,1.799488,-0.1248154,0.06424928,1.815543,-0.0472949,-0.4250741,1.765984,-0.1762038,-0.2085627,1.832698,0.3125741,-0.1750262,1.74038,NA,NA,NotTracked,Unknown,
0.9750977,-0.1445313,-0.1376953,0.02685547,0.9755859,0.1298828,0,-2,-1,0,-3,1,0,-1,-3,-4,-4,-5,4,-7,4,29,-0.8125,-0.8125,-0.8125,-10.875,-10.875,-10.875,1.355029,2.842003,1.668499,7.448554,5.190428,2.546477,-0.1755821,-0.4827798,1.732831,0.02069301,-0.03568621,1.60064,0.05195861,0.3250092,1.787196,-0.1452609,-0.4654988,1.695975,0.03639683,-0.01500132,1.57375,0.03925171,-0.1325489,1.805016,0.03049186,-0.4363231,1.799485,-0.123643,0.06385791,1.817608,-0.04746792,-0.4245409,1.766747,-0.1761673,-0.2083437,1.832484,0.3041002,-0.1733441,1.733528,NA,NA,NotTracked,Closed,
0.9750977,-0.1445313,-0.1376953,-0.07861328,0.9663086,0.03564453,0,-2,-1,0,-3,1,0,-1,1,-5,0,-6,-4,14,11,-1,-0.8125,-0.8125,-0.8125,-11.75,-11.75,-11.75,1.355029,2.842003,1.668499,7.44187,5.236389,2.622962,-0.1760886,-0.4806435,1.734967,0.00436995,-0.0195242,1.634869,0.05295594,0.3253844,1.788287,-0.1449803,-0.4645014,1.696559,0.02932224,0.02977393,1.648445,0.03929405,-0.1324559,1.805063,0.03039548,-0.4363334,1.799416,-0.1176746,0.06029574,1.809314,-0.04762066,-0.4246108,1.767041,-0.1760051,-0.2084762,1.83241,0.2783849,-0.1655571,1.727064,NA,NA,NotTracked,Unknown,
0.9750977,-0.1445313,-0.1376953,-0.07861328,0.9663086,0.03564453,0,-2,-1,0,-3,1,0,-1,10,13,14,31,26,-3,9,-5,-0.8125,-0.8125,-0.8125,-11.75,-11.75,-11.75,1.355029,2.842003,1.668499,7.44187,5.236389,2.622962,-0.1781673,-0.4821871,1.733838,-0.03159314,-0.01524995,1.688469,0.05366375,0.3255375,1.789524,-0.1472459,-0.4644884,1.695915,-0.01068679,0.02468229,1.668938,0.03930521,-0.132437,1.805095,0.03020266,-0.4365264,1.799251,-0.118136,0.06098679,1.812163,-0.04787145,-0.4247762,1.766967,-0.1758007,-0.2080012,1.832291,0.2778428,-0.165148,1.726941,NA,NA,NotTracked,Unknown,
0.9750977,-0.1445313,-0.1376953,-0.1030273,0.9448242,-0.003417969,0,-2,-1,0,-3,1,0,-1,6,-3,-2,-22,-42,-13,-8,10,-0.8125,-0.8125,-0.8125,-5.4375,-5.4375,-5.4375,1.355029,2.842003,1.668499,7.453951,5.286526,2.777184,-0.1773582,-0.4802244,1.734714,-0.03160996,-0.01606045,1.699586,0.05462778,0.3261377,1.791075,-0.1469738,-0.4613097,1.699238,0.004876834,0.03186815,1.693385,0.03932616,-0.1324389,1.805246,0.02993633,-0.4369102,1.799297,-0.1189092,0.06144792,1.812047,-0.04817886,-0.4250807,1.766994,-0.1758122,-0.2080035,1.832199,0.2775631,-0.1656132,1.727177,NA,NA,NotTracked,Unknown,
0.9750977,-0.1445313,-0.1376953,-0.1030273,0.9448242,-0.003417969,0,-2,-1,0,-3,1,0,-1,25,13,6,16,6,16,31,52,-0.8125,-0.8125,-0.8125,-5.4375,-5.4375,-5.4375,1.355029,2.842003,1.668499,7.453951,5.286526,2.777184,-0.1807676,-0.4831539,1.735179,-0.02949021,-0.02121664,1.677408,0.05562101,0.3264315,1.792923,-0.1511076,-0.4653432,1.698486,0.001680607,0.02682937,1.699167,0.03921103,-0.1323162,1.805489,0.02950591,-0.4369447,1.799281,-0.1193765,0.06182166,1.816971,-0.04859049,-0.4250252,1.76703,-0.1759051,-0.2074558,1.832268,0.2768448,-0.1670297,1.727172,NA,NA,NotTracked,Unknown,
0.9750977,-0.1445313,-0.1376953,-0.1030273,0.9448242,-0.003417969,0,-2,-1,0,-3,1,0,-1,-5,-2,-1,-5,-11,3,7,7,-0.8125,-0.8125,-0.8125,-5.4375,-5.4375,-5.4375,1.355029,2.842003,1.668499,7.453951,5.286526,2.777184,-0.1781465,-0.4758667,1.738765,-0.02896078,-0.02495071,1.663902,0.05686074,0.3269698,1.795052,-0.1471464,-0.4630178,1.698208,-0.001372691,0.02296878,1.693468,0.03918196,-0.1321188,1.805792,0.02933588,-0.436821,1.799341,-0.1197917,0.06212449,1.81945,-0.04874892,-0.4248191,1.767325,-0.1759295,-0.2074291,1.832321,0.274281,-0.1679346,1.727033,NA,NA,NotTracked,Unknown,
0.9750977,-0.1445313,-0.1376953,0.0004882813,1.12207,0.152832,0,-2,-1,0,-3,1,0,-1,-3,5,23,-62,-21,-6,-9,-7,-0.8125,-0.8125,-0.8125,-7.5,-7.5,-7.5,1.355029,2.842003,1.668499,7.398868,5.219648,2.767312,-0.1797508,-0.4784933,1.738361,-0.03142719,-0.02130991,1.700757,0.05848558,0.3274983,1.797185,-0.1502097,-0.4639834,1.697845,0.004740657,0.02819926,1.694958,0.03919124,-0.1320859,1.805916,0.02928905,-0.4370337,1.799339,-0.1200901,0.061944,1.818495,-0.04879599,-0.4249558,1.767285,-0.1759539,-0.2074222,1.832318,0.2737904,-0.1684197,1.727373,NA,NA,NotTracked,Unknown,
0.9750977,-0.1445313,-0.1376953,0.0546875,1.119629,0.1513672,0,-2,-1,0,-3,1,0,-1,-2,5,-7,85,35,15,-2,4,-0.8125,-0.8125,-0.8125,4.375,4.375,4.375,1.355029,2.842003,1.668499,7.399393,5.223386,2.774778,-0.177964,-0.4755653,1.73936,-0.03082736,-0.0200963,1.703889,0.06018317,0.3285135,1.799404,-0.1471723,-0.4602157,1.700368,0.006254605,0.02758788,1.69547,0.03930514,-0.1319881,1.806159,0.0292397,-0.4371514,1.799367,-0.1202166,0.06250442,1.817478,-0.04886055,-0.4250152,1.76723,-0.1759554,-0.2071064,1.83239,0.2742839,-0.1689158,1.728624,NA,NA,NotTracked,Unknown,
0.9750977,-0.1445313,-0.1376953,-0.4443359,0.8139648,-0.05957031,0,-2,-1,0,-3,1,0,-1,3,1,2,0,-2,6,5,-3,-0.8125,-0.8125,-0.8125,9.8125,9.8125,9.8125,1.355029,2.842003,1.668499,7.440845,5.268042,2.936103,-0.1804661,-0.484495,1.733981,-0.02564554,-0.02595793,1.684931,0.06109641,0.3289634,1.800602,-0.1512412,-0.467684,1.698476,0.006156186,0.02621139,1.694637,0.03928185,-0.1317879,1.806546,0.02901171,-0.4371759,1.799441,-0.1199551,0.06256967,1.819927,-0.04904084,-0.4249702,1.767301,-0.175945,-0.2071199,1.832609,0.2745211,-0.1696249,1.729794,NA,NA,NotTracked,Unknown,
0.9750977,-0.1445313,-0.1376953,-0.1425781,1.027344,0.09570313,0,-2,-1,0,-3,1,0,-1,2,4,2,-2,-3,2,-4,1,-0.8125,-0.8125,-0.8125,21.1875,21.1875,21.1875,1.355029,2.842003,1.668499,7.411992,5.272683,2.766855,-0.176857,-0.4851862,1.731086,0.004314748,-0.05077871,1.638664,0.06183777,0.3293152,1.801601,-0.1487672,-0.4692643,1.69461,0.03310613,-0.02374157,1.605,0.03938263,-0.1314349,1.806842,0.02891702,-0.4368836,1.799489,-0.1201001,0.06277929,1.821881,-0.04902976,-0.4246485,1.767441,-0.1758552,-0.2071167,1.83269,0.2696154,-0.1709971,1.729431,NA,NA,NotTracked,Unknown,
0.9750977,-0.1445313,-0.1376953,-0.05078125,0.9785156,0.1430664,0,-2,-1,0,-3,1,0,-1,-2,-1,-1,-1,-3,5,3,-2,-0.8125,-0.8125,-0.8125,-6.6875,-6.6875,-6.6875,1.355029,2.842003,1.668499,7.36442,5.204429,2.615607,-0.1777076,-0.4878378,1.730874,0.03011345,-0.07805713,1.59927,0.06224712,0.3293431,1.802347,-0.1478443,-0.4682611,1.692694,0.03013208,-0.02682243,1.6491,0.03956625,-0.1310032,1.807214,0.02901143,-0.4363887,1.799676,-0.1202597,0.06305943,1.820478,-0.04880765,-0.4241225,1.767544,-0.1755102,-0.2073268,1.832832,0.2670451,-0.1718737,1.731044,NA,NA,NotTracked,Unknown,
0.9750977,-0.1445313,-0.1376953,-0.015625,0.9423828,0.07568359,0,-2,-1,0,-3,1,0,-1,-3,0,0,-7,-7,-3,-4,-12,-0.8125,-0.8125,-0.8125,-4.9375,-4.9375,-4.9375,1.355029,2.842003,1.668499,7.30117,4.955678,2.293773,-0.1763291,-0.4799151,1.735049,0.0550454,-0.12459,1.567451,0.06225647,0.3295797,1.803025,-0.1475044,-0.4653013,1.696431,0.02995544,-0.07855137,1.611,0.03974031,-0.1306565,1.807341,0.02910924,-0.4358072,1.79969,-0.1205696,0.06339893,1.81955,-0.04855354,-0.4235042,1.767301,-0.1754716,-0.2072305,1.832856,0.279858,-0.177201,1.729081,NA,NA,NotTracked,Closed,
0.9750977,-0.1445313,-0.1376953,0.1533203,0.9345703,0.1166992,0,-2,-1,0,-3,1,0,-1,-6,-8,-5,-2,14,-2,-2,-2,-0.8125,-0.8125,-0.8125,-28.125,-28.125,-28.125,1.355029,2.842003,1.668499,7.282832,4.670012,2.061847,-0.1776567,-0.4810004,1.734926,0.09201072,-0.186848,1.542007,0.06195253,0.3297245,1.803406,-0.148342,-0.4656858,1.696993,0.06617082,-0.157015,1.5971,0.03989723,-0.1304568,1.807401,0.02941237,-0.4356527,1.799752,-0.1208025,0.06363846,1.819006,-0.04816503,-0.4233635,1.767101,-0.1754857,-0.2072913,1.832918,0.2973801,-0.1806828,1.739711,NA,NA,NotTracked,Unknown,
0.9750977,-0.1445313,-0.1376953,0.3310547,0.9433594,0.1542969,0,-2,-1,0,-3,1,0,-1,-2,1,1,4,2,2,2,-2,-0.8125,-0.8125,-0.8125,-31.8125,-31.8125,-31.8125,1.355029,2.842003,1.668499,7.277959,4.427999,1.884945,-0.1797723,-0.4853314,1.733763,0.1317347,-0.2515985,1.52653,0.0613593,0.3298396,1.803851,-0.1526941,-0.4706253,1.697672,0.1200897,-0.2001077,1.511839,0.0399852,-0.1305045,1.807396,0.02973843,-0.4361871,1.799622,-0.1217608,0.06391071,1.81833,-0.04786808,-0.4239592,1.766654,-0.1755282,-0.2071914,1.832879,0.2985161,-0.1798306,1.742555,NA,NA,NotTracked,Unknown,
0.9750977,-0.1445313,-0.1376953,0.503418,0.8969727,0.1557617,0,-2,-1,0,-3,1,0,-1,4,4,2,3,1,-2,0,7,-0.8125,-0.8125,-0.8125,-39.1875,-39.1875,-39.1875,1.355029,2.842003,1.668499,7.289201,4.192883,1.707161,-0.1778933,-0.4819651,1.735086,0.1723941,-0.3101803,1.523928,0.06012207,0.3300626,1.804431,-0.148311,-0.4646897,1.698401,0.1461739,-0.2661361,1.496741,0.03992414,-0.1306853,1.807357,0.02975751,-0.4374233,1.799353,-0.1223436,0.06384844,1.817679,-0.04788609,-0.4250857,1.766001,-0.1756737,-0.2072972,1.832644,0.3090841,-0.1726207,1.78412,NA,NA,NotTracked,Unknown,
0.9750977,-0.1445313,-0.1376953,0.5307617,0.8828125,0.1181641,0,-2,-1,0,-3,1,0,-1,16,9,0,0,-9,2,7,79,-0.8125,-0.8125,-0.8125,-35,-35,-35,1.355029,2.842003,1.668499,7.304843,4.052286,1.59692,-0.1778336,-0.487061,1.72952,0.2121664,-0.3607301,1.536257,0.05862748,0.330249,1.804569,-0.1484814,-0.4714705,1.692735,0.1828766,-0.3258619,1.507586,0.03972039,-0.1309419,1.807284,0.02928754,-0.4384629,1.799459,-0.1229892,0.06399839,1.816855,-0.04850964,-0.4259666,1.765862,-0.175795,-0.2071662,1.832249,0.2770901,-0.178166,1.799505,NA,NA,NotTracked,Unknown,
0.9750977,-0.1445313,-0.1376953,0.6025391,0.6484375,0.1040039,0,-2,-1,0,-3,1,0,-1,-19,0,-1,1,-1,-6,-6,-46,-0.8125,-0.8125,-0.8125,30.6875,30.6875,30.6875,1.355029,2.842003,1.668499,7.429602,3.747627,1.343675,-0.1797939,-0.4850513,1.733934,0.2543028,-0.3996934,1.584709,0.05729787,0.3303425,1.804461,-0.1501089,-0.4677075,1.697173,0.2145235,-0.3845223,1.570385,0.03952911,-0.1310528,1.80715,0.02911939,-0.4389086,1.79947,-0.1237057,0.0641209,1.815917,-0.04880927,-0.4264605,1.765643,-0.1758811,-0.2073118,1.832088,0.2753618,-0.1826846,1.80169,NA,NA,NotTracked,Unknown,
0.9750977,-0.1445313,-0.1376953,0.8203125,0.7763672,-0.1015625,0,-2,-1,0,-3,1,0,-1,0,-1,0,-1,0,-1,4,-11,-0.8125,-0.8125,-0.8125,-2.125,-2.125,-2.125,1.355029,2.842003,1.668499,7.569287,3.557328,1.199959,-0.176315,-0.4805052,1.735422,0.269614,-0.4555131,1.600199,0.05612678,0.3305755,1.804175,-0.146107,-0.4647375,1.696681,0.2196637,-0.4575243,1.5866,0.03956097,-0.131114,1.807131,0.02989922,-0.4396749,1.799706,-0.1242924,0.06402246,1.815371,-0.04818323,-0.4273083,1.76564,-0.1759628,-0.2076901,1.832,0.2752964,-0.1944688,1.803735,NA,NA,NotTracked,Unknown,
0.9750977,-0.1445313,-0.1376953,0.8886719,0.4887695,0.03955078,0,-2,-1,0,-3,1,0,-1,0,-1,-1,-1,-5,0,-2,-12,-0.8125,-0.8125,-0.8125,-77.0625,-77.0625,-77.0625,1.355029,2.842003,1.668499,7.562628,3.330904,1.019408,-0.1759936,-0.4787238,1.733987,0.2773241,-0.4849168,1.633302,0.05537209,0.330558,1.80339,-0.1451939,-0.4612673,1.697705,0.2300788,-0.4849603,1.619231,0.03961441,-0.1313152,1.806872,0.03037762,-0.4401353,1.799549,-0.1249949,0.06425692,1.81442,-0.04776255,-0.4278699,1.765204,-0.1761315,-0.2080019,1.8317,0.2756977,-0.2024292,1.80522,NA,NA,NotTracked,Unknown,
0.9750977,-0.1445313,-0.1376953,0.8813477,0.4106445,-0.01025391,0,-2,-1,0,-3,1,0,-1,2,0,0,-1,-2,2,2,0,-0.8125,-0.8125,-0.8125,-48.6875,-48.6875,-48.6875,1.355029,2.842003,1.668499,7.559137,3.167268,0.9098851,-0.1758774,-0.4861834,1.730099,0.2803533,-0.5136257,1.666142,0.05491415,0.3303987,1.80286,-0.1448683,-0.4686743,1.693273,0.2349241,-0.5174745,1.638536,0.03963286,-0.1315154,1.806688,0.03078374,-0.4404768,1.79944,-0.1253291,0.06434981,1.813846,-0.04740857,-0.4282469,1.764854,-0.1762396,-0.2080295,1.831526,0.2748294,-0.2104694,1.809454,NA,NA,NotTracked,NotTracked,
0.9750977,-0.1445313,-0.1376953,0.9438477,0.3491211,-0.005859375,0,-2,-1,0,-3,1,0,-1,-2,-2,-1,-3,-30,-6,-1,14,-0.8125,-0.8125,-0.8125,-35.25,-35.25,-35.25,1.355029,2.842003,1.668499,7.61443,3.012082,0.7832487,-0.1765139,-0.4874425,1.730216,0.2745327,-0.5325369,1.700768,0.05477405,0.3302506,1.802536,-0.1469721,-0.4713521,1.692228,0.2382077,-0.54039,1.659185,0.0397386,-0.1317262,1.806587,0.03112106,-0.440819,1.79939,-0.1254193,0.06453148,1.813277,-0.04709296,-0.4286091,1.76453,-0.1762978,-0.2080536,1.831175,0.271863,-0.216166,1.814527,NA,NA,NotTracked,NotTracked,
0.9750977,-0.1445313,-0.1376953,0.9995117,0.1386719,-0.02636719,0,-2,-1,0,-3,1,0,-1,1,0,-1,0,3,-2,3,9,-0.8125,-0.8125,-0.8125,-18.5,-18.5,-18.5,1.355029,2.842003,1.668499,7.713627,2.837992,0.6141568,-0.1783024,-0.4886736,1.730099,0.2694945,-0.5453914,1.728699,0.05475122,0.3301271,1.801795,-0.1504951,-0.4720131,1.693755,0.2356297,-0.5486403,1.689179,0.03985113,-0.1319132,1.806514,0.03134096,-0.441022,1.79938,-0.12576,0.06447654,1.812744,-0.04690608,-0.4288847,1.764293,-0.176405,-0.20818,1.830794,0.2686494,-0.2195559,1.817824,NA,NA,NotTracked,NotTracked,
0.9750977,-0.1445313,-0.1376953,1.055664,0.4150391,-0.04345703,0,-2,-1,0,-3,1,0,-1,-5,-2,-3,0,-1,-1,-5,-19,-0.8125,-0.8125,-0.8125,113.375,113.375,113.375,1.355029,2.842003,1.668499,7.647226,2.816997,0.767342,-0.1765528,-0.4924145,1.726759,0.2694128,-0.5456371,1.727718,0.05477785,0.3298653,1.801249,-0.1471783,-0.471068,1.692716,0.2361537,-0.5439267,1.682814,0.04025691,-0.132163,1.806496,0.03233472,-0.4413203,1.799672,-0.1256245,0.06452405,1.812076,-0.04613383,-0.4292798,1.764153,-0.1764604,-0.2082279,1.830507,0.2656686,-0.2216232,1.822296,NA,NA,NotTracked,NotTracked,
0.9750977,-0.1445313,-0.1376953,0.9150391,0.2910156,-0.08300781,0,-2,-1,0,-3,1,0,-1,0,-2,-1,-4,2,3,1,1,-0.8125,-0.8125,-0.8125,-97.375,-97.375,-97.375,1.355029,2.842003,1.668499,7.60497,2.908952,0.7882363,-0.1764484,-0.4921311,1.726887,0.2679499,-0.5447724,1.720747,0.05497822,0.3298081,1.800717,-0.1477326,-0.4755148,1.689703,0.2385061,-0.5444873,1.677047,0.04059158,-0.1323824,1.806577,0.03283564,-0.4415137,1.799796,-0.125694,0.06458239,1.811856,-0.04575493,-0.4295111,1.764054,-0.1764083,-0.2084667,1.830217,0.2641214,-0.2220943,1.824496,NA,NA,NotTracked,NotTracked,
