ALX,ALY,ALZ,ARX,ARY,ARZ,EMG0L,EMG1L,EMG2L,EMG3L,EMG4L,EMG5L,EMG6L,EMG7L,EMG0R,EMG1R,EMG2R,EMG3R,EMG4R,EMG5R,EMG6R,EMG7R,GLX,GLY,GLZ,GRX,GRY,GRZ,ORL,OPL,OYL,ORR,OPR,OYR,LHNX,LHNY,LHNZ,RHNX,RHNY,RHNZ,HX,HY,HZ,LTX,LTY,LTZ,RTX,RTY,RTZ,SpineMidX,SpineMidY,SpineMidZ,SpineBaseX,SpineBaseY,SpineBaseZ,ShoulderLeftX,ShoulderLeftY,ShoulderLeftZ,ShoulderRightX,ShoulderRightY,ShoulderRightZ,ElbowLeftX,ElbowLeftY,ElbowLeftZ,ElbowRightX,ElbowRightY,ElbowRightZ,Myo_Pose_left,Myo_Pose_Right,Kinect_pose_left,Kinect_pose_right
0.9750977,-0.1479492,-0.1225586,0.9331055,0.2763672,-0.02587891,-2,-2,-1,2,-6,-2,-2,-3,0,-1,7,-5,6,1,-1,1,0.5625,0.5625,0.5625,-20.125,-20.125,-20.125,1.309337,2.83624,7.001131,7.690029,3.049777,1.088621,-0.2244922,-0.4168987,1.782903,0.2485601,-0.4655155,1.747971,0.04095634,0.3099012,1.762176,-0.271652,-0.4640045,1.878869,0.2115836,-0.4555354,1.701994,0.01986747,-0.1530844,1.820331,0.00941432,-0.4661054,1.839636,-0.1204135,0.06872291,1.793996,-0.06320551,-0.4544902,1.797831,-0.2070274,-0.152429,1.859174,0.2669945,-0.2134068,1.885002,NA,NA,NotTracked,NotTracked,
0.9741211,-0.1552734,-0.1225586,0.9033203,0.3671875,-0.046875,1,-2,-26,-22,-1,-1,-1,-2,-1,-2,-5,5,-4,-1,2,-1,2.1875,2.1875,2.1875,-1.0625,-1.0625,-1.0625,1.319075,2.840018,6.99398,7.701391,3.053907,1.070099,-0.2239569,-0.4189082,1.782189,0.2482926,-0.4649436,1.747441,0.04076589,0.3098115,1.76223,-0.2715863,-0.4645258,1.878701,0.2124087,-0.4558945,1.70214,0.01980676,-0.1531132,1.820354,0.009393651,-0.4661061,1.83966,-0.1204363,0.06863759,1.794209,-0.06327717,-0.4544923,1.797899,-0.2066438,-0.1528125,1.859143,0.2668324,-0.2132882,1.885098,NA,NA,NotTracked,NotTracked,
0.9658203,-0.168457,-0.1450195,0.9135742,0.293457,-0.05273438,0,0,8,3,-3,0,-1,-1,-2,-1,1,4,2,1,-1,-1,0.75,0.75,0.75,-2.8125,-2.8125,-2.8125,1.320226,2.843409,6.997556,7.699738,3.058778,1.053632,-0.2236897,-0.4207023,1.779942,0.2484126,-0.4748494,1.746421,0.04054619,0.3097596,1.762339,-0.2692662,-0.4677536,1.869625,0.2120607,-0.4619756,1.698543,0.01973588,-0.1531122,1.820347,0.009378103,-0.4660747,1.839593,-0.1207628,0.06935786,1.793736,-0.06326548,-0.4544472,1.79777,-0.2067759,-0.1525762,1.859287,0.2662226,-0.2127986,1.885402,NA,NA,NotTracked,NotTracked,
0.96875,-0.1479492,-0.1469727,0.9228516,0.3461914,-0.04052734,-2,1,7,-1,0,-2,-2,-2,-4,-1,-1,1,-1,0,-1,-1,0,0,0,-5.625,-5.625,-5.625,1.317921,2.846314,7.001219,7.699507,3.063432,1.052209,-0.2295412,-0.4046733,1.784188,0.2482975,-0.4804496,1.746643,0.04032227,0.3096831,1.762535,-0.239655,-0.4533314,1.747333,0.2143199,-0.4685887,1.698614,0.01969143,-0.153143,1.820367,0.009370091,-0.466094,1.839572,-0.1207442,0.06911895,1.793993,-0.06330469,-0.4544975,1.797726,-0.2066355,-0.153038,1.859285,0.2656725,-0.2126195,1.885498,NA,NA,NotTracked,NotTracked,
0.9746094,-0.1669922,-0.1416016,1.00293,0.34375,0.0004882813,-2,1,1,3,0,-2,0,0,-1,-1,4,-12,-1,0,-3,1,-2.625,-2.625,-2.625,-19.75,-19.75,-19.75,1.310842,2.848093,7.004544,7.679741,3.067089,1.050013,-0.2279418,-0.4182258,1.783912,0.2479826,-0.4800482,1.747458,0.04018975,0.3096151,1.762964,-0.2701987,-0.469223,1.864797,0.2129605,-0.4634208,1.699069,0.01964547,-0.1531287,1.820421,0.00937125,-0.4660484,1.83957,-0.120796,0.06929552,1.794004,-0.06331669,-0.4544619,1.797675,-0.2067739,-0.1528584,1.859855,0.2651065,-0.2122861,1.885971,NA,NA,NotTracked,NotTracked,
0.9677734,-0.1708984,-0.1079102,0.9790039,0.2412109,-0.206543,-2,-2,-8,0,-2,-1,-1,-1,-3,-2,-11,-22,-2,-5,1,-2,-0.25,-0.25,-0.25,-25.625,-25.625,-25.625,1.312365,2.851076,7.001643,7.641017,3.102839,1.00218,-0.2253426,-0.4171074,1.783244,0.2478628,-0.482893,1.746654,0.04006296,0.3095993,1.76389,-0.2724371,-0.4654981,1.878375,0.2134307,-0.4647796,1.699453,0.01961337,-0.1531228,1.82056,0.009408403,-0.4660476,1.839579,-0.1207774,0.06924235,1.794449,-0.06331403,-0.4544755,1.797702,-0.2069539,-0.1530454,1.860342,0.263303,-0.2122372,1.888024,NA,NA,NotTracked,NotTracked,
0.9667969,-0.1557617,-0.1162109,0.9399414,0.5488281,-0.15625,-1,-1,1,4,-3,-1,-2,-2,-2,4,-18,-60,-9,-4,2,0,6.3125,6.3125,6.3125,-28.9375,-28.9375,-28.9375,1.307982,2.852297,7.016416,7.688689,3.222079,0.9066226,-0.223752,-0.4196247,1.784087,0.2547067,-0.5030635,1.754816,0.0402471,0.3099216,1.764877,-0.2721887,-0.4638286,1.881,0.2120094,-0.5342049,1.7105,0.01961993,-0.1531066,1.820654,0.009430142,-0.4660594,1.839586,-0.120731,0.06931831,1.795081,-0.06331885,-0.454509,1.797739,-0.2063359,-0.152861,1.861003,0.2623936,-0.2083116,1.895484,NA,NA,NotTracked,NotTracked,
0.9682617,-0.1494141,-0.1865234,0.765625,0.7861328,-0.1005859,-1,1,-7,-2,-3,-1,-3,-2,6,7,6,-5,-2,-2,-3,1,9.6875,9.6875,9.6875,16.625,16.625,16.625,1.297497,2.855647,7.04607,7.768541,3.482363,0.8244616,-0.2241829,-0.4227461,1.784437,0.2543239,-0.4400918,1.737016,0.04060631,0.31045,1.766005,-0.2722462,-0.4639267,1.881399,0.2067923,-0.3985541,1.723909,0.01966761,-0.1530544,1.82081,0.009467962,-0.4660718,1.839629,-0.1206562,0.06929469,1.795506,-0.06332002,-0.4545334,1.797758,-0.2054123,-0.1530651,1.861582,0.2656781,-0.201789,1.903285,NA,NA,NotTracked,NotTracked,
0.9628906,-0.1469727,-0.2045898,0.5405273,0.8735352,-0.01513672,-2,-4,-10,-7,-7,0,-3,-1,-2,-6,-4,0,11,4,1,-11,-8.625,-8.625,-8.625,21.875,21.875,21.875,1.255988,2.854302,7.082607,7.759211,3.75602,0.8810793,-0.2225263,-0.4209441,1.782328,0.2671432,-0.4062672,1.727067,0.04101463,0.3105821,1.766691,-0.2722085,-0.463862,1.881135,0.2018468,-0.4019735,1.716127,0.01986118,-0.1529981,1.821047,0.009605621,-0.4661164,1.839637,-0.1205498,0.06934517,1.795776,-0.06316187,-0.4546233,1.79772,-0.2053742,-0.151213,1.862831,0.2721921,-0.1883781,1.907224,NA,NA,NotTracked,NotTracked,
0.9638672,-0.1401367,-0.128418,0.4287109,0.7719727,0.009277344,0,0,19,15,-1,-2,-1,0,-3,13,7,7,2,-2,2,4,-16.875,-16.875,-16.875,16.5,16.5,16.5,1.233623,2.855019,7.073779,7.714498,4.060156,0.9719872,-0.2237435,-0.4204202,1.783071,0.2854452,-0.3552099,1.685421,0.04192847,0.3106481,1.767965,-0.2721292,-0.4636001,1.882433,0.2227966,-0.4234421,1.72,0.02001609,-0.1529522,1.821469,0.009586013,-0.4661482,1.839695,-0.120418,0.06930583,1.796281,-0.06319774,-0.4546494,1.797778,-0.2041924,-0.1510004,1.862537,0.2768439,-0.1731151,1.903121,NA,NA,NotTracked,Unknown,
0.9736328,-0.1958008,-0.08984375,0.1762695,1.046875,0.06591797,0,1,-6,-2,-1,1,0,-1,-5,10,6,10,-1,-4,-2,-1,-13.0625,-13.0625,-13.0625,9.5,9.5,9.5,1.252209,2.855023,7.028659,7.669938,4.389088,1.105281,-0.2230103,-0.4179468,1.781832,0.2699496,-0.2689715,1.629964,0.04364369,0.3106729,1.77001,-0.2720046,-0.4639406,1.880864,0.2257585,-0.3063157,1.628857,0.02046745,-0.1528645,1.822601,0.009676189,-0.4661751,1.839776,-0.1201367,0.06908916,1.796913,-0.06313796,-0.4546165,1.797897,-0.2032546,-0.1495697,1.862749,0.2799571,-0.1590613,1.894869,NA,NA,NotTracked,Unknown,
0.980957,-0.1376953,-0.1386719,-0.009765625,1.060059,0.02441406,-1,-1,-1,-1,0,-1,0,-1,2,27,18,11,5,2,5,10,-0.125,-0.125,-0.125,14.4375,14.4375,14.4375,1.254512,2.857468,7.021719,7.61559,4.865623,1.349451,-0.2494581,-0.4263177,1.816216,0.2320765,-0.1854618,1.582112,0.04617259,0.3102005,1.77217,-0.2711788,-0.5006858,1.8575,0.1842632,-0.2006871,1.5922,0.02100264,-0.1528625,1.823909,0.009777796,-0.466201,1.839829,-0.1198116,0.06908886,1.7975,-0.0630563,-0.4546156,1.797933,-0.2026459,-0.1486845,1.862893,0.2893958,-0.1414241,1.878805,NA,NA,NotTracked,Unknown,
0.9863281,-0.1425781,-0.1611328,-0.0859375,1.061035,0.02490234,-1,0,10,7,-5,-1,-1,-1,-9,-6,-1,-4,1,4,1,-3,-0.5625,-0.5625,-0.5625,9.625,9.625,9.625,1.227299,2.857255,7.049184,7.623056,5.100373,1.483388,-0.2464978,-0.419171,1.80811,0.1802842,-0.09480159,1.552083,0.04995216,0.3096765,1.775135,-0.2808792,-0.4602631,1.92275,0.1432496,-0.1104401,1.53825,0.02177201,-0.1529973,1.825385,0.009752709,-0.4662397,1.839801,-0.1193362,0.06902183,1.798222,-0.06306059,-0.4546072,1.798041,-0.2016164,-0.1492413,1.86339,0.3006881,-0.1634401,1.783473,NA,NA,NotTracked,Closed,
0.9775391,-0.1225586,-0.159668,-0.137207,1.03418,0.01513672,0,1,1,2,-7,-2,0,0,4,5,3,-22,-2,-3,-3,-4,-3.8125,-3.8125,-3.8125,3.6875,3.6875,3.6875,1.155659,2.858679,7.11545,7.684021,5.506581,1.75454,-0.2142565,-0.4508885,1.769924,0.1364016,-0.01220093,1.560588,0.05443704,0.3092047,1.778274,-0.2482733,-0.444602,1.797667,0.090501,-0.02093815,1.558842,0.02309003,-0.1534327,1.827889,0.009979252,-0.4665616,1.839922,-0.1186785,0.06914807,1.799224,-0.06289803,-0.4549533,1.798447,-0.1996075,-0.1496068,1.86389,0.3059748,-0.1704893,1.755746,NA,NA,NotTracked,Lasso,
0.9584961,-0.1420898,-0.1308594,-0.1904297,0.90625,-0.02490234,-1,2,26,4,-9,-4,-1,0,-1,-5,0,5,-5,-7,-4,9,0.0625,0.0625,0.0625,-11.0625,-11.0625,-11.0625,1.125064,2.862321,7.143523,7.762674,5.795938,2.009044,-0.2154694,-0.4423741,1.776509,0.106335,0.04259923,1.583256,0.05841454,0.3085859,1.781135,-0.2432503,-0.4319307,1.801143,0.0558135,0.04626001,1.649,0.02279149,-0.1536156,1.828622,0.01012452,-0.4678671,1.840087,-0.1182376,0.06931229,1.800808,-0.06319638,-0.4562342,1.799254,-0.1988469,-0.1500841,1.865039,0.3110988,-0.176362,1.753712,NA,NA,NotTracked,Lasso,
0.9746094,-0.1679688,-0.1420898,-0.3032227,0.8564453,-0.140625,-1,0,-5,-4,1,-1,0,0,-1,-3,-4,12,3,0,-1,-7,12.0625,12.0625,12.0625,-9.5,-9.5,-9.5,1.142596,2.875746,7.141762,7.83944,5.93192,2.188445,-0.2169221,-0.4199946,1.77723,0.09752454,0.06435836,1.607212,0.06168434,0.3088126,1.783177,-0.2682601,-0.4654717,1.877333,0.08105088,0.0388649,1.642364,0.02142069,-0.1529387,1.828647,0.009897796,-0.4684431,1.840287,-0.1178835,0.06967109,1.803012,-0.06376594,-0.4568137,1.799966,-0.198172,-0.1522902,1.866812,0.2864323,-0.1570008,1.709876,NA,NA,NotTracked,Lasso,
0.9560547,-0.1347656,-0.1542969,-0.4140625,0.7856445,-0.1679688,0,3,-4,1,2,0,-1,-1,5,5,3,21,5,1,4,3,17.1875,17.1875,17.1875,-19.125,-19.125,-19.125,1.156467,2.887341,7.146471,7.881104,6.00422,2.330505,-0.2061202,-0.4420936,1.761766,0.0882837,0.07983084,1.627042,0.06344499,0.3090404,1.78365,-0.2453232,-0.4171965,1.789833,0.07464983,0.05059631,1.695851,0.02103692,-0.1528609,1.828332,0.01032901,-0.4691752,1.840398,-0.1175525,0.06976555,1.805071,-0.06345313,-0.4575536,1.800591,-0.1977299,-0.1517487,1.869357,0.2949432,-0.1709803,1.717812,NA,NA,NotTracked,Lasso,
0.9677734,-0.1772461,-0.2060547,-0.559082,0.7558594,-0.2182617,-2,-4,-7,0,-4,-2,-3,0,12,3,11,12,5,5,-1,3,19.125,19.125,19.125,-15.6875,-15.6875,-15.6875,1.176262,2.904453,7.166675,7.883314,6.024251,2.381515,-0.2013582,-0.4464879,1.759155,0.08587053,0.08471642,1.644668,0.06432126,0.3084463,1.78379,-0.2445857,-0.4210206,1.790167,0.0703391,0.06079411,1.704083,0.02010444,-0.1528549,1.827897,0.009941555,-0.4695711,1.840547,-0.1173369,0.06992925,1.806719,-0.0641832,-0.4578493,1.801278,-0.1959407,-0.1526159,1.872336,0.2715053,-0.1538437,1.701001,NA,NA,NotTracked,Closed,
0.9775391,-0.1870117,-0.2504883,-0.6279297,0.7192383,-0.2529297,0,-1,4,1,1,-3,-4,-2,-1,11,5,14,2,0,-3,-12,8.25,8.25,8.25,-14.25,-14.25,-14.25,1.165148,2.913044,7.198815,7.882161,6.028047,2.41107,-0.1989583,-0.4457961,1.759688,0.08308349,0.07968976,1.66523,0.06468344,0.3077627,1.783848,-0.2438724,-0.4261733,1.790973,0.07906719,0.03031161,1.723606,0.01974285,-0.152941,1.82767,0.00986396,-0.4699775,1.840699,-0.1172269,0.06996088,1.807872,-0.06429463,-0.4582678,1.801803,-0.1942244,-0.1547579,1.875107,0.2694491,-0.152912,1.700123,NA,NA,NotTracked,Unknown,
0.9501953,-0.1542969,-0.2421875,-0.6044922,0.7636719,-0.2514648,-1,1,4,1,2,-1,1,-2,2,-9,-7,0,-2,1,-9,-14,-4.1875,-4.1875,-4.1875,3.875,3.875,3.875,1.131664,2.920014,7.236173,7.888546,6.028844,2.413807,-0.2002441,-0.4453629,1.758435,0.08344263,0.07913838,1.668082,0.06484462,0.3070734,1.783863,-0.2351553,-0.4715216,1.7434,0.07271662,0.03872343,1.724931,0.01920885,-0.152954,1.827388,0.009462622,-0.4703181,1.84068,-0.1172007,0.06999716,1.808676,-0.06477215,-0.458489,1.80202,-0.1940021,-0.1548576,1.875234,0.2687096,-0.1531349,1.700273,NA,NA,NotTracked,Unknown,
0.9697266,-0.1635742,-0.1918945,-0.6201172,0.8422852,-0.277832,1,-1,-16,-15,0,0,1,-1,4,-4,2,3,0,-3,-3,3,-14.0625,-14.0625,-14.0625,16.3125,16.3125,16.3125,1.106358,2.916766,7.241675,7.901814,6.012308,2.366198,-0.2020676,-0.4444134,1.760366,0.08616564,0.07865021,1.67062,0.06480556,0.3067885,1.784268,-0.246245,-0.4149247,1.789455,0.07766489,0.03280921,1.72737,0.01892227,-0.1529112,1.827249,0.009444425,-0.4705835,1.840709,-0.1171794,0.07008065,1.809122,-0.06484141,-0.4587279,1.802293,-0.1932372,-0.155324,1.874864,0.2683713,-0.1531394,1.700874,NA,NA,NotTracked,Unknown,
0.9702148,-0.1547852,-0.1640625,-0.7578125,0.8637695,-0.2861328,-1,1,17,11,-1,-1,0,1,-12,-8,-4,-4,-2,0,-2,-9,-12.875,-12.875,-12.875,42.25,42.25,42.25,1.100061,2.911114,7.224974,7.907427,6.0422,2.283777,-0.2032989,-0.4433869,1.760138,0.09866098,0.08761068,1.663626,0.06388778,0.3067351,1.784948,-0.2379978,-0.450141,1.761615,0.08632121,0.03772583,1.72964,0.01865522,-0.1529473,1.827244,0.008928479,-0.4709797,1.840706,-0.1171911,0.06999931,1.809368,-0.06539886,-0.4589968,1.802734,-0.1934295,-0.1553294,1.874923,0.2841362,-0.1733464,1.716452,NA,NA,NotTracked,Unknown,
0.9619141,-0.1665039,-0.1567383,-0.7871094,0.7797852,-0.3203125,0,-3,-7,-1,1,-1,-2,-1,2,-2,-5,-8,29,2,3,12,-6.3125,-6.3125,-6.3125,69.3125,69.3125,69.3125,1.101846,2.9006,7.20203,7.980105,6.156538,2.221929,-0.203492,-0.4434751,1.759894,0.1215681,0.1107814,1.663344,0.06084106,0.3054194,1.786886,-0.2483958,-0.4075462,1.787572,0.1080265,0.05306978,1.740581,0.0202389,-0.1541585,1.828505,0.008725279,-0.4714753,1.840912,-0.1170706,0.06980269,1.809396,-0.06562044,-0.4594883,1.803202,-0.1932923,-0.1557576,1.874811,0.2861009,-0.174911,1.718794,NA,NA,NotTracked,Lasso,
0.9570313,-0.144043,-0.1733398,-0.7255859,0.6108398,-0.2216797,-2,-4,9,3,-1,-1,-2,-1,-5,-4,-4,-8,5,1,-3,-7,-5.3125,-5.3125,-5.3125,74.1875,74.1875,74.1875,1.094163,2.894195,7.201264,8.150607,6.346899,2.222388,-0.2004804,-0.4491199,1.756589,0.1357763,0.1382713,1.676229,0.05791169,0.3037646,1.788025,-0.2335169,-0.4734748,1.7596,0.1308544,0.09390005,1.7446,0.02462444,-0.1547453,1.831085,0.008281405,-0.4718414,1.841131,-0.1167773,0.06948734,1.809334,-0.06608684,-0.459708,1.803397,-0.1938926,-0.1558103,1.874234,0.2793552,-0.1289724,1.686361,NA,NA,NotTracked,Closed,
0.9707031,-0.1503906,-0.1547852,-0.7060547,0.5048828,-0.2080078,-2,0,5,3,-7,-3,-1,-1,-2,1,-2,-7,5,-4,-4,-3,-2.6875,-2.6875,-2.6875,56.75,56.75,56.75,1.093284,2.889344,7.193517,8.319817,6.454196,2.309576,-0.1877538,-0.4660147,1.738182,0.1532602,0.1456807,1.684612,0.0561728,0.3021357,1.788605,-0.2099483,-0.5100209,1.773333,0.155407,0.05593243,1.752364,0.0289985,-0.1547327,1.834459,0.008333476,-0.4717217,1.841368,-0.1165204,0.06906444,1.809278,-0.06605057,-0.4595616,1.803502,-0.1935111,-0.1554346,1.874184,0.2877432,-0.1223187,1.675192,NA,NA,NotTracked,Unknown,
0.9604492,-0.1699219,-0.1577148,-0.6953125,0.4501953,-0.2207031,0,-1,-1,5,0,-1,-2,-2,-6,-3,-2,-7,0,5,11,-1,-1.0625,-1.0625,-1.0625,31.5625,31.5625,31.5625,1.105179,2.887725,7.179115,8.492284,6.501864,2.421998,-0.2171131,-0.4234866,1.778086,0.1459045,0.1653255,1.695021,0.05445731,0.3006458,1.788945,-0.2693089,-0.4668767,1.872833,0.1691314,0.08790664,1.7576,0.03208196,-0.153897,1.836369,0.008747412,-0.471196,1.841799,-0.1151897,0.06876403,1.810081,-0.06576416,-0.4591284,1.803621,-0.1944684,-0.1549157,1.873014,0.2966008,-0.1075239,1.668824,NA,NA,NotTracked,Closed,
0.9682617,-0.1567383,-0.1757813,-0.7856445,0.375,-0.2763672,-2,-2,-5,-1,-10,-1,0,-1,11,11,9,2,-1,-2,-3,2,2.625,2.625,2.625,6.6875,6.6875,6.6875,1.114315,2.88806,7.172278,8.520456,6.48956,2.4426,-0.2422285,-0.3818322,1.800766,0.1398529,0.1743965,1.69776,0.05292838,0.2996475,1.789225,-0.2506775,-0.3913961,1.793286,0.1415597,0.1258994,1.742182,0.03364876,-0.1528407,1.837018,0.00968374,-0.4701256,1.842162,-0.1150101,0.06808224,1.809674,-0.0648615,-0.4584256,1.803676,-0.1947325,-0.1538169,1.872458,0.2979767,-0.09317655,1.670973,NA,NA,Unknown,NotTracked,
0.9760742,-0.1425781,-0.1826172,-0.8110352,0.4624023,-0.2900391,-1,-4,-7,-7,-1,-3,-2,0,-6,-8,-7,-17,-2,0,0,-1,1.8125,1.8125,1.8125,-2.1875,-2.1875,-2.1875,1.116333,2.889715,7.176213,8.51751,6.490331,2.435032,-0.2198388,-0.4076093,1.782086,0.1415944,0.1740161,1.695943,0.05101395,0.2988456,1.789084,-0.2361172,-0.4630969,1.735333,0.1509749,0.1143129,1.76,0.03463023,-0.1517944,1.837301,0.01069373,-0.468501,1.842253,-0.1149932,0.06801663,1.809569,-0.06372178,-0.457354,1.803663,-0.195336,-0.1533853,1.872225,0.304117,-0.09212197,1.665422,NA,NA,NotTracked,NotTracked,
0.9633789,-0.1586914,-0.1870117,-0.8120117,0.4570313,-0.3481445,0,0,-5,0,2,1,1,-2,-4,-7,-3,-2,-1,-1,2,1,-1.6875,-1.6875,-1.6875,-6,-6,-6,1.111061,2.888961,7.180244,8.519653,6.490259,2.449886,-0.222064,-0.4101441,1.784024,0.126743,0.179192,1.695554,0.04927516,0.2986483,1.788971,-0.2706159,-0.4663033,1.879,0.1246042,0.1446496,1.722077,0.03470604,-0.1518188,1.837354,0.01055468,-0.4690651,1.842428,-0.1150014,0.06770601,1.809381,-0.06388614,-0.4575374,1.803687,-0.1948958,-0.1531883,1.871125,0.3131538,-0.09527723,1.653924,NA,NA,NotTracked,NotTracked,
0.96875,-0.137207,-0.1816406,-0.7524414,0.4550781,-0.3867188,0,-1,-15,-9,1,-1,-1,0,0,-2,-3,1,-1,-2,2,4,-0.0625,-0.0625,-0.0625,1.5,1.5,1.5,1.107752,2.887745,7.183125,8.53301,6.491602,2.468557,-0.2148368,-0.4273743,1.773005,0.1019534,0.251456,1.694736,0.04782009,0.2983088,1.788787,-0.2692659,-0.4708121,1.866,0.1102523,0.2342321,1.713077,0.03468962,-0.1518476,1.837336,0.01023208,-0.4696628,1.842549,-0.1150182,0.06703905,1.808972,-0.06421671,-0.457815,1.803672,-0.195105,-0.1528664,1.870545,0.3136294,-0.09449717,1.651947,NA,NA,NotTracked,NotTracked,
0.9672852,-0.1552734,-0.1665039,-0.6323242,0.4604492,-0.3339844,-2,-1,6,0,0,0,-1,-2,0,1,0,-1,-2,0,-1,2,-0.5,-0.5,-0.5,3.5,3.5,3.5,1.104621,2.886176,7.184332,8.510329,6.478951,2.432661,-0.217506,-0.4299764,1.768537,0.1193583,0.1762128,1.70806,0.04671642,0.2981857,1.788369,-0.2360036,-0.4676201,1.7375,0.09712032,0.1023151,1.762181,0.03469011,-0.1518587,1.837321,0.01004076,-0.4699679,1.842628,-0.1150456,0.06686109,1.80876,-0.06442788,-0.4579345,1.803689,-0.1946928,-0.1525438,1.870563,0.3134277,-0.09398247,1.651386,NA,NA,NotTracked,NotTracked,
0.9536133,-0.1362305,-0.1665039,-0.4238281,0.5063477,-0.3041992,1,1,-7,-4,-9,0,-1,1,0,-1,-3,-1,-2,1,0,-1,0.375,0.375,0.375,-1.375,-1.375,-1.375,1.115689,2.884643,7.17445,8.42757,6.418321,2.324403,-0.2383912,-0.3851903,1.798964,0.1532844,0.1603986,1.681897,0.04570458,0.2982998,1.78834,-0.246675,-0.4085037,1.7816,0.1356951,0.1278651,1.73275,0.03467218,-0.1518677,1.837326,0.009866669,-0.4702104,1.842772,-0.1150755,0.06668629,1.80858,-0.06462993,-0.4580731,1.803789,-0.1954586,-0.1518514,1.870325,0.3136337,-0.0941912,1.651982,NA,NA,NotTracked,NotTracked,
0.9545898,-0.1425781,-0.1616211,-0.3857422,0.7084961,-0.1801758,2,1,15,12,2,-1,0,-1,-3,-1,-4,-2,1,-1,-2,-4,3.4375,3.4375,3.4375,-28.5,-28.5,-28.5,1.132331,2.884525,7.159965,8.190913,6.185534,2.058213,-0.2426559,-0.3821594,1.802088,0.1566653,0.1511321,1.668613,0.04326869,0.2989496,1.787562,-0.2523623,-0.3815955,1.796923,0.1393747,0.1163977,1.707077,0.03448712,-0.1518869,1.837426,0.009984356,-0.4702027,1.84298,-0.1151643,0.06635652,1.808308,-0.06447086,-0.4581156,1.804016,-0.1950866,-0.1520213,1.870494,0.3108206,-0.09874181,1.668806,NA,NA,Unknown,Unknown,
0.9609375,-0.1484375,-0.1616211,-0.3823242,0.9033203,-0.1577148,-2,1,11,-3,6,-1,-1,0,1,1,-2,-3,-2,-2,-1,-2,4.8125,4.8125,4.8125,-46.3125,-46.3125,-46.3125,1.155439,2.886231,7.141283,7.974672,5.880419,1.807734,-0.1858839,-0.4672673,1.737418,0.174077,0.1103917,1.630929,0.03811624,0.3013433,1.786823,-0.2181563,-0.5112734,1.775,0.1688277,0.05598187,1.73425,0.03272533,-0.1524072,1.837561,0.009862302,-0.4703351,1.843006,-0.1156525,0.06609233,1.808166,-0.06455094,-0.4582398,1.804011,-0.1947067,-0.1514494,1.871351,0.30942,-0.1109601,1.693222,NA,NA,NotTracked,Unknown,
0.9741211,-0.1645508,-0.15625,-0.3037109,1.027832,-0.05566406,1,0,4,1,-2,-1,0,-1,-4,-1,-4,-6,-2,1,-1,1,11.25,11.25,11.25,-24,-24,-24,1.229785,2.894868,7.096117,7.785922,5.35146,1.518993,-0.1875484,-0.4714562,1.735886,0.1947052,0.0361288,1.58239,0.03354348,0.3030614,1.785458,-0.2163904,-0.5151919,1.78025,0.1748528,0.01542442,1.625,0.02710363,-0.1557041,1.836753,0.008007944,-0.4729292,1.842166,-0.1162339,0.06606462,1.808017,-0.0661936,-0.4602275,1.802867,-0.1954953,-0.1521929,1.872133,0.3165258,-0.132264,1.706579,NA,NA,NotTracked,Unknown,
0.9726563,-0.1801758,-0.184082,-0.190918,1.039063,-0.1171875,-2,0,-4,0,0,0,-2,-2,-3,-5,-4,-1,0,-2,1,0,11.125,11.125,11.125,-15.0625,-15.0625,-15.0625,1.256382,2.898391,7.08884,7.744481,4.926753,1.353762,-0.1871794,-0.4707603,1.735649,0.2237624,-0.0656528,1.540928,0.03025973,0.3040167,1.784265,-0.2210588,-0.5054137,1.765286,0.1860513,-0.07514355,1.571125,0.02525745,-0.1563786,1.836012,0.007788717,-0.4730402,1.841973,-0.11689,0.06605087,1.807806,-0.06631111,-0.4603691,1.802514,-0.1954509,-0.1519852,1.872356,0.3136307,-0.154099,1.739871,NA,NA,NotTracked,Closed,
0.9643555,-0.2006836,-0.2026367,0.2285156,1.103027,-0.1166992,-1,-7,-19,-5,4,-3,-1,-1,-3,-1,-2,1,-2,1,0,-3,0.625,0.625,0.625,36.25,36.25,36.25,1.265305,2.899562,7.090794,7.794563,4.51684,1.226863,-0.1875297,-0.4721644,1.736052,0.2529052,-0.1900251,1.535214,0.02664702,0.3047554,1.782414,-0.2175252,-0.5115179,1.77414,0.1996996,-0.1994982,1.516833,0.02447268,-0.1563772,1.835414,0.007873248,-0.4727762,1.841834,-0.1175294,0.0659026,1.807459,-0.06597476,-0.4600587,1.802121,-0.1945198,-0.1513826,1.873336,0.333184,-0.1460685,1.79778,NA,NA,NotTracked,Unknown,
0.9609375,-0.1835938,-0.1816406,0.4550781,0.9204102,-0.1904297,-2,-5,-50,-32,-9,-3,-1,-1,4,-1,-1,6,12,9,6,4,-4.875,-4.875,-4.875,42,42,42,1.265346,2.897915,7.086198,7.88867,4.159459,1.169041,-0.1869503,-0.4708097,1.736173,0.2822244,-0.2987447,1.593285,0.02345782,0.3049078,1.779624,-0.2169197,-0.5128599,1.775428,0.2397371,-0.3159409,1.6048,0.02337994,-0.1563924,1.834449,0.007949856,-0.4725989,1.841692,-0.1181583,0.06587139,1.806947,-0.0657624,-0.4598175,1.801718,-0.195013,-0.1510493,1.873348,0.332065,-0.1356287,1.86835,NA,NA,NotTracked,Unknown,
0.9609375,-0.1762695,-0.1430664,0.7299805,0.6791992,-0.1601563,0,3,11,10,5,2,0,-1,-1,-5,-8,-11,-5,-6,-9,-5,-7.8125,-7.8125,-7.8125,-6.8125,-6.8125,-6.8125,1.268114,2.892335,7.071048,7.934607,3.751493,1.12633,-0.1860375,-0.4701742,1.734811,0.2936189,-0.3706049,1.670249,0.02166867,0.3050767,1.777097,-0.2154495,-0.5123167,1.773413,0.2218283,-0.418944,1.716445,0.02262603,-0.156538,1.833442,0.008069424,-0.4725201,1.841632,-0.1187222,0.06578097,1.806228,-0.06553454,-0.4597859,1.801519,-0.1945992,-0.1511022,1.873237,0.3106337,-0.1558213,1.872159,NA,NA,NotTracked,Unknown,
0.9453125,-0.1557617,-0.1362305,0.7739258,0.7875977,0.05566406,-2,-1,12,7,2,-2,0,-2,3,3,2,-3,-5,1,-1,1,-3.9375,-3.9375,-3.9375,-40.25,-40.25,-40.25,1.270081,2.884088,7.060966,7.913816,3.487159,1.086012,-0.1858534,-0.4724331,1.732748,0.2826601,-0.4043344,1.722703,0.02090976,0.3053467,1.774632,-0.221397,-0.5072225,1.7626,0.2112218,-0.4163051,1.710559,0.02217091,-0.1564525,1.832414,0.008204203,-0.472173,1.841421,-0.1191922,0.06582856,1.805398,-0.06534174,-0.4595241,1.801187,-0.1944359,-0.1514978,1.871926,0.3073165,-0.1657988,1.886164,NA,NA,NotTracked,Unknown,
0.9487305,-0.2016602,-0.1157227,0.5400391,0.7260742,-0.03857422,-1,-1,4,2,2,-1,-1,-2,1,-2,-2,2,-2,-4,-4,-3,3.4375,3.4375,3.4375,-89,-89,-89,1.285878,2.883451,7.046407,7.809671,3.328008,1.077219,-0.185276,-0.4715915,1.732649,0.2668133,-0.4171192,1.751619,0.02081611,0.3056917,1.773849,-0.2197755,-0.5023058,1.749714,0.1994728,-0.4064231,1.705173,0.02185221,-0.1561111,1.831541,0.008699226,-0.4713624,1.840873,-0.119448,0.06591728,1.804925,-0.06473358,-0.4589501,1.800338,-0.1941024,-0.1501731,1.871563,0.300839,-0.1771729,1.90021,NA,NA,NotTracked,Unknown,
0.9887695,-0.1411133,-0.1513672,0.6982422,0.6210938,-0.03808594,-3,-1,-3,-1,2,0,-1,-3,-1,0,1,1,-1,1,-4,-4,7.375,7.375,7.375,-95.25,-95.25,-95.25,1.294597,2.888281,7.051214,7.655569,3.253145,0.9908763,-0.1856545,-0.4726154,1.731714,0.2643887,-0.437119,1.762274,0.02112606,0.3064233,1.773635,-0.2170523,-0.503158,1.746833,0.2233419,-0.4147941,1.72536,0.02175541,-0.155575,1.830531,0.009281715,-0.4703302,1.839906,-0.1196557,0.06594923,1.804516,-0.0640099,-0.4583286,1.799424,-0.1939166,-0.1512961,1.870231,0.2873394,-0.1857336,1.91475,NA,NA,NotTracked,NotTracked,
1.012207,-0.1010742,-0.2114258,0.7314453,0.6586914,-0.07373047,-2,-1,-7,-4,-4,-2,0,-2,-1,1,-2,-1,-4,-2,2,-1,-7.5625,-7.5625,-7.5625,-60.0625,-60.0625,-60.0625,1.264409,2.881261,7.075468,7.509088,3.24783,1.025521,-0.185044,-0.4705946,1.731979,0.2573644,-0.4388038,1.76294,0.02186695,0.3071636,1.77405,-0.2283961,-0.4845777,1.739455,0.2169786,-0.4211742,1.715174,0.02151782,-0.1553775,1.830024,0.009180567,-0.4700203,1.839078,-0.1197928,0.06598182,1.80421,-0.0640277,-0.4581775,1.798527,-0.1944241,-0.1512923,1.868884,0.2705877,-0.2019085,1.920466,NA,NA,NotTracked,Unknown,
0.9785156,-0.1411133,-0.1567383,1.140625,0.3203125,-0.309082,-1,-2,-8,-5,1,-1,-2,0,1,0,-1,0,-1,1,0,0,-15.4375,-15.4375,-15.4375,-67.875,-67.875,-67.875,1.215918,2.878216,7.100722,7.565848,3.24872,0.828796,-0.1858714,-0.4681678,1.733545,0.2508451,-0.4467616,1.756096,0.02372663,0.3085524,1.776669,-0.2291106,-0.4819018,1.7364,0.2118197,-0.4290723,1.711515,0.02150515,-0.1550129,1.829816,0.009351804,-0.4694166,1.838343,-0.1198792,0.06593128,1.804041,-0.06378677,-0.4578301,1.79797,-0.1938624,-0.1512406,1.868391,0.2570337,-0.2167876,1.914738,NA,NA,NotTracked,NotTracked,
0.9604492,-0.1171875,-0.1030273,1.04248,0.2299805,-0.2446289,-2,-3,-25,-17,-16,-3,-1,-4,1,-1,0,-1,-1,-2,0,0,-7.1875,-7.1875,-7.1875,50.5,50.5,50.5,1.194996,2.882262,7.106082,7.620751,3.206387,0.8008931,-0.1886114,-0.4661722,1.734508,0.2499499,-0.4802483,1.749611,0.02605683,0.3099642,1.781507,-0.223636,-0.4943733,1.763,0.2188002,-0.4585195,1.704092,0.02141721,-0.1545,1.8302,0.009379074,-0.4689065,1.838107,-0.1199323,0.06590732,1.804083,-0.06377866,-0.4574153,1.797727,-0.1951381,-0.1519152,1.867775,0.2525389,-0.2217831,1.910411,NA,NA,NotTracked,NotTracked,
