ALX,ALY,ALZ,ARX,ARY,ARZ,EMG0L,EMG1L,EMG2L,EMG3L,EMG4L,EMG5L,EMG6L,EMG7L,EMG0R,EMG1R,EMG2R,EMG3R,EMG4R,EMG5R,EMG6R,EMG7R,GLX,GLY,GLZ,GRX,GRY,GRZ,ORL,OPL,OYL,ORR,OPR,OYR,LHNX,LHNY,LHNZ,RHNX,RHNY,RHNZ,HX,HY,HZ,LTX,LTY,LTZ,RTX,RTY,RTZ,SpineMidX,SpineMidY,SpineMidZ,SpineBaseX,SpineBaseY,SpineBaseZ,ShoulderLeftX,ShoulderLeftY,ShoulderLeftZ,ShoulderRightX,ShoulderRightY,ShoulderRightZ,ElbowLeftX,ElbowLeftY,ElbowLeftZ,ElbowRightX,ElbowRightY,ElbowRightZ,Myo_Pose_left,Myo_Pose_Right,Kinect_pose_left,Kinect_pose_right
0.9711914,-0.04101563,-0.1186523,0.9082031,0.3764648,-0.03857422,-1,1,-2,-4,-8,-1,-1,-1,2,0,-2,-2,0,6,1,-1,1.125,1.125,1.125,-1.6875,-1.6875,-1.6875,0.4590483,2.71267,9.360696,7.652825,3.098166,0.9686178,-0.1998967,-0.4645605,1.746188,0.2491241,-0.4603197,1.751424,0.03232289,0.3186748,1.80115,-0.1668853,-0.4543689,1.702363,0.20718,-0.4338205,1.712923,0.02318593,-0.1466666,1.818569,0.00734474,-0.4657044,1.837084,-0.1187211,0.07010636,1.793869,-0.06493875,-0.4541008,1.79615,-0.2064261,-0.2144327,1.835257,0.2670518,-0.2125323,1.889573,NA,NA,NotTracked,NotTracked,
0.9916992,-0.05273438,-0.1401367,0.8911133,0.3598633,-0.04296875,0,-1,-2,2,4,0,0,1,0,0,-2,-1,-1,7,2,0,0.375,0.375,0.375,-2.0625,-2.0625,-2.0625,0.5245997,2.717234,9.298411,7.652264,3.103981,0.9665869,-0.1990437,-0.4632646,1.746307,0.2481193,-0.4809628,1.748771,0.03149283,0.3193178,1.802058,-0.1665785,-0.459424,1.698929,0.2114668,-0.4731354,1.692804,0.02265098,-0.1464573,1.819203,0.007167615,-0.465688,1.837219,-0.1189814,0.07007812,1.794389,-0.06511797,-0.4541239,1.796376,-0.2067875,-0.2143053,1.836319,0.2667902,-0.212545,1.890158,NA,NA,NotTracked,NotTracked,
0.9785156,-0.04101563,-0.1357422,0.8945313,0.3618164,-0.04101563,0,-1,-1,-9,-40,-3,-1,0,-1,-1,0,2,1,7,1,-1,-0.75,-0.75,-0.75,1.3125,1.3125,1.3125,0.5513864,2.720015,9.270475,7.657018,3.107525,0.9629753,-0.1990198,-0.4648532,1.745259,0.2479787,-0.4765989,1.749571,0.0308362,0.3201533,1.803122,-0.1670845,-0.4571573,1.700745,0.2150556,-0.4722858,1.694291,0.02215673,-0.1462252,1.819822,0.00708027,-0.4656579,1.837328,-0.1191632,0.07001579,1.79488,-0.06522026,-0.4541266,1.796539,-0.20655,-0.2143891,1.837288,0.2666502,-0.2123778,1.891507,NA,NA,NotTracked,NotTracked,
0.9941406,-0.04199219,-0.1181641,0.9003906,0.3598633,-0.04052734,-1,-3,0,-2,-6,-1,-1,0,-2,-2,0,0,5,4,1,-1,-3.9375,-3.9375,-3.9375,2.625,2.625,2.625,0.5641384,2.721834,9.252493,7.658956,3.109377,0.9628099,-0.1988597,-0.4664451,1.74237,0.2498617,-0.4622546,1.750637,0.03050024,0.3205833,1.803677,-0.1658507,-0.4598219,1.699212,0.2087943,-0.445583,1.709488,0.02179653,-0.1460809,1.820287,0.006982829,-0.4656381,1.83737,-0.1193622,0.06995947,1.795375,-0.06534757,-0.454144,1.796706,-0.2067395,-0.2143922,1.838018,0.2663371,-0.2121229,1.892143,NA,NA,NotTracked,NotTracked,
0.9819336,-0.05175781,-0.112793,0.9106445,0.3696289,-0.03271484,-3,-2,-2,-3,-10,-1,1,0,-1,-2,-2,0,1,-5,-1,0,-1.0625,-1.0625,-1.0625,1.875,1.875,1.875,0.585699,2.722848,9.227598,7.660576,3.110739,0.9637655,-0.2007267,-0.4662242,1.744513,0.2480759,-0.4803896,1.749327,0.03014417,0.3210006,1.804393,-0.1672284,-0.454723,1.703433,0.2145569,-0.4768967,1.692676,0.02147841,-0.1460171,1.82064,0.006980788,-0.4656218,1.837366,-0.1195257,0.06979546,1.795822,-0.06535308,-0.4541544,1.796723,-0.2066315,-0.2147026,1.838173,0.2662971,-0.2122365,1.892449,NA,NA,NotTracked,NotTracked,
0.9746094,-0.04345703,-0.1118164,0.9077148,0.3686523,-0.04150391,-2,0,-4,-4,-5,-2,-2,-1,-2,2,5,-8,2,8,2,1,1.0625,1.0625,1.0625,0.625,0.625,0.625,0.6104223,2.723007,9.200548,7.664806,3.113557,0.9613936,-0.2051197,-0.4604604,1.75217,0.2480798,-0.4769537,1.750096,0.0299124,0.3213466,1.804909,-0.171723,-0.4452554,1.710972,0.2107468,-0.4757515,1.693229,0.02102715,-0.145975,1.821146,0.00689209,-0.4656423,1.837404,-0.1197189,0.06984242,1.796394,-0.06544972,-0.4541978,1.796784,-0.206832,-0.2146796,1.838619,0.2661801,-0.2119095,1.89321,NA,NA,NotTracked,NotTracked,
0.9892578,-0.05615234,-0.1230469,0.9462891,0.3588867,-0.06396484,-1,-1,-1,-4,-3,0,0,1,-4,-3,-5,0,-4,-7,-3,-1,-0.9375,-0.9375,-0.9375,-7.375,-7.375,-7.375,0.6145673,2.723378,9.197318,7.654459,3.118289,0.9650671,-0.2044442,-0.4588746,1.752629,0.2476972,-0.4814703,1.748384,0.02962273,0.3216985,1.805663,-0.1771011,-0.4411268,1.711667,0.210887,-0.4759641,1.692225,0.02067643,-0.1458637,1.821586,0.006739025,-0.4655874,1.837463,-0.119964,0.0699109,1.796904,-0.06560737,-0.454183,1.796971,-0.2073207,-0.2144804,1.839364,0.2661557,-0.2118474,1.89348,NA,NA,NotTracked,NotTracked,
1.015625,-0.07861328,-0.1318359,1.043457,0.2768555,-0.2871094,-1,0,-1,-2,-9,-3,-2,0,13,-2,8,-16,6,1,2,6,0.875,0.875,0.875,-11,-11,-11,0.616314,2.723437,9.195578,7.657338,3.145137,0.9615078,-0.204606,-0.4586616,1.754665,0.2494132,-0.4618019,1.749373,0.02942623,0.3224536,1.806804,-0.1734169,-0.4582391,1.703846,0.2109098,-0.4617887,1.698173,0.02058866,-0.1457642,1.821937,0.006790245,-0.4655849,1.837485,-0.1200528,0.06985746,1.797194,-0.06553441,-0.4542265,1.796998,-0.2075482,-0.2144433,1.839854,0.2662567,-0.2113322,1.894325,NA,NA,NotTracked,NotTracked,
0.9936523,-0.03515625,-0.1376953,0.7563477,1.06543,0.08642578,-1,-1,0,-1,5,0,0,-2,5,-9,-7,-16,31,1,1,1,0.3125,0.3125,0.3125,55.625,55.625,55.625,0.6050386,2.72541,9.205972,7.687074,3.443114,0.9973431,-0.2002525,-0.4655289,1.743662,0.2515092,-0.4404247,1.737928,0.02931642,0.3229202,1.807722,-0.1620484,-0.4636327,1.697516,0.2167791,-0.4222033,1.706774,0.02026896,-0.1456769,1.822361,0.006585104,-0.4656459,1.837683,-0.1201412,0.06975829,1.797451,-0.06575872,-0.454315,1.797221,-0.2100896,-0.2135612,1.840975,0.2702457,-0.2027834,1.899206,NA,NA,NotTracked,NotTracked,
0.9501953,-0.008300781,-0.1245117,0.4902344,0.7011719,-0.05029297,-1,-3,-1,-2,-10,-1,-2,0,-12,-9,-2,-3,-2,-8,-16,-8,-1.75,-1.75,-1.75,38.5625,38.5625,38.5625,0.6007394,2.729122,9.21049,7.665301,3.756804,1.116321,-0.1993867,-0.4661132,1.743402,0.2521317,-0.4129438,1.718661,0.02936873,0.3231852,1.808471,-0.1647387,-0.4584566,1.701208,0.2055868,-0.3919533,1.720286,0.02024883,-0.1455814,1.822554,0.006705203,-0.4655886,1.837664,-0.1202612,0.06955704,1.797773,-0.06566189,-0.454331,1.797111,-0.2102421,-0.2137834,1.841143,0.276756,-0.1914885,1.898584,NA,NA,NotTracked,NotTracked,
0.9609375,-0.08203125,-0.109375,0.3798828,0.9350586,-0.08544922,-2,1,-1,-1,9,-1,-1,-1,11,17,10,18,8,3,-1,5,-14,-14,-14,24.875,24.875,24.875,0.5854995,2.727634,9.207393,7.676744,4.089435,1.209408,-0.2003333,-0.4625318,1.74716,0.2372797,-0.3844166,1.694411,0.02979811,0.3234865,1.809201,-0.1597965,-0.4594879,1.6998,0.1874754,-0.3736699,1.729801,0.02019117,-0.1453803,1.822932,0.006753868,-0.4655032,1.837611,-0.1203385,0.06944977,1.798052,-0.06560081,-0.454247,1.796893,-0.2133812,-0.2123193,1.843805,0.2825952,-0.1758974,1.888397,NA,NA,NotTracked,Unknown,
1.006836,-0.04638672,-0.09765625,0.07421875,0.9667969,0.015625,-1,-1,-1,-2,-1,0,-2,-4,18,2,-1,0,2,2,3,6,-4.4375,-4.4375,-4.4375,23.25,23.25,23.25,0.6439688,2.727967,9.133639,7.639124,4.543042,1.326268,-0.1995115,-0.4628975,1.745656,0.2340883,-0.2829075,1.619138,0.03074509,0.3236777,1.81014,-0.1595224,-0.4500288,1.708023,0.1998367,-0.2745773,1.6397,0.02017399,-0.1452379,1.823373,0.006755807,-0.4653874,1.837531,-0.1203666,0.06933963,1.798386,-0.0656708,-0.4540286,1.796759,-0.2126957,-0.2129067,1.843126,0.2892273,-0.1551042,1.875339,NA,NA,NotTracked,Unknown,
0.9980469,-0.07080078,-0.121582,-0.07910156,1.077148,0.03759766,0,-2,0,3,10,-3,-1,-2,15,10,7,6,0,2,-1,1,2.3125,2.3125,2.3125,16.0625,16.0625,16.0625,0.7113569,2.735994,9.067242,7.647572,4.889668,1.47252,-0.2050043,-0.4600244,1.752515,0.2030256,-0.1865185,1.573306,0.03245034,0.3239028,1.811526,-0.1751522,-0.4441262,1.70916,0.1542483,-0.2237694,1.567333,0.02086965,-0.1455106,1.825001,0.007484848,-0.4657009,1.837662,-0.1201914,0.06897566,1.79921,-0.0649218,-0.4543616,1.796794,-0.2123049,-0.2134269,1.843584,0.303312,-0.1435764,1.84863,NA,NA,NotTracked,Unknown,
0.9892578,-0.06494141,-0.1494141,-0.1582031,1.118164,0.05566406,1,1,-1,0,5,-2,0,-1,0,-2,-3,1,-3,0,-3,3,1.0625,1.0625,1.0625,10.6875,10.6875,10.6875,0.7172675,2.740951,9.062444,7.672049,5.234826,1.61935,-0.2258611,-0.4226945,1.790744,0.1604485,-0.0924244,1.546164,0.03477909,0.3241016,1.813093,-0.1765958,-0.4226188,1.75475,0.1013386,-0.1077489,1.591167,0.02166981,-0.145854,1.826982,0.007887185,-0.4657295,1.837762,-0.1199807,0.06842913,1.800188,-0.06446164,-0.4545196,1.797132,-0.2120672,-0.2139986,1.844455,0.2985438,-0.1532017,1.770052,NA,NA,NotTracked,Closed,
0.9838867,-0.03515625,-0.1459961,-0.1713867,0.9785156,0.02783203,-1,-1,-3,-3,0,-2,0,-2,-3,-2,0,3,8,-6,-4,-3,1.25,1.25,1.25,0.375,0.375,0.375,0.6922559,2.749235,9.088782,7.71112,5.546144,1.771195,-0.2004005,-0.4728276,1.740602,0.1212352,-0.005308297,1.550461,0.03743311,0.3238407,1.813847,-0.1702888,-0.479508,1.690115,0.05855889,-0.005727766,1.586,0.02223115,-0.1468612,1.828484,0.007956177,-0.4668763,1.837572,-0.1195878,0.06829137,1.80113,-0.06456424,-0.4554949,1.797219,-0.2119665,-0.2140936,1.845149,0.309512,-0.1596774,1.742895,NA,NA,NotTracked,Lasso,
0.9814453,-0.09814453,-0.1235352,-0.2646484,0.9003906,-0.06005859,-2,-2,-1,-2,-1,-1,1,-2,1,0,-1,-3,-5,-2,0,3,2.875,2.875,2.875,-13.375,-13.375,-13.375,0.697091,2.762574,9.084204,7.779436,5.860839,1.993027,-0.200133,-0.469773,1.7422,0.09781355,0.05360288,1.571762,0.04007876,0.3224152,1.814361,-0.1824907,-0.5050467,1.669714,0.03381404,0.07029884,1.609667,0.02271209,-0.1481154,1.829872,0.008949663,-0.4685119,1.837686,-0.1191705,0.06866315,1.802557,-0.06393258,-0.4571707,1.797685,-0.2113844,-0.2138986,1.846055,0.317707,-0.1721895,1.743312,NA,NA,NotTracked,Unknown,
0.9785156,-0.06445313,-0.1264648,-0.3305664,0.8012695,-0.09277344,0,-3,-3,-3,-2,0,-1,0,-8,4,0,-22,-3,0,0,-6,7.25,7.25,7.25,-21.75,-21.75,-21.75,0.710183,2.768487,9.078406,7.824763,6.013005,2.14229,-0.2002376,-0.4787992,1.737716,0.09235446,0.07852533,1.59664,0.04194875,0.3224317,1.81439,-0.1597171,-0.4509618,1.710609,0.06900606,0.06283882,1.61725,0.0219319,-0.1499948,1.828225,0.008906275,-0.4695964,1.837668,-0.1190518,0.06899296,1.804374,-0.06422169,-0.4582603,1.798278,-0.2087125,-0.1707535,1.859869,0.2892763,-0.1519618,1.699899,NA,NA,NotTracked,Lasso,
0.956543,-0.07666016,-0.1547852,-0.4501953,0.7353516,-0.144043,-3,-2,-1,0,-6,0,-1,1,1,9,4,-11,0,-2,-3,-9,11.0625,11.0625,11.0625,-32.125,-32.125,-32.125,0.741031,2.778472,9.071478,7.846883,6.109138,2.287871,-0.2003744,-0.4671652,1.745677,0.07755551,0.1039644,1.616291,0.04304608,0.3227301,1.813962,-0.1688793,-0.4416596,1.713351,0.06800744,0.07780342,1.68,0.02154247,-0.1512754,1.827143,0.009223882,-0.4700414,1.837822,-0.1188929,0.0690054,1.805979,-0.06386776,-0.4589702,1.799291,-0.2096839,-0.2128705,1.854263,0.2706118,-0.1403333,1.6778,NA,NA,NotTracked,Lasso,
0.9760742,-0.08056641,-0.1738281,-0.5581055,0.7167969,-0.1870117,-2,-3,-1,2,8,0,0,-1,-4,-3,-6,0,-3,0,-1,-2,10.4375,10.4375,10.4375,-17.875,-17.875,-17.875,0.753291,2.784142,9.071027,7.858342,6.142779,2.359408,-0.2015818,-0.4673481,1.747926,0.07354596,0.1095518,1.632243,0.04363434,0.3227347,1.813179,-0.1687256,-0.4434581,1.712914,0.0794585,0.07048415,1.709445,0.0208503,-0.1522895,1.826539,0.009146392,-0.4705021,1.83817,-0.1187634,0.06893196,1.806959,-0.06389944,-0.4597111,1.80079,-0.2049464,-0.2152217,1.851878,0.2408243,-0.1147252,1.672823,NA,NA,NotTracked,Unknown,
0.9819336,-0.07275391,-0.2006836,-0.6337891,0.7260742,-0.2011719,0,0,0,1,3,1,-1,-1,4,11,7,10,1,-2,1,2,1.3125,1.3125,1.3125,-13.625,-13.625,-13.625,0.7529702,2.792038,9.086952,7.863752,6.153838,2.40231,-0.2084154,-0.4571213,1.761203,0.07271806,0.1084177,1.645514,0.04396934,0.3211317,1.810919,-0.1819385,-0.4468747,1.71886,0.06167144,0.08480275,1.711333,0.02039189,-0.1531215,1.825935,0.008867031,-0.4710371,1.838523,-0.1187187,0.06852745,1.807549,-0.06423094,-0.4602883,1.801892,-0.2025973,-0.2169196,1.849856,0.2389227,-0.113195,1.67207,NA,NA,NotTracked,Unknown,
0.9799805,-0.07958984,-0.1777344,-0.6479492,0.6943359,-0.2480469,-2,-1,-2,-3,-9,-2,-2,-2,-11,-7,-5,4,-2,-7,-9,-9,-7.5,-7.5,-7.5,-1.25,-1.25,-1.25,0.7310071,2.793926,9.099613,7.862487,6.151586,2.408542,-0.2037073,-0.4591859,1.756482,0.07153928,0.1092775,1.654311,0.0437308,0.3201958,1.809361,-0.1693995,-0.4388167,1.718484,0.06510394,0.07798942,1.719118,0.02039615,-0.1534297,1.825618,0.009027092,-0.4711635,1.838686,-0.1187486,0.06866425,1.807987,-0.06410237,-0.4604262,1.802457,-0.2038718,-0.2160656,1.851797,0.2379449,-0.1134436,1.671865,NA,NA,NotTracked,Unknown,
0.9755859,-0.08251953,-0.1435547,-0.6699219,0.6831055,-0.2949219,-1,0,-1,-1,1,0,-1,1,-8,-5,-3,-1,-1,0,-2,-10,-7.5,-7.5,-7.5,15.75,15.75,15.75,0.720934,2.791671,9.097721,7.874029,6.139195,2.389021,-0.2037558,-0.4618536,1.751311,0.0714483,0.1080575,1.656942,0.04314231,0.3190927,1.807677,-0.1712401,-0.4408772,1.715932,0.0454758,0.09690797,1.718333,0.02024812,-0.1538708,1.825296,0.009021036,-0.4713218,1.838697,-0.1187971,0.06844058,1.808158,-0.06404961,-0.4606111,1.802594,-0.2051131,-0.2158735,1.852199,0.2364172,-0.1150242,1.671673,NA,NA,NotTracked,Unknown,
0.96875,-0.07275391,-0.1293945,-0.7060547,0.8032227,-0.3144531,1,-1,-1,0,-3,-1,-2,-1,12,8,0,1,0,3,6,6,-5.5625,-5.5625,-5.5625,48,48,48,0.7161021,2.787689,9.091276,7.904269,6.136409,2.32179,-0.1966673,-0.5106016,1.712885,0.07654359,0.1109222,1.651075,0.04216439,0.318671,1.806447,-0.1632082,-0.479651,1.68255,0.05677264,0.089951,1.71971,0.01969796,-0.1543517,1.82496,0.008811128,-0.4719176,1.838943,-0.1188563,0.06813104,1.808294,-0.06421567,-0.4612407,1.803172,-0.205459,-0.2162659,1.851599,0.2362612,-0.115054,1.672285,NA,NA,NotTracked,Unknown,
0.9882813,-0.05224609,-0.140625,-0.8041992,0.8339844,-0.2294922,-1,-2,-1,3,3,-2,-1,0,-9,-5,-1,0,-1,-3,-3,-1,-2.75,-2.75,-2.75,53.1875,53.1875,53.1875,0.7122752,2.780565,9.088392,7.922683,6.152527,2.218821,-0.2291838,-0.4451056,1.785362,0.09475318,0.126863,1.634765,0.04047257,0.3180766,1.805189,-0.2198743,-0.4537357,1.723418,0.1006413,0.06044887,1.726417,0.01833952,-0.1554281,1.825035,0.006800385,-0.4725597,1.83784,-0.1189479,0.06785361,1.808383,-0.06568944,-0.4614332,1.802594,-0.2058304,-0.2165905,1.851113,0.2380292,-0.1146773,1.672354,NA,NA,NotTracked,Lasso,
0.9770508,-0.1000977,-0.1489258,-0.828125,0.7236328,-0.1821289,-1,-2,-2,-1,2,-3,-1,0,7,8,5,2,-1,4,0,0,-5.75,-5.75,-5.75,75.125,75.125,75.125,0.7239321,2.774096,9.067295,8.006672,6.311719,2.123325,-0.2203978,-0.4596225,1.764699,0.1266234,0.1450545,1.632668,0.03786501,0.3169925,1.804391,-0.202748,-0.4589971,1.719134,0.1012825,0.1292236,1.656333,0.01954057,-0.1555901,1.827116,0.006754491,-0.4724891,1.837971,-0.1188654,0.06749924,1.808315,-0.06595992,-0.4612745,1.802659,-0.2067787,-0.2165734,1.851268,0.2469806,-0.1122848,1.668095,NA,NA,NotTracked,Lasso,
0.9707031,-0.08056641,-0.1494141,-0.7368164,0.5874023,-0.1254883,-2,-1,0,1,6,-1,-2,1,-2,-5,-2,9,1,3,6,0,-4.375,-4.375,-4.375,68.25,68.25,68.25,0.7310436,2.772901,9.052576,8.12942,6.453946,2.138617,-0.20597,-0.4535273,1.760025,0.1483208,0.1578575,1.648569,0.03586912,0.3156082,1.803745,-0.1690539,-0.4382007,1.721347,0.1295139,0.1376812,1.67875,0.02317107,-0.1539286,1.831317,0.006919628,-0.4721282,1.838528,-0.1185959,0.0669852,1.80811,-0.06599392,-0.4609969,1.802655,-0.2069988,-0.2168475,1.85142,0.26285,-0.1033808,1.657035,NA,NA,NotTracked,Unknown,
0.9755859,-0.06640625,-0.1240234,-0.737793,0.4287109,-0.1499023,1,0,-1,2,0,-1,-2,0,8,7,6,-1,-1,5,17,6,-8.125,-8.125,-8.125,43.4375,43.4375,43.4375,0.7093905,2.771557,9.062018,8.361355,6.5638,2.286569,-0.2025612,-0.4607835,1.750536,0.1582085,0.1639502,1.66614,0.03487303,0.3141858,1.803241,-0.1661129,-0.4495116,1.71091,0.1805374,0.08233957,1.741333,0.02579636,-0.152841,1.83384,0.007360617,-0.4717585,1.838931,-0.1182566,0.06652595,1.807897,-0.0658721,-0.4606191,1.802434,-0.2082482,-0.2167181,1.85151,0.2799175,-0.09154341,1.645293,NA,NA,NotTracked,Closed,
0.9921875,-0.06005859,-0.121582,-0.8007813,0.3823242,-0.2021484,-3,-1,0,0,1,-2,-1,-2,-3,-3,-3,0,-5,-1,15,-1,-2.75,-2.75,-2.75,17.9375,17.9375,17.9375,0.7007842,2.767977,9.061323,8.499516,6.573736,2.406055,-0.2041142,-0.4616108,1.751223,0.1394739,0.1858055,1.687025,0.03341451,0.3119668,1.802398,-0.1739022,-0.4436796,1.711982,0.1259156,0.1592389,1.718884,0.02789664,-0.152343,1.834989,0.007821024,-0.4715771,1.839111,-0.117927,0.06582838,1.807609,-0.06565665,-0.460381,1.802091,-0.2089374,-0.2170452,1.851364,0.2883927,-0.08155151,1.639113,NA,NA,NotTracked,Closed,
0.9926758,-0.06982422,-0.1430664,-0.8432617,0.3735352,-0.2597656,-3,1,0,2,4,0,-1,-3,-4,-2,-1,-2,-1,0,9,-2,-0.25,-0.25,-0.25,-5.6875,-5.6875,-5.6875,0.7042217,2.765777,9.055656,8.542256,6.552306,2.460595,-0.1993752,-0.4634205,1.746164,0.1294489,0.189622,1.694525,0.03252919,0.3106742,1.801708,-0.1655328,-0.4518489,1.706184,0.1138278,0.1614239,1.729778,0.02866486,-0.1520553,1.835273,0.007976325,-0.4714444,1.83921,-0.1177827,0.06528331,1.807326,-0.0656332,-0.4601066,1.801861,-0.2091913,-0.2174676,1.851025,0.2930823,-0.07539624,1.635498,NA,NA,NotTracked,Unknown,
0.9882813,-0.05664063,-0.1606445,-0.8583984,0.4267578,-0.3598633,-1,-2,-1,-1,16,0,1,-2,4,1,-3,0,1,-1,-3,-4,2.625,2.625,2.625,-2.25,-2.25,-2.25,0.6981502,2.76589,9.065104,8.550663,6.551203,2.479144,-0.1999818,-0.4659361,1.746341,0.1272645,0.1889505,1.694482,0.03170612,0.3090276,1.801211,-0.1663481,-0.4575935,1.70356,0.1184835,0.1579182,1.722949,0.02941984,-0.1518355,1.835704,0.008602007,-0.4712751,1.839637,-0.1176785,0.06510664,1.807282,-0.06540179,-0.4599715,1.801934,-0.2093332,-0.2175418,1.851066,0.2951843,-0.07284833,1.633781,NA,NA,NotTracked,Unknown,
0.9931641,-0.07519531,-0.152832,-0.8276367,0.4345703,-0.4018555,0,-2,-3,-2,-1,-1,-3,0,-3,-3,-5,-4,0,0,3,-1,0.125,0.125,0.125,-1.1875,-1.1875,-1.1875,0.6858338,2.767314,9.078822,8.575638,6.553642,2.509585,-0.1991864,-0.4659979,1.744532,0.1222586,0.1913943,1.694869,0.03101543,0.308302,1.800887,-0.1653374,-0.4600613,1.70108,0.1151628,0.1548094,1.718206,0.02969566,-0.1518737,1.835814,0.009071042,-0.4712985,1.839811,-0.1176252,0.0649472,1.807255,-0.06516284,-0.4599907,1.801966,-0.209907,-0.2174061,1.851408,0.2958797,-0.07234814,1.633043,NA,NA,NotTracked,Unknown,
0.9663086,-0.0625,-0.1455078,-0.7519531,0.4267578,-0.3974609,-2,-2,-1,-3,-4,-1,0,-2,-7,1,-1,0,0,0,6,-7,0.8125,0.8125,0.8125,8.125,8.125,8.125,0.6761339,2.768548,9.090633,8.590079,6.551219,2.515037,-0.1993795,-0.4662137,1.743517,0.1256972,0.1898419,1.693629,0.03057414,0.3077484,1.800397,-0.1653429,-0.470846,1.689428,0.1192377,0.1499874,1.712846,0.0299036,-0.1518663,1.835839,0.009195153,-0.4712806,1.839833,-0.1175671,0.06478606,1.807138,-0.06513477,-0.4599652,1.801938,-0.2101077,-0.2175079,1.85117,0.2962798,-0.07084529,1.63122,NA,NA,NotTracked,Unknown,
0.9682617,-0.05712891,-0.1411133,-0.5732422,0.440918,-0.3496094,-1,-1,-1,-1,-7,-2,-2,0,-1,1,-1,0,1,-1,1,0,0.5,0.5,0.5,16.875,16.875,16.875,0.6741466,2.768296,9.092587,8.569397,6.533696,2.459585,-0.2052106,-0.4610815,1.752846,0.1286046,0.1907966,1.692092,0.03043646,0.3075946,1.80024,-0.1735205,-0.441672,1.715225,0.1163453,0.156672,1.719342,0.03003432,-0.1517725,1.835929,0.009208908,-0.47128,1.839902,-0.1175371,0.06468073,1.807072,-0.0651782,-0.4599406,1.801911,-0.2100469,-0.2175812,1.851282,0.2965713,-0.07067326,1.631066,NA,NA,NotTracked,Unknown,
0.9736328,-0.06591797,-0.1337891,-0.5014648,0.5356445,-0.3276367,-2,0,-1,0,2,0,0,1,-5,-5,-6,-2,-2,2,3,1,0.5625,0.5625,0.5625,14.4375,14.4375,14.4375,0.6917964,2.764619,9.075982,8.446232,6.419008,2.264832,-0.2315019,-0.4416583,1.794613,0.1340507,0.1880595,1.688105,0.02991535,0.3074203,1.799737,-0.2223765,-0.4481011,1.735375,0.1191801,0.1555879,1.716793,0.0302274,-0.1516923,1.836029,0.009280552,-0.4712493,1.840003,-0.1174989,0.06449514,1.806886,-0.065161,-0.4598849,1.801918,-0.2104195,-0.2176226,1.851119,0.2992332,-0.07206315,1.633538,NA,NA,NotTracked,Unknown,
0.9873047,-0.05664063,-0.1333008,-0.4980469,0.6621094,-0.2485352,0,0,1,2,-4,0,-1,-1,-1,2,2,-1,0,-2,0,0,6.375,6.375,6.375,4.75,4.75,4.75,0.7357053,2.762173,9.038736,8.287968,6.244947,2.036627,-0.2009243,-0.4641537,1.746488,0.1526334,0.1654129,1.667521,0.02774309,0.3083779,1.798554,-0.1613044,-0.4455279,1.714205,0.1384557,0.127015,1.691333,0.0301736,-0.1516018,1.836123,0.009664952,-0.4711058,1.840191,-0.1175519,0.06439973,1.806705,-0.06485569,-0.459828,1.801819,-0.2117554,-0.2176662,1.849283,0.3107695,-0.08634595,1.654276,NA,NA,NotTracked,Unknown,
0.9858398,-0.06103516,-0.1352539,-0.4780273,0.8925781,-0.1503906,-1,0,-2,-5,-13,-2,-2,-1,1,8,5,0,0,-1,0,-1,4.625,4.625,4.625,-14.9375,-14.9375,-14.9375,0.7589594,2.760038,9.020881,8.055791,5.853204,1.700399,-0.2009763,-0.4655441,1.74774,0.1731668,0.1257044,1.629452,0.0235197,0.3106629,1.796503,-0.1714672,-0.482981,1.68875,0.1467494,0.1029566,1.66465,0.02754749,-0.152126,1.8337,0.009896705,-0.4710922,1.840125,-0.1178536,0.06419306,1.806369,-0.0645466,-0.4598982,1.801303,-0.2119614,-0.2178609,1.849113,0.3186825,-0.1000005,1.676797,NA,NA,NotTracked,Lasso,
0.9794922,-0.08105469,-0.1416016,-0.3505859,1.157715,-0.07666016,-2,-1,-2,1,0,-2,1,-2,-1,5,-1,-3,0,-1,0,-1,3.0625,3.0625,3.0625,-23.375,-23.375,-23.375,0.7982992,2.752361,8.992403,7.921922,5.459631,1.46273,-0.2038779,-0.4621591,1.752626,0.1963794,0.05935764,1.585164,0.02031792,0.311635,1.794936,-0.1627091,-0.4370348,1.722838,0.1668299,0.054913,1.624905,0.02472036,-0.1534286,1.833409,0.009585258,-0.4725314,1.839695,-0.118518,0.06423823,1.805923,-0.06467182,-0.4612276,1.800115,-0.2122647,-0.2178823,1.848904,0.3276055,-0.1287932,1.734229,NA,NA,NotTracked,Unknown,
0.9873047,-0.08300781,-0.1181641,-0.2207031,1.020508,-0.1166992,1,-1,2,2,-4,1,-1,-1,-1,-3,-1,-1,2,0,-1,-1,3.4375,3.4375,3.4375,-21.875,-21.875,-21.875,0.8330409,2.74659,8.966192,7.841443,5.086521,1.257113,-0.2115645,-0.4588118,1.760325,0.2252029,-0.02926443,1.548704,0.01778119,0.3124419,1.793085,-0.1824989,-0.4463956,1.715804,0.1817857,-0.0315203,1.553555,0.02307462,-0.1536197,1.832509,0.009636823,-0.4725375,1.839535,-0.1194701,0.06485435,1.805286,-0.06452736,-0.4613447,1.799706,-0.2123585,-0.2174538,1.848732,0.3296599,-0.1483136,1.755669,NA,NA,NotTracked,Closed,
0.9882813,-0.09277344,-0.1171875,0.05957031,1.172363,-0.09619141,-1,-2,-2,-7,-15,-5,-2,-1,-2,-5,-2,-3,-1,0,-4,-3,3.5625,3.5625,3.5625,18.75,18.75,18.75,0.8579546,2.74271,8.944548,7.855566,4.651185,1.117304,-0.2119123,-0.4581524,1.759099,0.2483471,-0.1383577,1.544275,0.01566599,0.3133701,1.790383,-0.181532,-0.4400687,1.718672,0.2440081,-0.1078194,1.525094,0.02119666,-0.1532029,1.830823,0.009690399,-0.4720015,1.839174,-0.1203868,0.06529309,1.804392,-0.06408911,-0.4608931,1.799055,-0.2125679,-0.2171628,1.848233,0.3278872,-0.1211963,1.830729,NA,NA,NotTracked,Unknown,
0.9814453,-0.08203125,-0.1367188,0.2392578,0.8867188,-0.2358398,-2,0,-3,1,-3,-1,1,2,-2,-1,1,-5,-3,-1,-1,-1,2.0625,2.0625,2.0625,8.25,8.25,8.25,0.8933118,2.736996,8.913866,7.891245,4.312089,1.098259,-0.2113757,-0.459338,1.762244,0.2761878,-0.2375505,1.596338,0.01470094,0.314408,1.788746,-0.1794368,-0.4407516,1.719057,0.2495557,-0.2087069,1.580286,0.02025203,-0.1530024,1.829685,0.009873778,-0.4717488,1.83905,-0.1211341,0.06575865,1.803322,-0.06352397,-0.4606096,1.798609,-0.2127838,-0.2167457,1.847752,0.3326015,-0.09628843,1.885517,NA,NA,NotTracked,Closed,
0.9916992,-0.06103516,-0.1264648,0.4399414,1.010254,-0.2158203,1,-1,-1,1,9,-1,-1,-1,-2,-3,-2,-9,-4,-13,-3,-3,-7.25,-7.25,-7.25,13.1875,13.1875,13.1875,0.8825553,2.722382,8.91226,7.952945,3.995937,1.043327,-0.2143954,-0.4589686,1.762471,0.2883157,-0.3178423,1.649913,0.01482551,0.3159359,1.786363,-0.1868438,-0.4463985,1.717958,0.2418646,-0.3495643,1.685444,0.01913086,-0.152552,1.82732,0.01031094,-0.4712869,1.838447,-0.1216871,0.06577301,1.801635,-0.0629842,-0.4602531,1.797596,-0.2173169,-0.2162797,1.842152,0.3062178,-0.1368509,1.87198,NA,NA,NotTracked,Unknown,
1.002441,-0.06835938,-0.1035156,0.6000977,0.8056641,-0.08740234,1,0,-3,-1,6,-1,-2,0,7,6,-4,1,2,1,-1,1,-10.125,-10.125,-10.125,-18.375,-18.375,-18.375,0.8619479,2.711528,8.917852,7.970672,3.720772,0.9702843,-0.2173542,-0.4623206,1.764189,0.2808449,-0.3699006,1.704304,0.01583846,0.3169376,1.784638,-0.1969724,-0.4705323,1.714218,0.2219243,-0.3982509,1.7445,0.01749058,-0.1519417,1.825249,0.01007096,-0.4709644,1.838247,-0.1221595,0.06591789,1.80021,-0.06319153,-0.4599344,1.797202,-0.2172843,-0.216071,1.841816,0.3045956,-0.1442049,1.887481,NA,NA,NotTracked,Unknown,
0.9858398,-0.05273438,-0.08203125,0.6699219,0.7421875,-0.1240234,-1,0,-1,-1,-5,-2,-1,-1,7,-6,-8,-3,-3,-6,-34,-2,-8.875,-8.875,-8.875,-34.875,-34.875,-34.875,0.845211,2.699803,8.918225,7.961025,3.465653,0.8983999,-0.2172425,-0.4599578,1.764294,0.2687455,-0.3979979,1.731538,0.0173141,0.3175384,1.783137,-0.1961811,-0.4691174,1.712513,0.2002816,-0.3987708,1.709286,0.01678267,-0.1512765,1.82321,0.01018996,-0.4704157,1.837869,-0.122547,0.06621142,1.798471,-0.06302728,-0.4594775,1.796438,-0.2180166,-0.2153974,1.841265,0.3012016,-0.1544047,1.899414,NA,NA,NotTracked,Unknown,
0.9853516,-0.05419922,-0.07568359,0.7260742,0.6894531,-0.03857422,-2,-2,1,-1,-7,-2,0,1,-6,-4,-2,-1,-2,0,-4,-24,-9.1875,-9.1875,-9.1875,-36.375,-36.375,-36.375,0.8248426,2.687783,8.923162,7.859663,3.353715,0.9324768,-0.2170166,-0.4611303,1.762076,0.2573076,-0.411403,1.739455,0.01976664,0.3187584,1.781451,-0.1970574,-0.5131838,1.71725,0.19418,-0.38434,1.722,0.01629236,-0.1506186,1.8217,0.01011466,-0.4699376,1.837706,-0.1227462,0.06642903,1.79706,-0.06305094,-0.4591162,1.796078,-0.2179168,-0.2152569,1.839994,0.2947013,-0.1649624,1.907825,NA,NA,NotTracked,NotTracked,
1,-0.08007813,-0.08007813,0.6801758,0.6303711,-0.01025391,0,-1,-3,-2,6,1,-1,-2,1,-2,-4,-2,9,2,7,1,-6.25,-6.25,-6.25,-26.5625,-26.5625,-26.5625,0.8096971,2.677154,8.92446,7.639783,3.284987,1.11573,-0.2171506,-0.4624915,1.76159,0.2474228,-0.4695626,1.739281,0.02225785,0.3194017,1.780687,-0.1990877,-0.469033,1.71439,0.2012636,-0.505017,1.6976,0.01616921,-0.1503643,1.820452,0.009890653,-0.4696741,1.837384,-0.1226911,0.06658418,1.795637,-0.06318863,-0.4588896,1.795622,-0.2185543,-0.2148,1.838873,0.2841497,-0.1798046,1.910249,NA,NA,NotTracked,NotTracked,
