ALX,ALY,ALZ,ARX,ARY,ARZ,EMG0L,EMG1L,EMG2L,EMG3L,EMG4L,EMG5L,EMG6L,EMG7L,EMG0R,EMG1R,EMG2R,EMG3R,EMG4R,EMG5R,EMG6R,EMG7R,GLX,GLY,GLZ,GRX,GRY,GRZ,ORL,OPL,OYL,ORR,OPR,OYR,LHNX,LHNY,LHNZ,RHNX,RHNY,RHNZ,HX,HY,HZ,LTX,LTY,LTZ,RTX,RTY,RTZ,SpineMidX,SpineMidY,SpineMidZ,SpineBaseX,SpineBaseY,SpineBaseZ,ShoulderLeftX,ShoulderLeftY,ShoulderLeftZ,ShoulderRightX,ShoulderRightY,ShoulderRightZ,ElbowLeftX,ElbowLeftY,ElbowLeftZ,ElbowRightX,ElbowRightY,ElbowRightZ,Myo_Pose_left,Myo_Pose_Right,Kinect_pose_left,Kinect_pose_right
0.9882813,-0.125,-0.09472656,0.8911133,0.3959961,-0.01367188,-1,-1,-1,-21,-13,-1,-1,-1,0,0,0,-1,4,4,5,1,0.25,0.25,0.25,0.375,0.375,0.375,1.438968,2.743505,7.856985,7.551409,3.158799,0.85118,-0.1806577,-0.3442009,1.665728,0.2429393,-0.3492772,1.657491,0.04461481,0.4364184,1.717144,-0.1408937,-0.3342423,1.62543,0.2044722,-0.3303159,1.624569,0.03300109,-0.03788181,1.736772,0.0311385,-0.3626438,1.726343,-0.1407717,0.1661954,1.715274,-0.0492286,-0.3545567,1.685768,-0.2142287,-0.09292167,1.741727,0.2735451,-0.09971081,1.80563,NA,NA,NotTracked,NotTracked,
0.9824219,-0.1245117,-0.09765625,0.8891602,0.3891602,-0.01855469,1,-1,-1,1,-2,-1,-2,-1,-3,-2,0,-2,-3,-1,-13,-22,0.375,0.375,0.375,0.1875,0.1875,0.1875,1.439527,2.743764,7.856534,7.552055,3.15887,0.8505682,-0.1799674,-0.3445018,1.665533,0.2438373,-0.349588,1.65947,0.04460157,0.4364133,1.717145,-0.1404904,-0.335842,1.625104,0.2045409,-0.3200127,1.630857,0.03299083,-0.03790093,1.736757,0.03113438,-0.3626894,1.726274,-0.1407243,0.166069,1.715229,-0.04925191,-0.3546103,1.685654,-0.2141554,-0.0929919,1.741713,0.2735914,-0.09982326,1.805591,NA,NA,NotTracked,NotTracked,
0.9838867,-0.1240234,-0.09912109,0.8911133,0.3930664,-0.01757813,-1,1,-1,-7,-3,-1,-1,-2,-1,-1,1,0,-3,0,-4,-11,0.625,0.625,0.625,0.0625,0.0625,0.0625,1.439527,2.743764,7.856534,7.553182,3.158549,0.8502104,-0.1793199,-0.3419871,1.667329,0.2439129,-0.3495254,1.659235,0.04454405,0.4363957,1.717138,-0.1356247,-0.3389258,1.621001,0.2052656,-0.3218553,1.627344,0.03307428,-0.03793747,1.736779,0.03137656,-0.362711,1.726258,-0.1407506,0.1659985,1.715234,-0.04902105,-0.3546631,1.685674,-0.2142888,-0.09337002,1.741742,0.2736775,-0.09978028,1.805585,NA,NA,NotTracked,NotTracked,
0.980957,-0.125,-0.09619141,0.8930664,0.3886719,-0.01660156,-1,-1,0,21,8,2,1,-1,0,-1,-2,-1,-3,-2,-3,-7,0.3125,0.3125,0.3125,0.25,0.25,0.25,1.439642,2.74363,7.856334,7.554049,3.1585,0.8493194,-0.1795587,-0.3442214,1.664514,0.2467031,-0.3533511,1.653173,0.04446664,0.4363942,1.717006,-0.1401855,-0.3358703,1.623737,0.215628,-0.3461015,1.616485,0.03309344,-0.03791475,1.736657,0.03140761,-0.3626769,1.726179,-0.1407719,0.1660292,1.715141,-0.04898558,-0.354633,1.68563,-0.2143133,-0.09339836,1.74144,0.2737605,-0.09966196,1.805275,NA,NA,NotTracked,NotTracked,
0.9833984,-0.1196289,-0.09521484,0.8916016,0.3920898,-0.01464844,-2,2,1,17,6,-2,0,-3,-5,-1,1,-2,0,-5,-4,-20,0.5,0.5,0.5,-0.625,-0.625,-0.625,1.439583,2.74383,7.857091,7.554049,3.1585,0.8493194,-0.1793101,-0.3446656,1.664022,0.2412615,-0.3521438,1.653623,0.04440666,0.4363455,1.716905,-0.1400054,-0.3355229,1.62437,0.2027695,-0.3210701,1.625409,0.03305939,-0.03790457,1.736545,0.03139166,-0.3626489,1.726071,-0.1407997,0.1661115,1.715069,-0.04901467,-0.3546021,1.68552,-0.2141629,-0.09338053,1.741213,0.2738112,-0.09971219,1.805186,NA,NA,NotTracked,NotTracked,
0.9819336,-0.1245117,-0.09570313,0.8974609,0.3916016,-0.02392578,-2,5,-2,-5,-5,-2,0,-2,1,-1,-1,-1,-4,-2,2,7,-0.3125,-0.3125,-0.3125,-0.8125,-0.8125,-0.8125,1.441759,2.744799,7.854739,7.55471,3.158343,0.8489017,-0.1790574,-0.3446005,1.66511,0.2481802,-0.3532161,1.654464,0.04426284,0.4362425,1.716522,-0.1392274,-0.3360562,1.623971,0.2195061,-0.3476914,1.616753,0.03306603,-0.03796914,1.736414,0.03141119,-0.3627045,1.725959,-0.1408257,0.1660301,1.714901,-0.04898155,-0.3546661,1.685427,-0.2140972,-0.09348704,1.741076,0.2738563,-0.09970539,1.804916,NA,NA,NotTracked,NotTracked,
0.9799805,-0.1206055,-0.09619141,0.887207,0.3886719,-0.02294922,-1,-2,-1,-1,1,-1,-1,-3,0,-1,0,1,-1,2,-2,0,-0.1875,-0.1875,-0.1875,-1,-1,-1,1.441759,2.744799,7.854739,7.554395,3.1592,0.8477848,-0.1797138,-0.3459035,1.66591,0.2430231,-0.3558483,1.652743,0.04422071,0.4361567,1.716344,-0.1395105,-0.3361417,1.624218,0.2063249,-0.3377087,1.622929,0.0330307,-0.03801964,1.73631,0.03140127,-0.3627253,1.725887,-0.1408613,0.1659917,1.714835,-0.04898687,-0.3546957,1.685327,-0.2141165,-0.0935335,1.7409,0.2738793,-0.09979729,1.80479,NA,NA,NotTracked,NotTracked,
0.9799805,-0.1147461,-0.09179688,0.9418945,0.3793945,-0.06298828,-1,-8,-8,-19,-8,-1,-5,-5,-4,-5,-4,0,5,0,-5,-5,0.0625,0.0625,0.0625,-6.625,-6.625,-6.625,1.441759,2.744799,7.854739,7.545792,3.163163,0.8503354,-0.17949,-0.3446288,1.664423,0.243009,-0.3556054,1.650984,0.04412976,0.4360158,1.715831,-0.139283,-0.3342218,1.624703,0.2076222,-0.33435,1.622372,0.03302094,-0.0380726,1.736063,0.03151304,-0.3628059,1.725665,-0.1409473,0.1658074,1.71452,-0.04890914,-0.354816,1.685091,-0.214067,-0.09347726,1.740818,0.2739958,-0.09963734,1.804599,NA,NA,NotTracked,NotTracked,
0.9799805,-0.1147461,-0.09179688,0.9780273,0.4482422,-0.1313477,-1,12,3,16,5,-1,-1,0,-14,-20,-4,-11,0,-4,-5,-6,0.0625,0.0625,0.0625,-3.0625,-3.0625,-3.0625,1.441759,2.744799,7.854739,7.543656,3.215593,0.8567826,-0.1794087,-0.3441321,1.664458,0.2472956,-0.3515596,1.650092,0.04410782,0.4359531,1.715499,-0.1394184,-0.3350786,1.624841,0.2125053,-0.3412984,1.619432,0.03299963,-0.03807686,1.735908,0.03150018,-0.3628127,1.72552,-0.14097,0.1657601,1.714336,-0.04892549,-0.3548026,1.684955,-0.2140504,-0.09342217,1.740671,0.2743109,-0.09930196,1.804675,NA,NA,NotTracked,NotTracked,
1.002441,-0.1108398,-0.1108398,0.8500977,0.730957,-0.1386719,-4,-12,-2,-3,-1,-2,-2,-2,19,-10,-2,3,3,3,4,7,7.4375,7.4375,7.4375,24.125,24.125,24.125,1.465684,2.754137,7.840349,7.593065,3.396248,0.8099367,-0.1792157,-0.3441194,1.662616,0.2465121,-0.3419853,1.640685,0.04406987,0.4359522,1.715117,-0.1397244,-0.3355982,1.623959,0.2103121,-0.310659,1.624566,0.03299167,-0.03811208,1.735692,0.03147396,-0.3628239,1.725363,-0.1408917,0.1658458,1.713765,-0.04895563,-0.3547837,1.684752,-0.2140181,-0.09329172,1.740474,0.2778277,-0.09634391,1.805726,NA,NA,NotTracked,NotTracked,
1.002441,-0.1108398,-0.1108398,0.6801758,0.9736328,-0.2431641,-1,0,0,2,-2,-2,-1,-1,-4,-17,-10,-9,2,-1,0,-5,7.4375,7.4375,7.4375,27.375,27.375,27.375,1.465684,2.754137,7.840349,7.690501,3.659963,0.7241725,-0.1792524,-0.3435182,1.661076,0.2536262,-0.3086712,1.634067,0.04415537,0.4358363,1.714759,-0.1397444,-0.3356077,1.624014,0.1902376,-0.2753302,1.620552,0.03290574,-0.03816153,1.735446,0.03143406,-0.3628423,1.725054,-0.1410259,0.1658784,1.7132,-0.04901098,-0.3547763,1.684327,-0.2145131,-0.09306976,1.739899,0.2878897,-0.07907154,1.8103,NA,NA,NotTracked,NotTracked,
0.9614258,-0.1318359,-0.1298828,0.581543,0.9833984,-0.3144531,-3,2,-1,13,0,-1,0,0,-24,-8,-4,-4,-3,-2,-3,0,-1.625,-1.625,-1.625,23.375,23.375,23.375,1.49383,2.780015,7.814236,7.818636,4.18139,0.6022589,-0.1808451,-0.3435117,1.660038,0.2925828,-0.2330949,1.596513,0.04429351,0.4355936,1.714479,-0.1398116,-0.3339734,1.624672,0.2422184,-0.2443997,1.6225,0.03281684,-0.03817444,1.735508,0.03141149,-0.3627797,1.725046,-0.1411145,0.1658109,1.71267,-0.04902226,-0.3546481,1.684084,-0.2152546,-0.09259832,1.739416,0.2990932,-0.0506007,1.812442,NA,NA,NotTracked,Lasso,
0.949707,-0.1518555,-0.1245117,0.007324219,1.291016,-0.09716797,-1,-4,-2,-4,-1,-1,-1,-1,11,0,-6,3,0,-5,5,2,-10.4375,-10.4375,-10.4375,74.3125,74.3125,74.3125,1.514628,2.791405,7.781066,7.917458,4.657969,0.5640244,-0.1816441,-0.3421365,1.658616,0.3016388,-0.124045,1.520607,0.04454901,0.4351398,1.714336,-0.1399412,-0.3351115,1.624194,0.2921354,-0.08129138,1.512818,0.03244146,-0.03828174,1.736062,0.03142147,-0.3627354,1.72516,-0.141266,0.1658197,1.712335,-0.0490421,-0.3545539,1.68378,-0.2166875,-0.09125528,1.738975,0.3155545,-0.03523862,1.812741,NA,NA,NotTracked,Open,
0.9833984,-0.1694336,-0.08837891,-0.3637695,1.189941,-0.3061523,-3,1,-3,5,2,-1,-2,0,4,4,2,0,-1,3,1,2,-20.375,-20.375,-20.375,87.625,87.625,87.625,1.560654,2.812113,7.686946,8.051694,5.196239,0.6003398,-0.1810689,-0.3404935,1.655966,0.307132,0.04086677,1.467958,0.04538794,0.4340101,1.713976,-0.142075,-0.3441122,1.614067,0.3004606,0.0727852,1.462077,0.0319734,-0.03841291,1.73668,0.03149742,-0.362616,1.725201,-0.1414998,0.165785,1.711972,-0.04884642,-0.3542368,1.683071,-0.2181615,-0.08984911,1.737464,0.337727,-0.0264644,1.798734,NA,NA,NotTracked,Unknown,
0.9790039,-0.1489258,-0.04931641,-0.3330078,1.140137,-0.309082,-2,-1,-1,11,-4,-2,-2,-3,-3,-3,-4,0,-1,7,0,-3,-13,-13,-13,99.1875,99.1875,99.1875,1.588212,2.819772,7.631211,8.227739,5.743592,0.6602062,-0.1810548,-0.3395764,1.654892,0.2992463,0.1890456,1.491837,0.04650064,0.432122,1.714188,-0.1424914,-0.3435034,1.612774,0.2453498,0.2152832,1.502667,0.03167691,-0.03831653,1.737302,0.03169469,-0.3624736,1.725212,-0.1415823,0.1656745,1.711888,-0.04834708,-0.3537809,1.681561,-0.2196095,-0.08838352,1.736356,0.4100048,-0.01970037,1.734739,NA,NA,NotTracked,Unknown,
0.9868164,-0.1503906,-0.03271484,-0.418457,0.762207,-0.1816406,-1,2,0,-4,-2,-1,-1,-1,-1,2,3,1,1,-2,0,-2,-6.9375,-6.9375,-6.9375,56.0625,56.0625,56.0625,1.608214,2.823857,7.602124,8.515659,6.347453,0.8923301,-0.1851953,-0.3289415,1.662708,0.2719629,0.3061907,1.531205,0.04811438,0.430102,1.714672,-0.1417232,-0.3361214,1.614349,0.2473677,0.3186654,1.5481,0.03141344,-0.0383838,1.737864,0.03213656,-0.3623035,1.725049,-0.1416775,0.1653094,1.712147,-0.04777718,-0.353476,1.680048,-0.2208695,-0.08686122,1.735103,0.426018,0.03913768,1.697979,NA,NA,NotTracked,Unknown,
0.9848633,-0.1933594,-0.05859375,-0.4526367,0.4199219,-0.2597656,0,5,-2,-8,-2,1,-1,-1,-1,-1,-2,7,5,3,-36,-4,15.4375,15.4375,15.4375,26.875,26.875,26.875,1.675991,2.831144,7.55316,8.871993,6.638219,1.258473,-0.1852324,-0.3296857,1.664458,0.2498253,0.3734375,1.573073,0.04954302,0.4272984,1.715999,-0.1411792,-0.3361679,1.615702,0.2295924,0.3480377,1.59481,0.0313357,-0.03923616,1.739324,0.03254597,-0.3620904,1.72471,-0.1416036,0.1652264,1.713327,-0.04749659,-0.3530901,1.679007,-0.2215403,-0.08631388,1.735294,0.4289741,0.09038658,1.663606,NA,NA,NotTracked,Lasso,
0.9765625,-0.1948242,-0.1069336,-0.3486328,0.06201172,0.04833984,-2,-1,0,8,-1,-3,0,1,2,2,0,3,6,2,33,-1,23.25,23.25,23.25,0.0625,0.0625,0.0625,1.702221,2.837733,7.563517,9.41732,6.809988,1.849836,-0.1852771,-0.3306643,1.666058,0.2273885,0.4042895,1.605792,0.05107169,0.4254187,1.716944,-0.1412839,-0.3371037,1.615426,0.2105271,0.3811034,1.636333,0.03143197,-0.03937407,1.74027,0.03340994,-0.3608867,1.724648,-0.1409996,0.1658257,1.715483,-0.0469176,-0.3520269,1.678782,-0.2220327,-0.08544595,1.736597,0.4277637,0.1206249,1.643869,NA,NA,NotTracked,Unknown,
0.9804688,-0.1777344,-0.1416016,-0.4887695,0.125,-0.5395508,-2,2,-3,-5,-2,-2,-1,1,-1,0,-1,-2,-4,3,-22,4,24.3125,24.3125,24.3125,-9.75,-9.75,-9.75,1.70534,2.847649,7.600529,9.671727,6.799206,2.143349,-0.1843616,-0.3309708,1.670278,0.1955745,0.4167318,1.625754,0.05390557,0.4241812,1.717906,-0.140691,-0.333786,1.61933,0.1948453,0.3842174,1.658692,0.03178652,-0.03929234,1.740968,0.03433394,-0.3595903,1.7248,-0.1390414,0.1670374,1.719796,-0.04632007,-0.3508596,1.679091,-0.2221306,-0.08456502,1.741294,0.4035448,0.1944688,1.616325,NA,NA,NotTracked,Unknown,
0.9755859,-0.1899414,-0.1591797,-0.6660156,0.01611328,-0.4399414,-1,1,-2,-3,-1,-1,1,-1,-9,-3,-4,-4,-9,-20,-78,-20,16.75,16.75,16.75,-15.375,-15.375,-15.375,1.705432,2.861897,7.63263,9.748302,6.756652,2.254734,-0.1846736,-0.3313666,1.670715,0.1864556,0.4120102,1.627676,0.05518496,0.4238445,1.718628,-0.1410214,-0.3356152,1.618206,0.1846912,0.3780218,1.646417,0.03230203,-0.03898787,1.741855,0.03591601,-0.3583783,1.725152,-0.1357349,0.1674919,1.721087,-0.04524324,-0.3501249,1.679775,-0.2218214,-0.0841897,1.744503,0.4019284,0.1956301,1.613927,NA,NA,NotTracked,Unknown,
1.000977,-0.1743164,-0.1938477,-0.7709961,0.1030273,-0.4506836,-1,0,-2,-6,-2,-2,0,-1,-7,0,-2,-2,0,7,12,29,4.6875,4.6875,4.6875,-4.375,-4.375,-4.375,1.702148,2.890941,7.655739,9.638762,6.739714,2.164689,-0.1846622,-0.3302141,1.670548,0.1835991,0.4099949,1.623354,0.05548049,0.4235396,1.719045,-0.1404382,-0.3285197,1.623637,0.1780428,0.3809266,1.648412,0.0324085,-0.03886521,1.742474,0.03638218,-0.3579109,1.725425,-0.135542,0.1673156,1.722614,-0.0447959,-0.349723,1.680437,-0.2224801,-0.08373265,1.747604,0.4002137,0.1944407,1.611149,NA,NA,NotTracked,Unknown,
1.055664,-0.1123047,-0.2646484,-0.7583008,0.07958984,-0.4091797,0,8,4,5,2,-4,-2,1,-20,-7,-3,-3,-16,-25,-13,-20,-14.8125,-14.8125,-14.8125,-6.875,-6.875,-6.875,1.662956,2.925287,7.678041,9.537996,6.72787,2.064581,-0.1870911,-0.3254566,1.668713,0.1868277,0.4093058,1.614755,0.05537327,0.423369,1.719362,-0.1438175,-0.333119,1.617344,0.1752183,0.387076,1.642136,0.03245224,-0.0388317,1.743142,0.0365608,-0.3577155,1.725603,-0.1347737,0.1671709,1.723416,-0.0446346,-0.3496143,1.68095,-0.2256343,-0.08046651,1.751534,0.3992488,0.1907415,1.609199,NA,NA,NotTracked,Unknown,
1.096191,-0.2260742,-0.3662109,-0.7319336,0.1386719,-0.4116211,3,2,13,27,3,2,-5,-1,3,-1,-1,-3,4,4,18,-43,-51.3125,-51.3125,-51.3125,-7.625,-7.625,-7.625,1.559277,3.032133,7.690077,9.37536,6.68526,1.890669,-0.188003,-0.3183382,1.65529,0.2048657,0.3990425,1.595767,0.05387426,0.4232262,1.720287,-0.1482287,-0.3259624,1.616285,0.1916656,0.3721344,1.621318,0.03251953,-0.03875135,1.743503,0.03676339,-0.3574546,1.725701,-0.1347676,0.1674024,1.724644,-0.04444494,-0.349454,1.681531,-0.2383761,-0.07151815,1.754493,0.4015266,0.1821737,1.60643,NA,NA,NotTracked,Unknown,
0.7910156,-0.6240234,-0.2773438,-0.6474609,0.2631836,-0.3383789,-5,-4,-11,-31,5,-2,5,0,7,4,2,2,6,2,9,3,-45.75,-45.75,-45.75,-37.375,-37.375,-37.375,1.50574,3.22766,7.646,9.070419,6.587648,1.596806,-0.1793438,-0.300283,1.641519,0.2186591,0.3840905,1.568799,0.05024249,0.4235801,1.7222,-0.1252186,-0.2580287,1.6396,0.1911981,0.3684195,1.602,0.03254092,-0.03863518,1.743846,0.03697258,-0.3572193,1.725811,-0.1372077,0.1674732,1.727206,-0.04427752,-0.349387,1.681912,-0.2580313,-0.0521987,1.752913,0.4052431,0.146237,1.612321,NA,NA,NotTracked,Unknown,
0.6748047,-0.6303711,-0.3144531,-0.7519531,0.3525391,-0.3417969,7,5,2,14,7,-2,-5,-2,-4,1,1,-3,3,2,2,-4,-18.5,-18.5,-18.5,-60.0625,-60.0625,-60.0625,1.443976,3.472873,7.679734,8.7517,6.402924,1.317004,-0.1874688,-0.2651021,1.620379,0.2379943,0.3520308,1.526367,0.04609484,0.4252187,1.724155,-0.1464303,-0.2599208,1.67474,0.2077243,0.3375674,1.550914,0.03213935,-0.03852638,1.744487,0.03681705,-0.3572521,1.726136,-0.1399297,0.167146,1.729268,-0.04468638,-0.3497163,1.682883,-0.2724518,-0.03157138,1.751146,0.4057881,0.09742913,1.631951,NA,NA,NotTracked,Unknown,
0.5341797,-0.6616211,-0.4057617,-0.6660156,0.7055664,-0.3051758,13,1,-3,-2,-3,-6,16,28,4,3,2,1,0,1,1,1,21,21,21,-88.4375,-88.4375,-88.4375,1.3708,3.865304,7.801931,8.386118,6.05799,1.03704,-0.1997644,-0.2217134,1.552415,0.2607889,0.2983976,1.475057,0.04297054,0.4269507,1.725965,-0.1455124,-0.1984209,1.636833,0.2229012,0.2919822,1.5085,0.03178187,-0.03803377,1.744488,0.03622651,-0.3576499,1.72663,-0.141859,0.1669115,1.730646,-0.04553298,-0.3504651,1.684056,-0.2792268,-0.01620685,1.745652,0.3972038,0.06732196,1.644204,NA,NA,Unknown,Closed,
0.3769531,-0.6958008,-0.3525391,-0.5478516,0.8579102,-0.2871094,14,0,-1,0,6,11,-15,3,0,-3,0,0,-1,0,4,-1,20.5625,20.5625,20.5625,-82.375,-82.375,-82.375,1.367897,4.151079,7.888239,8.179345,5.791825,0.9313205,-0.184184,-0.162396,1.48043,0.2763728,0.2263103,1.425713,0.03981353,0.4289376,1.728738,-0.142965,-0.210721,1.5226,0.234,0.2350176,1.457059,0.03130065,-0.03733677,1.744528,0.03594077,-0.3577085,1.726807,-0.1445089,0.1669772,1.732125,-0.04585436,-0.3507145,1.684374,-0.2872501,-0.009224998,1.739734,0.3806637,0.02964618,1.667324,NA,NA,Unknown,Closed,
0.28125,-0.8500977,-0.3623047,-0.3789063,1.053711,-0.2456055,-4,-1,0,-5,-4,-4,0,2,6,3,2,1,1,1,3,9,10,10,10,-66.5,-66.5,-66.5,1.393351,4.390313,7.901937,7.99895,5.470437,0.9057096,-0.1623414,-0.09278123,1.415769,0.2795942,0.152501,1.392009,0.03706853,0.4317335,1.732778,-0.1108392,-0.1057897,1.414778,0.2310206,0.165276,1.385367,0.0302785,-0.0365441,1.746374,0.03497532,-0.3574019,1.728079,-0.1462484,0.1670808,1.733893,-0.0467817,-0.3506628,1.686364,-0.2904177,-0.009329211,1.72998,0.3633959,0.009650997,1.676059,NA,NA,Unknown,Unknown,
0.3618164,-0.7480469,-0.5058594,-0.2519531,1.109375,-0.2583008,27,-8,-6,-7,-6,-6,-20,37,-1,-1,-2,-7,-5,-2,0,-5,42.6875,42.6875,42.6875,-60.5625,-60.5625,-60.5625,1.47749,4.647858,7.87073,7.89655,5.285472,0.9143555,-0.1512381,-0.02937107,1.386435,0.2619936,0.1056132,1.353947,0.0351037,0.4336333,1.737025,-0.1053253,-0.02847187,1.386125,0.2197582,0.1038088,1.345786,0.03003356,-0.03578003,1.746697,0.03459943,-0.3573239,1.728401,-0.1465615,0.1678006,1.734967,-0.04720071,-0.3507149,1.686935,-0.3174725,-0.0255883,1.648636,0.3517087,-0.04033072,1.637405,NA,NA,Closed,Unknown,
0.3032227,-0.7651367,-0.4990234,-0.1220703,1.003418,-0.2958984,-4,0,-10,3,3,-1,0,35,-3,-3,-2,-6,-5,-4,-4,-4,18.75,18.75,18.75,-32.8125,-32.8125,-32.8125,1.528444,4.765629,7.824695,7.798579,5.099997,0.918763,-0.1465063,-0.005509764,1.394764,0.2537312,0.04642932,1.366656,0.03393924,0.4349909,1.740515,-0.09944059,-0.001356708,1.390421,0.2031103,0.04856485,1.364368,0.02969479,-0.03551061,1.747614,0.0341881,-0.3573239,1.728653,-0.1457628,0.1687154,1.73487,-0.04751594,-0.3506653,1.687126,-0.2593935,-0.01890647,1.653064,0.3159699,-0.031822,1.700955,NA,NA,Unknown,Unknown,
0.2539063,-0.6977539,-0.5942383,-0.04150391,1.083496,-0.2270508,28,3,-1,0,1,0,0,37,1,2,-2,0,0,1,1,-3,2.0625,2.0625,2.0625,-27,-27,-27,1.548012,4.800707,7.793568,7.758682,4.973145,0.9232841,-0.1394369,-0.01412246,1.384038,0.2385493,0.002855088,1.385684,0.03327791,0.4367334,1.74496,-0.0874569,-0.007279076,1.358471,0.185345,0.005613332,1.366409,0.02945881,-0.03527066,1.748362,0.03404536,-0.357311,1.728756,-0.145262,0.1691472,1.734647,-0.04764726,-0.3505903,1.687233,-0.2520346,-0.02152003,1.646286,0.3189872,-0.07225884,1.633374,NA,NA,Unknown,Unknown,
0.387207,-0.7529297,-0.5605469,0.08105469,1.143066,-0.2016602,-12,10,10,16,7,1,1,-11,-8,-8,-4,4,-2,-4,-7,-35,43.6875,43.6875,43.6875,-18.4375,-18.4375,-18.4375,1.602583,4.682842,7.794405,7.734647,4.864777,0.9344631,-0.1373349,-0.04434085,1.366507,0.2230645,-0.02977625,1.389351,0.03331376,0.4381907,1.748752,-0.0843062,-0.03524587,1.3375,0.1707218,-0.03639947,1.379572,0.02940766,-0.0351635,1.748866,0.03394351,-0.3573941,1.728823,-0.1445394,0.1689063,1.733796,-0.04768126,-0.3506006,1.687263,-0.2474898,-0.02494022,1.65206,0.3242618,-0.08289206,1.640035,NA,NA,Unknown,Unknown,
0.3291016,-0.8930664,-0.5439453,0.1474609,1.065918,-0.2080078,13,1,-2,-6,1,-2,6,11,8,5,2,3,4,6,10,3,9.8125,9.8125,9.8125,-10.9375,-10.9375,-10.9375,1.630643,4.568242,7.775018,7.716405,4.793779,0.9446363,-0.1321323,-0.05846363,1.332775,0.20789,-0.04804369,1.375831,0.0339797,0.4393026,1.751519,-0.09871638,-0.04325095,1.330833,0.1630813,-0.05519,1.381571,0.02932099,-0.03495552,1.749111,0.03381028,-0.3574301,1.728827,-0.1436711,0.1687061,1.73221,-0.0477129,-0.3505761,1.687244,-0.2422891,-0.032568,1.668314,0.3377377,-0.04403809,1.616404,NA,NA,Unknown,Unknown,
0.2646484,-0.8867188,-0.5620117,0.09960938,1.036621,-0.1494141,-32,-11,-2,4,4,1,-3,-25,5,4,-1,-2,0,3,-6,-19,-1.3125,-1.3125,-1.3125,-6.1875,-6.1875,-6.1875,1.633574,4.547846,7.766218,7.697634,4.766611,0.9408329,-0.1310438,-0.06868391,1.371756,0.2139623,-0.05698671,1.392684,0.03459838,0.4403498,1.753138,-0.1360995,-0.03130411,1.359632,0.1596023,-0.05988437,1.404,0.0294365,-0.03468432,1.749223,0.03379288,-0.3574307,1.728863,-0.1428634,0.168074,1.730273,-0.04768882,-0.3505524,1.687256,-0.2513207,-0.05153402,1.597967,0.3280709,-0.048571,1.610559,NA,NA,Unknown,Unknown,
0.1958008,-0.8354492,-0.5180664,0.1040039,0.9697266,-0.1201172,-45,-16,-7,-29,-11,-2,-6,-22,-2,-4,-1,0,1,-1,1,-4,7.1875,7.1875,7.1875,-8.5,-8.5,-8.5,1.642191,4.543909,7.769525,7.682883,4.759916,0.9303701,-0.1329025,-0.07131366,1.372695,0.2182202,-0.06107033,1.390654,0.03494971,0.4408621,1.75338,-0.137473,-0.03191459,1.36377,0.1726321,-0.04999262,1.411118,0.02958042,-0.03445228,1.749109,0.03379539,-0.3574592,1.728919,-0.1424039,0.1679912,1.729345,-0.04761577,-0.3505638,1.687297,-0.2514555,-0.05170542,1.597908,0.3208446,-0.04319822,1.632198,NA,NA,Unknown,Unknown,
0.2524414,-0.84375,-0.496582,0.1777344,0.9589844,-0.1020508,-4,1,-2,-2,0,-3,-3,-3,0,-1,1,-2,-1,-2,-7,3,1.9375,1.9375,1.9375,-2.8125,-2.8125,-2.8125,1.642729,4.5411,7.77948,7.678716,4.747316,0.9166351,-0.1346392,-0.07232805,1.368335,0.2147397,-0.0627983,1.394287,0.03546026,0.4414198,1.753183,-0.08142307,-0.06479729,1.35025,0.1655093,-0.06517658,1.388517,0.02990384,-0.03419617,1.748685,0.03379443,-0.3574672,1.728926,-0.1420999,0.1679325,1.728237,-0.0475577,-0.3505345,1.687244,-0.258686,-0.05402125,1.600241,0.323356,-0.04407756,1.632437,NA,NA,Unknown,Unknown,
0.3364258,-0.8071289,-0.5039063,0.2553711,0.9282227,-0.1079102,0,-1,-1,3,-3,-1,0,1,-3,-1,0,-1,1,1,3,0,4.4375,4.4375,4.4375,9.125,9.125,9.125,1.640951,4.51874,7.806115,7.691056,4.701377,0.9011355,-0.1326837,-0.07125197,1.354886,0.219894,-0.06573429,1.390908,0.03589786,0.4417987,1.752657,-0.1447063,-0.03987556,1.359093,0.1806771,-0.05543242,1.40568,0.03008651,-0.03384263,1.748042,0.03380234,-0.3574654,1.728922,-0.1421623,0.1679253,1.726719,-0.04752041,-0.3505203,1.687229,-0.2691531,-0.05174505,1.616647,0.3259663,-0.04567387,1.627481,NA,NA,Unknown,Unknown ,
0.4335938,-0.7338867,-0.5297852,0.3310547,0.859375,-0.1601563,-3,-1,-2,12,2,-2,-1,-3,-4,-2,-2,-1,-3,-1,0,-2,-27.375,-27.375,-27.375,15.625,15.625,15.625,1.602308,4.430936,7.826786,7.719943,4.625026,0.8814256,-0.132678,-0.09052172,1.355887,0.2282754,-0.08213145,1.383592,0.03645935,0.4424566,1.751369,-0.1285853,-0.05176401,1.350938,0.1779566,-0.08316635,1.377939,0.03010335,-0.03360777,1.747431,0.03377763,-0.3575194,1.729019,-0.1419428,0.1675149,1.724729,-0.04747241,-0.350627,1.687542,-0.2740896,-0.05020877,1.61961,0.3275577,-0.04755323,1.626313,NA,NA,Unknown,Unknown,
0.4550781,-0.6489258,-0.5185547,0.3725586,0.8544922,-0.1689453,0,-2,-2,3,-3,-4,-4,-2,-2,-6,-2,-4,-1,-1,-1,-2,-54.1875,-54.1875,-54.1875,31.5625,31.5625,31.5625,1.514686,4.296001,7.83806,7.780192,4.490632,0.8508305,-0.1348269,-0.1302095,1.372166,0.2419089,-0.1145698,1.39855,0.0371282,0.443239,1.749122,-0.1316106,-0.08195832,1.354,0.2129951,-0.08765367,1.422406,0.03008156,-0.03326357,1.746258,0.033631,-0.3575153,1.729071,-0.1420991,0.1675584,1.723239,-0.04756632,-0.3506431,1.687791,-0.2812943,-0.04453186,1.625326,0.3294253,-0.03498568,1.705786,NA,NA,Unknown,Unknown,
0.5957031,-0.6772461,-0.4711914,0.5141602,0.8476563,-0.140625,-3,0,1,5,3,3,4,0,0,3,1,-1,1,-1,0,1,-67.5,-67.5,-67.5,47.8125,47.8125,47.8125,1.347472,4.022806,7.892003,7.897018,4.25764,0.7841307,-0.1486487,-0.192116,1.408637,0.2550164,-0.1625829,1.426327,0.03806608,0.4441852,1.745941,-0.1306923,-0.1431854,1.37995,0.2372735,-0.1277916,1.406485,0.03025982,-0.03310948,1.744166,0.03368283,-0.3576994,1.728718,-0.1423266,0.1674111,1.721477,-0.04746943,-0.3508545,1.687719,-0.2973107,-0.03120905,1.67417,0.3371677,-0.03642227,1.712589,NA,NA,Closed,Closed,
0.6772461,-0.6870117,-0.4741211,0.5507813,0.8227539,-0.1708984,2,-1,-1,-7,1,6,6,3,-1,-1,1,5,3,-1,-1,-2,-67.6875,-67.6875,-67.6875,46.9375,46.9375,46.9375,1.233455,3.796072,7.902213,7.999566,4.060262,0.7400972,-0.1774357,-0.2503114,1.469462,0.274973,-0.2158409,1.476263,0.03904149,0.4447878,1.741456,-0.1339119,-0.2430322,1.434145,0.2545388,-0.1775787,1.4536,0.03044168,-0.03298196,1.741032,0.03376605,-0.3579622,1.727708,-0.1432416,0.1669855,1.718852,-0.04742484,-0.3511891,1.6873,-0.2789844,-0.02431062,1.687465,0.3487896,-0.03344155,1.733924,NA,NA,Closed,Closed,
0.8291016,-0.4648438,-0.4116211,0.6630859,0.8330078,-0.168457,5,0,0,4,-4,-2,-4,-7,-6,-7,-3,0,-4,-3,2,-3,-50.25,-50.25,-50.25,34.8125,34.8125,34.8125,1.172739,3.563271,7.876623,8.075861,3.871311,0.7171214,-0.1994792,-0.2972956,1.530201,0.293533,-0.2680845,1.534378,0.04006586,0.4456273,1.736694,-0.1558232,-0.2948157,1.515257,0.249632,-0.2657971,1.560476,0.03001711,-0.03263737,1.737993,0.03343096,-0.3581229,1.727096,-0.143986,0.1667983,1.715735,-0.04762752,-0.3513813,1.687146,-0.2770191,-0.02498855,1.68962,0.333257,-0.03431816,1.750735,NA,NA,Unknown,Unknown,
0.8896484,-0.4589844,-0.2915039,0.6704102,0.6113281,-0.1411133,6,-4,-7,-29,-7,-4,-6,-5,19,-3,-3,-5,-3,-5,5,7,-33.1875,-33.1875,-33.1875,18,18,18,1.146635,3.26597,7.764889,8.098942,3.680433,0.7208526,-0.2045483,-0.309574,1.60038,0.3001768,-0.2902594,1.594503,0.04101769,0.4462917,1.73164,-0.1494868,-0.3138357,1.642176,0.2516779,-0.2918151,1.636667,0.02982929,-0.03210149,1.734289,0.03316165,-0.358135,1.726351,-0.144482,0.1664744,1.714421,-0.04780728,-0.3514376,1.686953,-0.2780898,-0.0299412,1.695739,0.3333859,-0.03867396,1.76141,NA,NA,Unknown,Open,
0.7861328,-0.5253906,-0.1855469,0.5581055,0.7241211,0.03173828,-50,-27,-9,-4,-6,-9,-29,-21,4,-7,-5,-3,-3,-2,-10,-3,20.1875,20.1875,20.1875,-35.1875,-35.1875,-35.1875,1.275554,3.10052,7.637344,8.018724,3.486553,0.7484086,-0.2032924,-0.3050145,1.638042,0.2894429,-0.3008076,1.631347,0.04193108,0.446578,1.725662,-0.1509612,-0.2658743,1.661911,0.2330783,-0.3016918,1.653,0.0295801,-0.03206382,1.730884,0.03297497,-0.3582334,1.725882,-0.1445399,0.1665392,1.71464,-0.04797811,-0.3515573,1.68672,-0.2817671,-0.03316098,1.708515,0.3343175,-0.04323814,1.773675,NA,NA,NotTracked,NotTracked,
0.7485352,-0.4516602,-0.284668,0.5795898,0.6557617,-0.08544922,20,11,0,-4,-2,3,-8,-2,0,-1,0,1,0,-7,6,0,46.1875,46.1875,46.1875,-38.9375,-38.9375,-38.9375,1.431635,3.025774,7.549833,7.901109,3.389344,0.7984229,-0.2044818,-0.3048325,1.654225,0.2775491,-0.3097643,1.645738,0.04248592,0.4468816,1.720358,-0.151317,-0.2571775,1.657932,0.2223722,-0.2999015,1.639233,0.02955333,-0.03228261,1.727737,0.03281237,-0.3586173,1.725185,-0.1455507,0.1650024,1.704194,-0.04813303,-0.3520224,1.686016,-0.2811325,-0.03860181,1.720905,0.3256034,-0.04751769,1.792106,NA,NA,NotTracked,NotTracked,
