ALX,ALY,ALZ,ARX,ARY,ARZ,EMG0L,EMG1L,EMG2L,EMG3L,EMG4L,EMG5L,EMG6L,EMG7L,EMG0R,EMG1R,EMG2R,EMG3R,EMG4R,EMG5R,EMG6R,EMG7R,GLX,GLY,GLZ,GRX,GRY,GRZ,ORL,OPL,OYL,ORR,OPR,OYR,LHNX,LHNY,LHNZ,RHNX,RHNY,RHNZ,HX,HY,HZ,LTX,LTY,LTZ,RTX,RTY,RTZ,SpineMidX,SpineMidY,SpineMidZ,SpineBaseX,SpineBaseY,SpineBaseZ,ShoulderLeftX,ShoulderLeftY,ShoulderLeftZ,ShoulderRightX,ShoulderRightY,ShoulderRightZ,ElbowLeftX,ElbowLeftY,ElbowLeftZ,ElbowRightX,ElbowRightY,ElbowRightZ,Myo_Pose_left,Myo_Pose_Right,Kinect_pose_left,Kinect_pose_right
0.965332,-0.1855469,-0.1333008,0.8867188,0.3691406,-0.05957031,0,-1,1,1,0,-1,-2,-3,0,2,0,0,-3,1,5,14,-2.3125,-2.3125,-2.3125,-5.25,-5.25,-5.25,1.483693,2.883434,7.886611,7.740426,3.091588,0.3640197,-0.1947265,-0.3205001,1.716954,0.2311109,-0.3440952,1.684335,0.0317706,0.445768,1.743728,-0.1526352,-0.3111969,1.68466,0.2663351,-0.369456,1.676,0.02461928,-0.02527863,1.761918,0.02216206,-0.347679,1.764021,-0.1423912,0.1884729,1.76189,-0.058634,-0.3398378,1.725143,-0.2008493,-0.07050546,1.792756,0.2534417,-0.08085371,1.809511,NA,NA,NotTracked,NotTracked,
0.965332,-0.1855469,-0.1333008,0.9121094,0.3569336,-0.06054688,0,-1,1,1,0,-1,-2,-3,0,-1,-2,-2,-6,-5,-3,0,-2.3125,-2.3125,-2.3125,-2.375,-2.375,-2.375,1.483693,2.883434,7.886611,7.740634,3.096149,0.3549474,-0.1949055,-0.32085,1.71609,0.2308902,-0.3430167,1.683924,0.03148251,0.4457743,1.743744,-0.1527952,-0.311588,1.68467,0.2688769,-0.3672892,1.675047,0.02450229,-0.02531809,1.762316,0.02225058,-0.3477395,1.764366,-0.1425393,0.1883628,1.762116,-0.05850438,-0.3399194,1.725505,-0.201102,-0.07030166,1.793072,0.2532673,-0.08066702,1.810347,NA,NA,NotTracked,NotTracked,
0.965332,-0.1855469,-0.1333008,0.9082031,0.3505859,-0.06396484,0,-1,1,1,0,-1,-2,-3,-2,-2,0,0,6,1,1,-2,-2.3125,-2.3125,-2.3125,-2.5625,-2.5625,-2.5625,1.483693,2.883434,7.886611,7.74411,3.099514,0.3493977,-0.1960906,-0.3200541,1.716091,0.2307079,-0.342827,1.68374,0.03125586,0.4458242,1.743695,-0.1562277,-0.3294326,1.6715,0.2674613,-0.3632891,1.673683,0.02443781,-0.02534315,1.762495,0.02239965,-0.3478199,1.764439,-0.1427879,0.1879634,1.762118,-0.05839985,-0.3400107,1.725554,-0.2013426,-0.07036507,1.79315,0.2530844,-0.08072012,1.810694,NA,NA,NotTracked,NotTracked,
0.965332,-0.1855469,-0.1333008,0.9057617,0.3442383,-0.06347656,0,-1,1,1,0,-1,-2,-3,-1,-1,0,-2,-1,-4,-2,-2,-2.3125,-2.3125,-2.3125,2,2,2,1.483693,2.883434,7.886611,7.749883,3.098704,0.344716,-0.1948931,-0.3208221,1.714642,0.2307992,-0.3432737,1.683928,0.03106056,0.4458805,1.743669,-0.1557917,-0.33266,1.669316,0.2679696,-0.3610446,1.673402,0.02438973,-0.02534185,1.762688,0.02248989,-0.3478847,1.764524,-0.1430407,0.1877136,1.762112,-0.05830495,-0.3401107,1.725634,-0.2015071,-0.07038987,1.793357,0.2529529,-0.0807479,1.811165,NA,NA,NotTracked,NotTracked,
0.965332,-0.1855469,-0.1333008,0.918457,0.3642578,-0.05810547,0,-1,1,1,0,-1,-2,-3,-2,-4,-6,-3,-1,-1,2,-2,-2.3125,-2.3125,-2.3125,0.25,0.25,0.25,1.483693,2.883434,7.886611,7.752996,3.097903,0.3420156,-0.1955401,-0.3204795,1.714244,0.2307,-0.3427062,1.683034,0.03066633,0.4459512,1.743444,-0.1545043,-0.3300697,1.671624,0.2678039,-0.3605414,1.671125,0.02433614,-0.02537121,1.762674,0.02250488,-0.3479868,1.764478,-0.143592,0.1874987,1.761945,-0.05830416,-0.3402373,1.72555,-0.2021076,-0.07094122,1.793167,0.2529045,-0.08083415,1.81123,NA,NA,NotTracked,NotTracked,
0.965332,-0.1855469,-0.1333008,0.9975586,0.3120117,-0.1005859,0,-1,1,1,0,-1,-2,-3,3,-7,3,4,2,0,0,0,-2.3125,-2.3125,-2.3125,-20.5,-20.5,-20.5,1.483693,2.883434,7.886611,7.728039,3.101993,0.3496042,-0.1956939,-0.3207677,1.713595,0.2303556,-0.3408524,1.681764,0.03003706,0.4460783,1.742706,-0.1545479,-0.3260692,1.674139,0.2678595,-0.3614414,1.670198,0.02417371,-0.02544808,1.762458,0.02261825,-0.3481707,1.764301,-0.1442189,0.1871992,1.760938,-0.05819793,-0.3405225,1.725322,-0.2029218,-0.07109753,1.792342,0.2529758,-0.08077477,1.811358,NA,NA,NotTracked,NotTracked,
0.965332,-0.1855469,-0.1333008,1.080566,0.2319336,-0.3891602,0,-1,1,1,0,-1,-2,-3,-5,-2,-2,2,-4,-4,-1,-2,-2.3125,-2.3125,-2.3125,11.25,11.25,11.25,1.483693,2.883434,7.886611,7.720254,3.145292,0.3696605,-0.1951147,-0.3207872,1.710438,0.2313853,-0.3336207,1.675919,0.02860507,0.4462107,1.740636,-0.1548167,-0.3290827,1.670029,0.2672256,-0.3635992,1.673476,0.02371281,-0.02564408,1.761749,0.02269298,-0.348534,1.763983,-0.1455802,0.1867134,1.759218,-0.05811907,-0.340965,1.724854,-0.2035095,-0.07125686,1.790987,0.25588,-0.07722649,1.81274,NA,NA,NotTracked,NotTracked,
0.965332,-0.1855469,-0.1333008,0.7675781,0.8095703,-0.2788086,0,-1,1,1,0,-1,-2,-3,4,10,19,13,8,3,2,2,-2.3125,-2.3125,-2.3125,45.5625,45.5625,45.5625,1.483693,2.883434,7.886611,7.80368,3.38339,0.3878758,-0.1963399,-0.3205591,1.709229,0.2324773,-0.3102395,1.669091,0.0271106,0.4464556,1.739239,-0.1551512,-0.3289317,1.670354,0.2784102,-0.3245481,1.6542,0.02319415,-0.02587119,1.760677,0.02275183,-0.3489426,1.763105,-0.1468638,0.1863898,1.758117,-0.05814702,-0.3414195,1.72404,-0.2044024,-0.07219815,1.788942,0.2709913,-0.0605962,1.814219,NA,NA,NotTracked,NotTracked,
0.965332,-0.1855469,-0.1333008,0.5546875,0.828125,-0.2109375,0,-1,1,1,0,-1,-2,-3,1,-5,2,-2,-5,18,-1,-1,-2.3125,-2.3125,-2.3125,62.5,62.5,62.5,1.483693,2.883434,7.886611,7.89243,3.623813,0.3729086,-0.1975982,-0.3205543,1.705602,0.254701,-0.2684479,1.636489,0.02528255,0.4463426,1.737273,-0.1552435,-0.310846,1.673109,0.2975888,-0.2597333,1.610753,0.02192214,-0.02622646,1.758209,0.0216158,-0.3495404,1.759647,-0.148634,0.1855798,1.756209,-0.05950484,-0.341958,1.721189,-0.2055958,-0.07183272,1.786533,0.2893922,-0.035124,1.804375,NA,NA,NotTracked,Unknown,
0.965332,-0.1855469,-0.1333008,0.3417969,0.8950195,-0.1542969,0,-1,1,1,0,-1,-2,-3,3,3,-4,1,1,-7,-2,-1,-2.3125,-2.3125,-2.3125,43.375,43.375,43.375,1.483693,2.883434,7.886611,7.991802,3.922747,0.3651532,-0.1997994,-0.3196875,1.70218,0.2680638,-0.2068511,1.573989,0.02339731,0.445931,1.735831,-0.1575222,-0.32595,1.66251,0.2959389,-0.1937726,1.54298,0.02053851,-0.02628155,1.756541,0.02007096,-0.3495408,1.756385,-0.1500146,0.1851868,1.755234,-0.06122123,-0.3418013,1.718261,-0.2067131,-0.07235168,1.784631,0.3066206,-0.01682714,1.786118,NA,NA,NotTracked,Unknown,
0.965332,-0.1855469,-0.1333008,0.2294922,0.956543,-0.1875,0,-1,1,1,0,-1,-2,-3,0,2,-2,-43,15,28,5,-6,-2.3125,-2.3125,-2.3125,42.1875,42.1875,42.1875,1.483693,2.883434,7.886611,8.088759,4.337296,0.3598402,-0.2003003,-0.3190455,1.697691,0.2674303,-0.1579829,1.515009,0.02158513,0.4455968,1.734797,-0.1587563,-0.3155168,1.658947,0.2958606,-0.1335332,1.482242,0.01888777,-0.02642173,1.754773,0.01852625,-0.3494912,1.752065,-0.1517476,0.1845009,1.754319,-0.06266722,-0.341728,1.714568,-0.2085461,-0.07277682,1.782376,0.3211952,-0.009599219,1.767035,NA,NA,NotTracked,Unknown,
0.965332,-0.1855469,-0.1333008,0.3149414,0.8720703,-0.2851563,0,-1,1,1,0,-1,-2,-3,3,3,-12,-5,7,-2,23,-4,-2.3125,-2.3125,-2.3125,35.9375,35.9375,35.9375,1.483693,2.883434,7.886611,8.162714,4.658669,0.3742184,-0.1997449,-0.3216272,1.692359,0.2659264,-0.1113215,1.468117,0.01987393,0.4452254,1.734263,-0.158169,-0.3264499,1.654159,0.3036315,-0.08439888,1.439631,0.0177365,-0.02668877,1.753421,0.01761566,-0.3497503,1.7484,-0.1535833,0.1836965,1.754071,-0.06364281,-0.3419642,1.710664,-0.209649,-0.07301439,1.780566,0.3295453,-0.004575297,1.742226,NA,NA,NotTracked,Unknown,
0.965332,-0.1855469,-0.1333008,0.371582,0.8662109,-0.3129883,0,-1,1,1,0,-1,-2,-3,2,3,2,7,-15,12,43,-10,-2.3125,-2.3125,-2.3125,33.9375,33.9375,33.9375,1.483693,2.883434,7.886611,8.204856,4.77721,0.4000609,-0.2001684,-0.3204992,1.689198,0.2603993,-0.08582655,1.429304,0.01862967,0.4449755,1.734289,-0.1605014,-0.33042,1.642131,0.2967882,-0.05340191,1.397396,0.01702526,-0.02704453,1.752464,0.0172647,-0.3501111,1.744985,-0.155298,0.1826068,1.75424,-0.0639431,-0.3424052,1.707567,-0.2102792,-0.0734605,1.779486,0.3270957,0.02779518,1.637883,NA,NA,NotTracked,Unknown,
0.965332,-0.1855469,-0.1333008,0.3120117,0.8115234,-0.3618164,0,-1,1,1,0,-1,-2,-3,-3,-3,-4,-46,-12,-17,-4,3,-2.3125,-2.3125,-2.3125,26.6875,26.6875,26.6875,1.483693,2.883434,7.886611,8.242722,4.837866,0.44146,-0.1996206,-0.3219304,1.686207,0.255953,-0.06234024,1.400967,0.01742633,0.4447321,1.734303,-0.1597828,-0.3266374,1.648221,0.2916773,-0.02070152,1.37395,0.0159448,-0.02741075,1.751022,0.01718441,-0.3505631,1.7416,-0.1569277,0.1817069,1.754485,-0.06391664,-0.3431352,1.704634,-0.210821,-0.07377361,1.778493,0.327868,0.02713824,1.633562,NA,NA,NotTracked,Open,
0.965332,-0.1855469,-0.1333008,0.1923828,0.8027344,-0.4116211,0,-1,1,1,0,-1,-2,-3,-3,-4,-1,4,-5,4,-3,-6,-2.3125,-2.3125,-2.3125,6.9375,6.9375,6.9375,1.483693,2.883434,7.886611,8.267579,4.895417,0.4822386,-0.2000944,-0.3228959,1.686183,0.2502376,-0.04250658,1.386468,0.0162495,0.4446518,1.734135,-0.1588494,-0.3295613,1.643105,0.2904799,-0.0446085,1.343935,0.01507761,-0.02763727,1.749663,0.01691489,-0.3508195,1.739106,-0.158396,0.181086,1.75512,-0.06407754,-0.3434942,1.702651,-0.2110486,-0.07445744,1.778145,0.3459801,0.02033704,1.67596,NA,NA,NotTracked,Unknown,
0.965332,-0.1855469,-0.1333008,0.1308594,0.8051758,-0.4384766,0,-1,1,1,0,-1,-2,-3,0,0,2,-3,-4,1,-2,-5,-2.3125,-2.3125,-2.3125,-3.75,-3.75,-3.75,1.483693,2.883434,7.886611,8.264445,4.933825,0.4966142,-0.2001059,-0.3227812,1.686542,0.2452132,-0.03196687,1.375223,0.0151482,0.4445355,1.73356,-0.1592913,-0.3244599,1.645797,0.2829815,-0.04748756,1.333125,0.01427998,-0.02775043,1.748136,0.01635307,-0.3510526,1.736939,-0.1589323,0.1807597,1.755054,-0.06448179,-0.3437459,1.70107,-0.2112511,-0.07505062,1.777996,0.3438094,0.03338077,1.514262,NA,NA,NotTracked,Open,
0.965332,-0.1855469,-0.1333008,0.1049805,0.8310547,-0.4453125,0,-1,1,1,0,-1,-2,-3,2,4,0,11,4,3,9,6,-2.3125,-2.3125,-2.3125,-8.75,-8.75,-8.75,1.483693,2.883434,7.886611,8.256718,4.965469,0.5062967,-0.1999131,-0.3231715,1.686008,0.2400173,-0.02367407,1.367559,0.01400552,0.4440897,1.732553,-0.1594835,-0.3307264,1.640818,0.2744592,-0.04708081,1.323774,0.01365367,-0.02805505,1.746782,0.01574812,-0.3514689,1.735194,-0.1593564,0.1807408,1.755065,-0.06504709,-0.344157,1.699582,-0.2115087,-0.07535724,1.778077,0.344684,0.02659774,1.519372,NA,NA,NotTracked,Open,
0.965332,-0.1855469,-0.1333008,0.1835938,0.8574219,-0.3417969,0,-1,1,1,0,-1,-2,-3,-22,-2,-1,-5,-1,2,13,-39,-2.3125,-2.3125,-2.3125,-29.625,-29.625,-29.625,1.483693,2.883434,7.886611,8.207146,5.017915,0.5207765,-0.200164,-0.3237064,1.683524,0.2363304,-0.001872639,1.353035,0.01337998,0.4437668,1.73132,-0.1576682,-0.3160062,1.646822,0.267874,-0.002573858,1.318766,0.01313505,-0.0283136,1.745318,0.01527886,-0.3517283,1.733541,-0.1597753,0.1806697,1.754736,-0.06555661,-0.3444272,1.698008,-0.2116708,-0.0755916,1.777697,0.3458464,0.01606794,1.527983,NA,NA,NotTracked,Unknown,
0.965332,-0.1855469,-0.1333008,0.0004882813,0.7661133,-0.2944336,0,-1,1,1,0,-1,-2,-3,16,-5,-8,-3,-8,-15,-36,-47,-2.3125,-2.3125,-2.3125,-29.9375,-29.9375,-29.9375,1.483693,2.883434,7.886611,8.15149,5.076606,0.5659657,-0.2005978,-0.3236637,1.682058,0.2220322,0.04637005,1.330425,0.01296838,0.4430115,1.729346,-0.1603497,-0.3327089,1.6356,0.2584394,0.05101633,1.290882,0.01281328,-0.02874191,1.743765,0.01500057,-0.3520574,1.731997,-0.1600969,0.1806539,1.753849,-0.06589492,-0.3447259,1.696593,-0.2116856,-0.07623331,1.776481,0.3379022,-0.0005948982,1.565013,NA,NA,NotTracked,Closed,
0.965332,-0.1855469,-0.1333008,-0.4145508,0.7250977,-0.3793945,0,-1,1,1,0,-1,-2,-3,-94,-18,20,2,-2,-10,-32,20,-2.3125,-2.3125,-2.3125,-20.25,-20.25,-20.25,1.483693,2.883434,7.886611,8.121216,5.112495,0.6079803,-0.2010833,-0.3237239,1.680584,0.2353763,0.1053441,1.394468,0.01257297,0.4418506,1.726632,-0.1591977,-0.3177381,1.645671,0.2526502,0.1428325,1.374773,0.01284134,-0.02922187,1.742136,0.01463676,-0.3523695,1.730189,-0.1601842,0.1800365,1.751324,-0.06645083,-0.3450527,1.694303,-0.2118913,-0.07621372,1.774529,0.3110481,0.0006596961,1.617214,NA,NA,NotTracked,Unknown,
0.965332,-0.1855469,-0.1333008,-0.2392578,0.9975586,-0.3813477,0,-1,1,1,0,-1,-2,-3,105,-59,-27,-8,-1,7,26,-53,-2.3125,-2.3125,-2.3125,-44.9375,-44.9375,-44.9375,1.483693,2.883434,7.886611,8.071474,5.157083,0.6000382,-0.2006734,-0.3230628,1.67841,0.2375542,0.1354552,1.446275,0.0125194,0.4411833,1.724022,-0.1591901,-0.3206121,1.639658,0.2653248,0.1739642,1.4244,0.01293588,-0.02952714,1.741256,0.01456582,-0.3526135,1.729359,-0.1602074,0.1802118,1.749391,-0.06652003,-0.3452432,1.693342,-0.2122522,-0.07538015,1.771775,0.3084365,0.0008010748,1.618131,NA,NA,NotTracked,Open,
0.965332,-0.1855469,-0.1333008,-0.2675781,0.8774414,-0.4072266,0,-1,1,1,0,-1,-2,-3,-114,46,18,5,5,7,8,-62,-2.3125,-2.3125,-2.3125,-41.25,-41.25,-41.25,1.483693,2.883434,7.886611,7.977279,5.308504,0.5498524,-0.2003575,-0.322931,1.675665,0.2384202,0.1438151,1.475899,0.01269158,0.4403147,1.721614,-0.1608798,-0.332374,1.630267,0.2750481,0.1568572,1.44325,0.01303266,-0.02997182,1.740487,0.01441713,-0.3530692,1.728475,-0.1599388,0.1798987,1.746947,-0.06673008,-0.3456452,1.691911,-0.2120218,-0.07480963,1.769322,0.3009385,-0.003323012,1.629041,NA,NA,NotTracked,Open,
0.965332,-0.1855469,-0.1333008,-0.355957,0.8286133,-0.3730469,0,-1,1,1,0,-1,-2,-3,-17,-10,-2,-7,-4,-9,-23,-27,-2.3125,-2.3125,-2.3125,-36.6875,-36.6875,-36.6875,1.483693,2.883434,7.886611,7.926977,5.359083,0.5333711,-0.2013054,-0.3223696,1.673699,0.2400609,0.1449704,1.490975,0.01295825,0.4386671,1.719177,-0.1607206,-0.3308769,1.6272,0.2792464,0.1613867,1.472326,0.01324119,-0.03088761,1.739741,0.01461807,-0.3539376,1.727491,-0.159235,0.1790806,1.74405,-0.06653259,-0.3466056,1.690352,-0.2119168,-0.07487162,1.765147,0.2975188,-0.01007818,1.638148,NA,NA,NotTracked,Open,
0.965332,-0.1855469,-0.1333008,-0.3212891,0.9458008,-0.2890625,0,-1,1,1,0,-1,-2,-3,23,8,0,0,-1,2,2,-19,-2.3125,-2.3125,-2.3125,-10.5,-10.5,-10.5,1.483693,2.883434,7.886611,7.908651,5.370749,0.5097814,-0.200391,-0.3219876,1.670812,0.2429247,0.145657,1.495235,0.01339795,0.4374878,1.717122,-0.1596168,-0.3244427,1.631942,0.2820944,0.1823621,1.48735,0.01363052,-0.03166454,1.738928,0.01487539,-0.3545288,1.726382,-0.158638,0.1786284,1.741058,-0.06632823,-0.3472321,1.688666,-0.2121096,-0.07472028,1.761198,0.2957502,-0.01291047,1.643779,NA,NA,NotTracked,Open,
0.965332,-0.1855469,-0.1333008,-0.3193359,0.909668,-0.2338867,0,-1,1,1,0,-1,-2,-3,14,-13,-7,-2,-2,-1,5,56,-2.3125,-2.3125,-2.3125,-0.8125,-0.8125,-0.8125,1.483693,2.883434,7.886611,7.900368,5.37051,0.4957851,-0.2007079,-0.3235937,1.669116,0.2458601,0.1452956,1.497868,0.01356899,0.4370396,1.716406,-0.1581502,-0.3191077,1.632796,0.2816865,0.1805362,1.486934,0.01380307,-0.03205502,1.738677,0.01496773,-0.3546793,1.726154,-0.1584882,0.1784883,1.739979,-0.06623489,-0.3473653,1.688085,-0.2120822,-0.07463724,1.759222,0.295178,-0.01371776,1.648452,NA,NA,NotTracked,Open,
0.965332,-0.1855469,-0.1333008,-0.2524414,0.9208984,-0.2036133,0,-1,1,1,0,-1,-2,-3,-11,-6,-5,-1,1,3,-5,-31,-2.3125,-2.3125,-2.3125,-4.625,-4.625,-4.625,1.483693,2.883434,7.886611,7.890653,5.370834,0.4751941,-0.2003952,-0.3232664,1.667722,0.2487157,0.145389,1.496635,0.01375145,0.4367682,1.715981,-0.1594179,-0.3320484,1.622967,0.2810501,0.1849338,1.4972,0.01385201,-0.03222716,1.738503,0.01504488,-0.3547064,1.726075,-0.1584624,0.1784742,1.738536,-0.06610125,-0.3473193,1.687672,-0.2120803,-0.07405121,1.757201,0.294632,-0.01459776,1.653373,NA,NA,NotTracked,Open,
0.965332,-0.1855469,-0.1333008,-0.1098633,0.8974609,-0.2529297,0,-1,1,1,0,-1,-2,-3,16,4,0,0,0,0,3,14,-2.3125,-2.3125,-2.3125,2.4375,2.4375,2.4375,1.483693,2.883434,7.886611,7.877278,5.3531,0.4457664,-0.2005262,-0.3235288,1.668717,0.2512965,0.145503,1.498317,0.01383009,0.4365786,1.715642,-0.1588937,-0.3269399,1.629619,0.293993,0.1809228,1.493842,0.0138918,-0.0323712,1.738389,0.01519007,-0.3547929,1.726031,-0.158192,0.1783528,1.737005,-0.06593849,-0.3473556,1.687418,-0.2122879,-0.0738958,1.755967,0.2938021,-0.01569033,1.657741,NA,NA,NotTracked,Open,
0.965332,-0.1855469,-0.1333008,-0.03320313,0.9306641,-0.2626953,0,-1,1,1,0,-1,-2,-3,-7,4,0,4,4,2,1,16,-2.3125,-2.3125,-2.3125,11.9375,11.9375,11.9375,1.483693,2.883434,7.886611,7.889632,5.293864,0.4274653,-0.2003174,-0.324315,1.669789,0.2547832,0.1396744,1.498635,0.01380325,0.4365006,1.715539,-0.1583832,-0.3323714,1.626537,0.2948325,0.1743452,1.486387,0.01397405,-0.03251613,1.738337,0.01538331,-0.3548873,1.726134,-0.1583253,0.1782619,1.736384,-0.06577015,-0.3474225,1.68731,-0.2124888,-0.07425113,1.755028,0.2929906,-0.0181518,1.666117,NA,NA,NotTracked,Open,
0.965332,-0.1855469,-0.1333008,0.07519531,0.8901367,-0.2358398,0,-1,1,1,0,-1,-2,-3,15,-3,4,-3,-6,-5,-4,96,-2.3125,-2.3125,-2.3125,6.125,6.125,6.125,1.483693,2.883434,7.886611,7.903589,5.167511,0.4091865,-0.200864,-0.3254108,1.672585,0.2591591,0.123491,1.500499,0.01364982,0.4365372,1.715392,-0.1588801,-0.3312744,1.629575,0.3060756,0.1421278,1.495562,0.01396991,-0.03262201,1.738243,0.01541083,-0.3550006,1.726292,-0.1585926,0.1779884,1.735513,-0.06576329,-0.3474574,1.687333,-0.2130031,-0.07464465,1.754545,0.2913549,-0.02556342,1.691051,NA,NA,NotTracked,Open,
0.965332,-0.1855469,-0.1333008,0.08935547,0.9179688,-0.1645508,0,-1,1,1,0,-1,-2,-3,-15,-6,-2,-3,0,-2,-2,-10,-2.3125,-2.3125,-2.3125,-9.75,-9.75,-9.75,1.483693,2.883434,7.886611,7.907001,4.969449,0.3985038,-0.2017028,-0.3252782,1.676435,0.261391,0.08140893,1.505538,0.01247473,0.4373971,1.714805,-0.1585832,-0.3325823,1.631653,0.2994649,0.03143858,1.4735,0.01384437,-0.03255025,1.738024,0.01537496,-0.3549944,1.726569,-0.1589928,0.1780524,1.734997,-0.06581237,-0.3474516,1.687581,-0.2135778,-0.07483708,1.754408,0.2892599,-0.02663899,1.693897,NA,NA,NotTracked,Open,
0.965332,-0.1855469,-0.1333008,0.2348633,1.046387,-0.1474609,0,-1,1,1,0,-1,-2,-3,2,-6,-3,-1,0,-2,-2,1,-2.3125,-2.3125,-2.3125,-21.8125,-21.8125,-21.8125,1.483693,2.883434,7.886611,7.878028,4.577395,0.392289,-0.2022106,-0.326246,1.679393,0.2614984,-0.002856615,1.525539,0.01070845,0.4385541,1.71406,-0.1595034,-0.3368337,1.636693,0.2951503,-0.03310336,1.511333,0.01336899,-0.03227682,1.737569,0.01510086,-0.3547825,1.727078,-0.1595823,0.1779882,1.734178,-0.06630705,-0.3472721,1.688618,-0.2141964,-0.07521401,1.75513,0.2661152,-0.02362621,1.803054,NA,NA,NotTracked,Unknown,
0.965332,-0.1855469,-0.1333008,0.2514648,1.033691,-0.1225586,0,-1,1,1,0,-1,-2,-3,5,7,7,2,0,0,2,4,-2.3125,-2.3125,-2.3125,-26.6875,-26.6875,-26.6875,1.483693,2.883434,7.886611,7.829461,4.260038,0.3822044,-0.2029304,-0.3265317,1.684769,0.2503691,-0.09058975,1.53044,0.008731632,0.4395757,1.713248,-0.1592333,-0.3340787,1.641067,0.2847539,-0.08230336,1.488824,0.01273101,-0.03185962,1.736939,0.01457149,-0.354567,1.727828,-0.1599676,0.1780515,1.73348,-0.06695429,-0.3471927,1.690013,-0.2147238,-0.07552291,1.756184,0.3155265,0.004419352,1.818444,NA,NA,NotTracked,Unknown,
0.965332,-0.1855469,-0.1333008,0.09082031,1.049316,-0.1376953,0,-1,1,1,0,-1,-2,-3,-4,-5,-5,-4,-3,-2,0,1,-2.3125,-2.3125,-2.3125,-40.5625,-40.5625,-40.5625,1.483693,2.883434,7.886611,7.810678,4.042045,0.3138464,-0.2027034,-0.3260481,1.688452,0.2543818,-0.1839507,1.557804,0.007216622,0.4405015,1.712842,-0.1584229,-0.3171297,1.653667,0.2946365,-0.2286352,1.555143,0.01200765,-0.03144866,1.736172,0.01374725,-0.3543456,1.728848,-0.1603861,0.178169,1.732589,-0.0677899,-0.3470788,1.691475,-0.214964,-0.07558359,1.758243,0.2889624,-0.00966423,1.827683,NA,NA,NotTracked,Unknown,
0.965332,-0.1855469,-0.1333008,0.4204102,0.652832,-0.1538086,0,-1,1,1,0,-1,-2,-3,-5,-8,-9,-6,-2,-3,-3,-2,-2.3125,-2.3125,-2.3125,-21.4375,-21.4375,-21.4375,1.483693,2.883434,7.886611,7.784492,3.858444,0.276693,-0.2029955,-0.3268006,1.6892,0.2461057,-0.2483894,1.633294,0.00632361,0.4414773,1.712624,-0.1607137,-0.3331102,1.64656,0.2890618,-0.2446959,1.598078,0.01153186,-0.03106717,1.735566,0.01324932,-0.3540899,1.729824,-0.1609709,0.1783947,1.731266,-0.06826216,-0.3468848,1.6928,-0.2153905,-0.07603793,1.759375,0.2817186,-0.02007307,1.832701,NA,NA,NotTracked,Unknown,
0.965332,-0.1855469,-0.1333008,0.6401367,0.6938477,-0.09082031,0,-1,1,1,0,-1,-2,-3,2,-3,-6,-2,-4,-2,-23,-3,-2.3125,-2.3125,-2.3125,-13,-13,-13,1.483693,2.883434,7.886611,7.767232,3.595851,0.2694828,-0.2031831,-0.3251913,1.687673,0.2357193,-0.2704475,1.664327,0.005908372,0.4422372,1.712563,-0.1592029,-0.3287077,1.648159,0.2876277,-0.2512572,1.649375,0.01138625,-0.03075393,1.735227,0.01322681,-0.3538994,1.730766,-0.1615857,0.1783981,1.729609,-0.06827027,-0.3467497,1.693716,-0.2154714,-0.07628331,1.760038,0.2748553,-0.03390993,1.837063,NA,NA,NotTracked,NotTracked,
0.965332,-0.1855469,-0.1333008,0.5888672,0.7177734,-0.07714844,0,-1,1,1,0,-1,-2,-3,18,9,3,-1,-1,2,17,11,-2.3125,-2.3125,-2.3125,-11.4375,-11.4375,-11.4375,1.483693,2.883434,7.886611,7.737653,3.438813,0.2788695,-0.2030782,-0.3236361,1.687738,0.2282574,-0.2916529,1.669401,0.005906607,0.442907,1.712924,-0.1598529,-0.3303365,1.647561,0.2659803,-0.3225439,1.650154,0.01135112,-0.03051352,1.73514,0.01363691,-0.3536663,1.732459,-0.1615534,0.1785506,1.727733,-0.06788931,-0.3466291,1.694797,-0.2160058,-0.07610659,1.760107,0.2668529,-0.04752212,1.839334,NA,NA,NotTracked,NotTracked,
0.965332,-0.1855469,-0.1333008,0.7231445,0.6401367,-0.1049805,0,-1,1,1,0,-1,-2,-3,5,2,4,0,1,1,-10,9,-2.3125,-2.3125,-2.3125,-20.4375,-20.4375,-20.4375,1.483693,2.883434,7.886611,7.694124,3.323933,0.2671572,-0.2035126,-0.3243694,1.686089,0.2272201,-0.3226295,1.652944,0.006295756,0.4437376,1.713891,-0.1596737,-0.3271466,1.647781,0.2662299,-0.33779,1.639,0.01145429,-0.03042147,1.735111,0.01428425,-0.3538002,1.733875,-0.16161,0.178143,1.72635,-0.06730511,-0.3467023,1.69586,-0.2166729,-0.0757176,1.759743,0.2575469,-0.0631751,1.836947,NA,NA,NotTracked,NotTracked,
0.965332,-0.1855469,-0.1333008,0.9199219,0.5541992,-0.08349609,0,-1,1,1,0,-1,-2,-3,-3,-1,-2,-1,-3,-9,-54,-25,-2.3125,-2.3125,-2.3125,-22.375,-22.375,-22.375,1.483693,2.883434,7.886611,7.633162,3.257711,0.2831835,-0.203468,-0.3247263,1.686872,0.2225581,-0.3395269,1.657141,0.007791573,0.4445425,1.71616,-0.1610108,-0.3337953,1.64414,0.2555856,-0.3546057,1.641,0.01198243,-0.03032005,1.735493,0.01600904,-0.3543212,1.735859,-0.1614711,0.1778806,1.725274,-0.06571018,-0.3472042,1.697107,-0.2173143,-0.07530457,1.759344,0.2501435,-0.07923919,1.826084,NA,NA,NotTracked,NotTracked,
0.965332,-0.1855469,-0.1333008,1.242188,0.2944336,-0.2670898,0,-1,1,1,0,-1,-2,-3,-7,-4,-5,-5,-2,-14,-32,-19,-2.3125,-2.3125,-2.3125,13.375,13.375,13.375,1.483693,2.883434,7.886611,7.690744,3.155101,0.237045,-0.2032197,-0.3238898,1.686521,0.2219409,-0.3526946,1.658467,0.01038072,0.445555,1.719442,-0.1605906,-0.3341986,1.644943,0.2587404,-0.3545397,1.654176,0.01216642,-0.03023108,1.735962,0.01646728,-0.354641,1.736785,-0.1610134,0.1780102,1.724159,-0.06520059,-0.3474743,1.697534,-0.2181677,-0.07511251,1.758283,0.2460335,-0.08717853,1.815064,NA,NA,NotTracked,NotTracked,
0.965332,-0.1855469,-0.1333008,1.078125,0.1782227,-0.07421875,0,-1,1,1,0,-1,-2,-3,0,0,0,-1,-4,-1,18,5,-2.3125,-2.3125,-2.3125,39.125,39.125,39.125,1.483693,2.883434,7.886611,7.810548,3.077421,0.1464625,-0.203438,-0.3235752,1.686278,0.2227479,-0.3542804,1.658556,0.01328469,0.4463776,1.722697,-0.1592986,-0.33019,1.650712,0.2566816,-0.3604923,1.649199,0.01244974,-0.029954,1.736563,0.01701761,-0.3547373,1.737522,-0.1609023,0.1780388,1.724058,-0.06466777,-0.3476037,1.697975,-0.2187067,-0.0748991,1.757839,0.2460913,-0.08893754,1.810148,NA,NA,NotTracked,NotTracked,
0.965332,-0.1855469,-0.1333008,0.7827148,0.4570313,0.01660156,0,-1,1,1,0,-1,-2,-3,-4,0,-2,-1,7,1,-5,-4,-2.3125,-2.3125,-2.3125,42.625,42.625,42.625,1.483693,2.883434,7.886611,7.816809,3.076696,0.2234116,-0.2041487,-0.3246588,1.688858,0.2251937,-0.3555393,1.660955,0.01589586,0.4473668,1.725495,-0.1602217,-0.3288869,1.648069,0.2582479,-0.3564655,1.65467,0.01286866,-0.02959341,1.737568,0.01773382,-0.3547497,1.738792,-0.1607423,0.1781854,1.724249,-0.06379705,-0.3476917,1.698933,-0.2193522,-0.0748333,1.758106,0.2475934,-0.08895169,1.808163,NA,NA,NotTracked,NotTracked,
0.965332,-0.1855469,-0.1333008,0.8598633,0.4121094,0.04199219,0,-1,1,1,0,-1,-2,-3,-1,-3,-1,2,4,0,1,5,-2.3125,-2.3125,-2.3125,1.375,1.375,1.375,1.483693,2.883434,7.886611,7.797441,3.071688,0.2619041,-0.2035097,-0.3252784,1.690645,0.2258595,-0.35681,1.662629,0.01794119,0.4480457,1.727766,-0.1600764,-0.3317995,1.647437,0.2583365,-0.3596448,1.651601,0.01334608,-0.02943483,1.738222,0.01869967,-0.3549134,1.739497,-0.1604606,0.1781823,1.724582,-0.0628659,-0.3479649,1.699461,-0.2194343,-0.07494012,1.758837,0.2490561,-0.0888577,1.806601,NA,NA,NotTracked,NotTracked,
0.965332,-0.1855469,-0.1333008,0.9365234,0.3295898,-0.02734375,0,-1,1,1,0,-1,-2,-3,-1,0,0,0,8,1,2,3,-2.3125,-2.3125,-2.3125,-3.625,-3.625,-3.625,1.483693,2.883434,7.886611,7.781309,3.063158,0.2723812,-0.2033643,-0.3261607,1.694064,0.2255639,-0.3578908,1.663053,0.01953772,0.448367,1.728941,-0.1597931,-0.3323978,1.64982,0.2588675,-0.3658341,1.656926,0.01378058,-0.02941572,1.739006,0.01954691,-0.3551997,1.740676,-0.1600865,0.1780831,1.724895,-0.06198347,-0.3482484,1.700374,-0.2192126,-0.07587948,1.761071,0.2496955,-0.08940176,1.805274,NA,NA,NotTracked,NotTracked,
0.965332,-0.1855469,-0.1333008,0.9272461,0.3076172,-0.06054688,0,-1,1,1,0,-1,-2,-3,2,-2,-1,-1,2,-1,-1,5,-2.3125,-2.3125,-2.3125,-9.5625,-9.5625,-9.5625,1.483693,2.883434,7.886611,7.770509,3.065353,0.2739448,-0.2031421,-0.3258003,1.695102,0.2253122,-0.3581214,1.661913,0.0207807,0.4485679,1.729568,-0.1596373,-0.3184908,1.6605,0.2584282,-0.3603941,1.652017,0.01401577,-0.02939021,1.739291,0.02000671,-0.3553649,1.741194,-0.1597036,0.1779883,1.72508,-0.06156339,-0.3484465,1.700815,-0.2197146,-0.07567953,1.76296,0.2498087,-0.08950881,1.804393,NA,NA,NotTracked,NotTracked,
0.965332,-0.1855469,-0.1333008,0.9018555,0.3427734,-0.05810547,0,-1,1,1,0,-1,-2,-3,1,0,0,2,6,3,7,6,-2.3125,-2.3125,-2.3125,-9.1875,-9.1875,-9.1875,1.483693,2.883434,7.886611,7.755394,3.067647,0.2613489,-0.2033027,-0.3254192,1.696578,0.2249835,-0.3584799,1.660757,0.02195869,0.4488354,1.729932,-0.1594932,-0.3326233,1.653534,0.259462,-0.3606886,1.653887,0.01426306,-0.02932798,1.739524,0.02032118,-0.3554113,1.741626,-0.1589916,0.1782164,1.725472,-0.06122728,-0.3485291,1.701293,-0.2198505,-0.07559352,1.76495,0.2498894,-0.08976758,1.803629,NA,NA,NotTracked,NotTracked,
