ALX,ALY,ALZ,ARX,ARY,ARZ,EMG0L,EMG1L,EMG2L,EMG3L,EMG4L,EMG5L,EMG6L,EMG7L,EMG0R,EMG1R,EMG2R,EMG3R,EMG4R,EMG5R,EMG6R,EMG7R,GLX,GLY,GLZ,GRX,GRY,GRZ,ORL,OPL,OYL,ORR,OPR,OYR,LHNX,LHNY,LHNZ,RHNX,RHNY,RHNZ,HX,HY,HZ,LTX,LTY,LTZ,RTX,RTY,RTZ,SpineMidX,SpineMidY,SpineMidZ,SpineBaseX,SpineBaseY,SpineBaseZ,ShoulderLeftX,ShoulderLeftY,ShoulderLeftZ,ShoulderRightX,ShoulderRightY,ShoulderRightZ,ElbowLeftX,ElbowLeftY,ElbowLeftZ,ElbowRightX,ElbowRightY,ElbowRightZ,Myo_Pose_left,Myo_Pose_Right,Kinect_pose_left,Kinect_pose_right
0.9663086,-0.2006836,-0.1386719,0.8911133,0.3706055,-0.004394531,-1,-3,7,-1,-4,-1,-1,-1,3,-2,0,-1,5,6,14,9,-1.75,-1.75,-1.75,0.625,0.625,0.625,1.546349,2.887717,6.949966,7.522095,3.127497,0.3004269,-0.1623184,-0.3269924,1.693738,0.2626674,-0.3581143,1.667195,0.06243905,0.4416982,1.736974,-0.1187978,-0.3192519,1.65165,0.2220568,-0.3303408,1.642513,0.05639179,-0.03531123,1.754325,0.05644798,-0.3617257,1.752136,-0.1173966,0.1724468,1.739721,-0.02594131,-0.3542708,1.711377,-0.1823981,-0.07995144,1.776895,0.2841178,-0.09550989,1.825958,NA,NA,NotTracked,NotTracked,
0.9672852,-0.2016602,-0.1386719,0.8945313,0.3618164,-0.009277344,-1,0,8,4,2,-2,-1,2,-3,-3,-1,-2,-10,-11,-12,-8,-1.5,-1.5,-1.5,-0.5625,-0.5625,-0.5625,1.547933,2.888395,6.947604,7.523058,3.127629,0.2992916,-0.1609066,-0.3356314,1.683856,0.2626063,-0.3587143,1.663237,0.06068144,0.4412223,1.735106,-0.1233796,-0.3356583,1.636436,0.2217472,-0.3440139,1.633033,0.05583601,-0.03570807,1.752577,0.05641047,-0.3619789,1.750196,-0.118725,0.1716865,1.738281,-0.02596484,-0.3547342,1.709895,-0.1829956,-0.07986072,1.775477,0.283875,-0.09598612,1.822917,NA,NA,NotTracked,NotTracked,
0.9677734,-0.2070313,-0.1333008,0.8994141,0.3710938,-0.001953125,-1,1,-4,2,2,-1,-2,-1,-2,0,-2,1,6,-1,1,4,-1.625,-1.625,-1.625,-1.0625,-1.0625,-1.0625,1.551515,2.893729,6.939208,7.526538,3.129025,0.2944702,-0.1625436,-0.3335765,1.679051,0.2628803,-0.3592205,1.658279,0.05918168,0.4411722,1.731983,-0.12098,-0.3172362,1.646595,0.2219816,-0.3466267,1.625677,0.05520601,-0.03583327,1.749502,0.05650183,-0.3618797,1.746599,-0.1199863,0.1714702,1.735794,-0.02588133,-0.3548452,1.70678,-0.1838588,-0.07957719,1.772841,0.2838368,-0.09609063,1.819593,NA,NA,NotTracked,NotTracked,
0.9726563,-0.1987305,-0.1347656,0.9077148,0.3642578,-0.005859375,-3,-1,8,5,1,0,0,-1,2,1,-1,-1,-3,3,11,6,-2.9375,-2.9375,-2.9375,-4.9375,-4.9375,-4.9375,1.54592,2.895875,6.940472,7.52178,3.131243,0.2901323,-0.1627441,-0.3344857,1.676365,0.2625491,-0.3584773,1.656601,0.05822517,0.441176,1.729921,-0.1287111,-0.3435684,1.621979,0.220691,-0.3517201,1.622233,0.05468854,-0.03569621,1.746965,0.05640871,-0.3615897,1.743583,-0.1209015,0.171356,1.732914,-0.02591651,-0.3547064,1.703413,-0.1840335,-0.07945202,1.769623,0.2838602,-0.09583952,1.817186,NA,NA,NotTracked,NotTracked,
0.9726563,-0.1987305,-0.125,0.9008789,0.371582,-0.008789063,-1,0,10,5,4,-1,0,-3,0,-2,-1,-2,-3,-4,4,7,-4.25,-4.25,-4.25,-5.5625,-5.5625,-5.5625,1.53264,2.89719,6.945665,7.518397,3.13233,0.2851847,-0.1640527,-0.3341129,1.670265,0.2629186,-0.3587482,1.653795,0.05766534,0.4412807,1.726977,-0.1287659,-0.3391196,1.619341,0.2225673,-0.3464949,1.62297,0.05437344,-0.03570815,1.743089,0.05674378,-0.3615758,1.73874,-0.1212907,0.1709276,1.729181,-0.02561851,-0.3547486,1.698253,-0.1847921,-0.07974838,1.764396,0.2830751,-0.09572527,1.814175,NA,NA,NotTracked,NotTracked,
0.9589844,-0.2045898,-0.1328125,0.894043,0.3671875,-0.01416016,-2,1,7,4,-1,0,0,-1,-3,-3,-2,-1,9,-5,-3,-2,-4.75,-4.75,-4.75,-5.5625,-5.5625,-5.5625,1.523127,2.898963,6.947773,7.514369,3.135255,0.2795599,-0.1634572,-0.3336271,1.665299,0.2619772,-0.3580987,1.649984,0.05746664,0.4410419,1.724437,-0.1279002,-0.3380595,1.613898,0.2226718,-0.3410943,1.622546,0.05417658,-0.03593112,1.739595,0.0565077,-0.3616993,1.734568,-0.1217037,0.1705591,1.725384,-0.02588269,-0.3547897,1.693936,-0.1853628,-0.07949229,1.759489,0.282605,-0.09548394,1.812243,NA,NA,NotTracked,NotTracked,
0.9692383,-0.1982422,-0.1391602,1.08252,0.3564453,-0.1655273,-2,-3,2,-2,-2,-1,0,-2,2,0,-2,0,-1,-1,0,0,-5.125,-5.125,-5.125,-29.5,-29.5,-29.5,1.511527,2.900891,6.951516,7.489527,3.152064,0.2718718,-0.1632593,-0.3357574,1.659248,0.2615514,-0.3580456,1.64754,0.05755465,0.440953,1.721907,-0.1261469,-0.3350805,1.611577,0.2212888,-0.3454066,1.61542,0.05388028,-0.03621883,1.735875,0.05647648,-0.361988,1.730279,-0.1218196,0.1704867,1.720694,-0.02595993,-0.3550655,1.689119,-0.1863396,-0.08031069,1.753339,0.2819822,-0.09607694,1.810431,NA,NA,NotTracked,NotTracked,
0.9584961,-0.2094727,-0.128418,0.9321289,0.5595703,-0.2011719,0,0,0,0,-1,2,-1,-3,3,-5,-2,4,3,-1,-1,-2,-5.375,-5.375,-5.375,-23.4375,-23.4375,-23.4375,1.493184,2.89909,6.957514,7.491817,3.261557,0.2334626,-0.1643575,-0.33449,1.653275,0.2639469,-0.345138,1.644701,0.05739345,0.4412006,1.719708,-0.1296194,-0.3425837,1.599553,0.2230241,-0.3311527,1.613654,0.05341238,-0.03583332,1.732477,0.05579131,-0.3617223,1.726015,-0.1225316,0.1708818,1.716435,-0.02658534,-0.3547528,1.684979,-0.1864101,-0.08077931,1.748824,0.2824363,-0.09506604,1.809756,NA,NA,NotTracked,NotTracked,
0.9633789,-0.1484375,-0.1049805,0.6420898,0.8994141,-0.1665039,-1,-1,-2,-2,-2,-1,-2,-1,-2,1,11,-9,-1,-2,-2,-2,2.75,2.75,2.75,53,53,53,1.484548,2.900537,6.968014,7.596745,3.49256,0.1762841,-0.1643639,-0.3342777,1.646397,0.2625171,-0.3229154,1.63215,0.0570441,0.4415981,1.716714,-0.1285261,-0.336051,1.598942,0.2033134,-0.283697,1.608333,0.05276615,-0.03549433,1.728066,0.05431513,-0.3614067,1.720225,-0.1230225,0.1709285,1.711997,-0.02791672,-0.3542292,1.678684,-0.1868461,-0.08039709,1.743383,0.2880591,-0.08600394,1.808163,NA,NA,NotTracked,NotTracked,
0.9633789,-0.1367188,-0.1274414,0.4829102,0.9477539,-0.08837891,-2,0,-1,-1,-1,-2,0,-2,-7,-1,-1,1,2,-2,1,-10,-2.9375,-2.9375,-2.9375,39.375,39.375,39.375,1.448354,2.896405,7.001084,7.682181,3.803611,0.1323554,-0.166012,-0.3358979,1.643214,0.2858906,-0.2798605,1.606982,0.05693546,0.4417312,1.715916,-0.127776,-0.3348323,1.599549,0.2250277,-0.2886697,1.627572,0.05231073,-0.0352227,1.725713,0.05312032,-0.3609542,1.716667,-0.1233952,0.1706634,1.710287,-0.02901263,-0.353606,1.674738,-0.1877778,-0.08031085,1.739661,0.3026376,-0.06092989,1.801187,NA,NA,NotTracked,NotTracked,
0.9648438,-0.1918945,-0.1113281,0.2055664,1.010742,0.008300781,-1,0,-1,2,0,-1,1,-3,-10,0,7,20,1,0,0,1,-2.625,-2.625,-2.625,15.25,15.25,15.25,1.450116,2.903152,6.995639,7.755533,4.321867,0.1044203,-0.1677237,-0.3355122,1.640377,0.2993536,-0.2011729,1.532705,0.05671849,0.4414878,1.715479,-0.1288724,-0.3341427,1.596217,0.2522766,-0.2147435,1.559897,0.05113921,-0.03553037,1.724014,0.05140704,-0.3616301,1.713049,-0.1237606,0.1698894,1.708781,-0.03065984,-0.3537895,1.671255,-0.1884898,-0.08055345,1.737634,0.3144224,-0.03961666,1.786721,NA,NA,NotTracked,Unknown,
0.9677734,-0.2338867,-0.1191406,-0.06640625,1.219727,0.1054688,0,0,1,5,-2,-2,-1,0,18,-3,4,-21,1,7,3,-5,-2,-2,-2,-28.5,-28.5,-28.5,1.471683,2.920084,6.970836,7.740355,4.93149,0.1236738,-0.1680822,-0.335122,1.635717,0.2821693,-0.09742323,1.433715,0.05663563,0.4413392,1.715513,-0.1266725,-0.3242885,1.601064,0.2424665,-0.09844749,1.435562,0.05064111,-0.03584293,1.723159,0.0502334,-0.3622228,1.709901,-0.1243773,0.1692351,1.708171,-0.03194991,-0.354021,1.66744,-0.1891629,-0.08099566,1.735674,0.3529292,-0.02430546,1.697206,NA,NA,NotTracked,Open,
0.9829102,-0.1943359,-0.1381836,-0.1943359,1.175293,0.1000977,-2,-3,-10,-2,0,-2,-3,1,-28,5,7,10,0,1,-1,-13,-1.8125,-1.8125,-1.8125,-40.3125,-40.3125,-40.3125,1.479031,2.932747,6.96553,7.681778,5.42529,0.1727612,-0.1678755,-0.3340478,1.635316,0.263888,0.05192638,1.408131,0.05700827,0.4411286,1.716484,-0.1298633,-0.3310694,1.590556,0.2583612,0.08438276,1.408778,0.05019119,-0.03600619,1.723045,0.04943371,-0.3624578,1.708385,-0.1245598,0.1689792,1.708221,-0.03280972,-0.3540702,1.665851,-0.189562,-0.08096352,1.73486,0.3675178,-0.05799129,1.615547,NA,NA,NotTracked,Unknown,
0.9711914,-0.1879883,-0.121582,-0.3393555,1.07959,0.1201172,0,0,4,0,-1,-1,-1,0,15,8,-4,-5,6,6,9,-21,-1.6875,-1.6875,-1.6875,-51.5,-51.5,-51.5,1.461185,2.93897,6.979107,7.626822,5.89247,0.2342737,-0.1670485,-0.33383,1.635538,0.2513639,0.1705219,1.4329,0.05800307,0.4407272,1.718653,-0.1276131,-0.3328738,1.591263,0.1839986,0.1876308,1.451714,0.04942415,-0.0367738,1.72346,0.04781107,-0.364421,1.706964,-0.1245229,0.1687927,1.708843,-0.03459962,-0.3553875,1.664567,-0.1899066,-0.08114081,1.734204,0.3420229,-0.02516761,1.62677,NA,NA,NotTracked,Unknown,
0.9609375,-0.1865234,-0.1171875,-0.3847656,0.8671875,0.006835938,-2,-1,3,1,-2,0,-3,0,-8,-11,-18,-22,-2,-2,-2,30,5.6875,5.6875,5.6875,-81.625,-81.625,-81.625,1.447486,2.942397,7.000517,7.548133,6.289563,0.2831368,-0.1674297,-0.3340112,1.636442,0.229826,0.2593718,1.461231,0.05965043,0.4395463,1.721687,-0.1261082,-0.3218161,1.600818,0.1871986,0.2578413,1.506,0.04923377,-0.0369876,1.724044,0.0472916,-0.3641487,1.706312,-0.1233826,0.1677676,1.7115,-0.03568697,-0.3547829,1.663815,-0.1895091,-0.08016244,1.734705,0.3303333,-0.008844845,1.587054,NA,NA,NotTracked,Unknown,
0.9692383,-0.2197266,-0.128418,-0.4111328,0.6552734,0.04931641,-1,0,1,-1,-1,0,-1,-2,2,8,-3,7,-3,-1,-2,-28,15.25,15.25,15.25,-81.125,-81.125,-81.125,1.44816,2.945945,7.021919,7.427174,6.583849,0.313747,-0.1670556,-0.3346515,1.640357,0.2061033,0.3286946,1.492582,0.06095075,0.4377739,1.724963,-0.1259624,-0.3345282,1.59456,0.2016935,0.2942498,1.559312,0.04900408,-0.03809838,1.725752,0.04661282,-0.3648247,1.706321,-0.1174517,0.1660626,1.715985,-0.03673846,-0.3551451,1.664135,-0.1893136,-0.08040112,1.737129,0.3316109,0.02330378,1.527136,NA,NA,NotTracked,Unknown,
0.9511719,-0.2041016,-0.1469727,-0.6318359,0.5004883,-0.03515625,0,0,2,-1,-2,-1,-1,-1,0,2,6,8,0,0,-5,-21,19.4375,19.4375,19.4375,-46.875,-46.875,-46.875,1.448412,2.949807,7.043212,7.338453,6.876668,0.3649707,-0.1592898,-0.3275392,1.647441,0.1941254,0.3683839,1.527837,0.06242681,0.4365026,1.727429,-0.1040212,-0.2890902,1.60341,0.2375785,0.3567249,1.516696,0.04929402,-0.03834889,1.727621,0.04616816,-0.3647846,1.70682,-0.1131655,0.1668008,1.720855,-0.03774717,-0.3548141,1.666549,-0.1886497,-0.08054797,1.741012,0.2981033,0.0660141,1.503599,NA,NA,NotTracked,Unknown,
0.9545898,-0.2382813,-0.1899414,-0.7851563,0.355957,-0.03076172,0,-4,-8,-12,-1,-1,-1,-2,2,1,5,3,1,1,10,25,25.5,25.5,25.5,-48.5,-48.5,-48.5,1.464392,2.959984,7.083726,7.307726,7.018096,0.4269724,-0.1602944,-0.3248139,1.653607,0.1451298,0.4201744,1.606736,0.0631965,0.4359088,1.728732,-0.1030661,-0.2818881,1.605208,0.1815329,0.4437589,1.570556,0.0474911,-0.03762378,1.72885,0.04528592,-0.3642803,1.707599,-0.1185076,0.1685732,1.724914,-0.03947577,-0.3541236,1.669872,-0.1881453,-0.08142992,1.747146,0.2859744,0.07831451,1.501999,NA,NA,NotTracked,Unknown,
0.9501953,-0.2397461,-0.2045898,-0.9287109,0.2646484,-0.0390625,-1,1,4,10,0,-1,-1,0,12,-2,0,9,3,9,38,10,22.875,22.875,22.875,-36.625,-36.625,-36.625,1.470797,2.963226,7.104065,7.325454,7.119468,0.5156103,-0.161235,-0.3250473,1.660553,0.1912154,0.3705432,1.577243,0.06335299,0.4354464,1.729855,-0.1043367,-0.2853113,1.609467,0.2312363,0.369141,1.5704,0.04514117,-0.03709748,1.729999,0.04389901,-0.3639109,1.709239,-0.1180086,0.1690877,1.729517,-0.04134546,-0.3540041,1.673821,-0.1873235,-0.08115894,1.753613,0.2785507,0.08956559,1.495351,NA,NA,NotTracked,Unknown,
0.9428711,-0.2436523,-0.2026367,-0.9624023,0.1953125,-0.04443359,-2,-3,-12,-7,-2,-1,-1,0,0,-4,2,-3,-1,-3,-18,3,15.5,15.5,15.5,-20.6875,-20.6875,-20.6875,1.471703,2.9653,7.133924,7.340055,7.190556,0.5874199,-0.1608992,-0.32714,1.664232,0.1933743,0.356249,1.582275,0.06312252,0.4351383,1.730548,-0.1040288,-0.2913077,1.608522,0.2022104,0.2931844,1.632,0.04375841,-0.03699032,1.730801,0.04260716,-0.3638728,1.710688,-0.1152433,0.1693603,1.734261,-0.04304687,-0.354119,1.676973,-0.1871003,-0.08098309,1.759496,0.2744329,0.09084006,1.493647,NA,NA,NotTracked,Unknown,
0.9511719,-0.237793,-0.2011719,-0.9672852,0.1552734,-0.03759766,-2,0,0,3,-2,0,0,0,-13,-2,1,1,3,21,81,-20,5.25,5.25,5.25,-15.25,-15.25,-15.25,1.465103,2.967473,7.171306,7.33838,7.206056,0.6122633,-0.1615708,-0.3280521,1.668674,0.1911895,0.356623,1.583065,0.06261663,0.4345118,1.731553,-0.1049305,-0.2907312,1.618059,0.2216661,0.3668339,1.586503,0.04255285,-0.03709133,1.731924,0.04142055,-0.3641226,1.71287,-0.1142552,0.168694,1.737602,-0.04427026,-0.3546046,1.680427,-0.1863781,-0.08067345,1.764081,0.2706378,0.09137865,1.492423,NA,NA,NotTracked,Unknown,
0.9453125,-0.2319336,-0.1914063,-0.9833984,0.1625977,-0.001464844,-1,0,2,8,0,-2,-2,-2,11,-3,-5,-2,-3,1,-48,2,2.625,2.625,2.625,-9.25,-9.25,-9.25,1.466563,2.967938,7.173013,7.233482,7.183787,0.5262704,-0.161209,-0.328201,1.669317,0.1905944,0.3583129,1.571965,0.06202232,0.4341861,1.731926,-0.104868,-0.2861494,1.620032,0.1908567,0.2948631,1.575667,0.04170759,-0.03707448,1.732821,0.04070575,-0.3641462,1.714543,-0.1139573,0.1687281,1.739921,-0.04495464,-0.3548386,1.682628,-0.1863092,-0.08075295,1.765981,0.2669306,0.09084515,1.491464,NA,NA,NotTracked,Closed,
0.9394531,-0.2353516,-0.1689453,-1.083008,0.1347656,0.05029297,0,-2,-4,-11,1,-1,1,-1,8,2,2,-59,-5,5,0,15,-2.25,-2.25,-2.25,1.4375,1.4375,1.4375,1.474423,2.973981,7.161416,7.060277,7.102851,0.359041,-0.1615901,-0.3263756,1.672331,0.1938894,0.3522405,1.543261,0.06051369,0.4340851,1.732659,-0.1047249,-0.2919169,1.620436,0.1872135,0.3142666,1.623286,0.04106592,-0.03709492,1.733693,0.04022877,-0.3642412,1.716246,-0.1141693,0.1691361,1.741612,-0.04537676,-0.3551266,1.685251,-0.1861877,-0.08164737,1.768312,0.2528291,0.1366012,1.477998,NA,NA,NotTracked,Unknown,
0.9394531,-0.2353516,-0.1689453,-1.053711,0.2504883,0.05908203,-1,0,1,-8,-5,-3,-1,0,-13,-6,-10,7,16,-77,-29,-41,-2.25,-2.25,-2.25,-21.75,-21.75,-21.75,1.474423,2.973981,7.161416,6.918098,6.914268,0.2221086,-0.1738007,-0.3254551,1.679634,0.1848661,0.3819164,1.510846,0.05901393,0.43398,1.734201,-0.1332226,-0.3264283,1.630359,0.1511726,0.3914517,1.546364,0.04076578,-0.03719618,1.734623,0.04039375,-0.3644122,1.717716,-0.114921,0.169378,1.74458,-0.04503094,-0.3555954,1.686995,-0.1863014,-0.0829718,1.770342,0.2511246,0.136009,1.478103,NA,NA,NotTracked,Unknown,
0.9511719,-0.2402344,-0.1879883,-0.9331055,0.3999023,0.3251953,0,-1,0,5,0,1,-2,0,1,4,9,57,11,20,20,7,-3.75,-3.75,-3.75,-16.3125,-16.3125,-16.3125,1.496276,2.991107,7.128971,6.791402,6.545269,0.1500711,-0.1735175,-0.3272764,1.679818,0.2057593,0.341027,1.425934,0.05719307,0.4331044,1.73773,-0.13357,-0.3227687,1.631086,0.1705431,0.3488767,1.476,0.04240325,-0.03848278,1.738124,0.0403933,-0.3644601,1.71985,-0.1177263,0.1686905,1.748003,-0.04457382,-0.3560511,1.689675,-0.1870804,-0.08467185,1.772482,0.2471258,0.1411953,1.47306,NA,NA,NotTracked,Unknown,
0.9555664,-0.237793,-0.1777344,-0.8017578,0.7124023,0.3725586,-1,-2,-1,0,0,0,-1,0,-6,-2,-3,6,5,0,-46,-6,-6.6875,-6.6875,-6.6875,-26.4375,-26.4375,-26.4375,1.496047,3.000113,7.118065,6.763776,6.223864,0.1473555,-0.1732548,-0.3261278,1.678822,0.2136595,0.3222462,1.343342,0.05605244,0.4317754,1.741419,-0.1372558,-0.332919,1.620778,0.1824643,0.3073804,1.359176,0.04389601,-0.03943624,1.742029,0.04038093,-0.3644413,1.721178,-0.1289615,0.1684768,1.743295,-0.04425065,-0.3565214,1.691319,-0.1875013,-0.08553865,1.773333,0.2475365,0.1194117,1.445614,NA,NA,NotTracked,Unknown,
0.9487305,-0.2426758,-0.1704102,-0.456543,0.7563477,0.4077148,-2,-2,-1,0,2,0,-3,-1,5,-2,2,-31,-9,-23,-34,7,-9.6875,-9.6875,-9.6875,-36.875,-36.875,-36.875,1.495001,3.007986,7.104012,6.70895,5.888556,0.1571418,-0.1607424,-0.3302964,1.671912,0.219225,0.3015837,1.265587,0.05547737,0.4314283,1.746632,-0.1055353,-0.2890444,1.6255,0.1873759,0.2891907,1.284143,0.04405297,-0.04002721,1.745379,0.04048057,-0.3648745,1.722395,-0.128588,0.1656746,1.751241,-0.04379673,-0.3573623,1.692927,-0.1878519,-0.08627851,1.774261,0.2502006,0.1083409,1.429902,NA,NA,NotTracked,Unknown,
0.949707,-0.2558594,-0.1621094,-0.015625,0.6655273,0.4555664,-1,-3,-1,2,0,-3,-3,0,8,4,5,-5,5,5,8,-6,-8.9375,-8.9375,-8.9375,0.375,0.375,0.375,1.491834,3.016154,7.092089,6.655408,5.507705,0.1631547,-0.1685815,-0.3414847,1.666481,0.2232544,0.2725589,1.204936,0.05464486,0.4317494,1.75105,-0.1326496,-0.34211,1.619095,0.1840034,0.2808961,1.200667,0.04441009,-0.04020743,1.747668,0.04053635,-0.3651339,1.723059,-0.1327765,0.1661725,1.747559,-0.0436362,-0.35806,1.694385,-0.1882931,-0.0870385,1.775156,0.2562112,0.08333942,1.423701,NA,NA,NotTracked,Unknown,
0.9589844,-0.2485352,-0.1499023,-0.03320313,0.7714844,0.5024414,0,1,-1,-6,-4,0,1,2,-12,-4,5,-18,8,-1,-12,-8,0.75,0.75,0.75,-10.1875,-10.1875,-10.1875,1.492742,3.026911,7.084908,6.636021,5.335426,0.1663355,-0.1665337,-0.3443398,1.6633,0.2244899,0.2456227,1.175356,0.05348624,0.4321683,1.755602,-0.1266335,-0.3184815,1.639971,0.1835874,0.2801017,1.186571,0.04350753,-0.04028331,1.749065,0.04018992,-0.3658089,1.724227,-0.1320851,0.1631364,1.755358,-0.04367119,-0.3590991,1.696631,-0.188536,-0.08820589,1.776234,0.2558236,0.07923362,1.421474,NA,NA,NotTracked,Closed,
0.9648438,-0.2817383,-0.1640625,-0.03369141,0.8271484,0.4921875,1,-1,-1,7,2,1,-1,-1,-4,-1,5,-10,9,11,23,-3,8.375,8.375,8.375,-4.875,-4.875,-4.875,1.500567,3.031133,7.087271,6.629509,5.259196,0.1695298,-0.1672777,-0.3475667,1.663784,0.2251366,0.2315477,1.16427,0.05300881,0.4321468,1.75762,-0.1271897,-0.3152299,1.642574,0.1836564,0.2708848,1.162125,0.04396445,-0.04081125,1.750955,0.0400717,-0.3663581,1.724809,-0.1304277,0.1614417,1.760011,-0.04352201,-0.3600121,1.698005,-0.1886719,-0.08915149,1.777721,0.2551481,0.07421765,1.420007,NA,NA,NotTracked,Closed,
0.9316406,-0.2841797,-0.2094727,-0.4111328,0.8530273,0.08837891,0,-3,-2,0,-3,-2,-2,1,-5,-5,-6,-7,9,-14,-5,-12,11.8125,11.8125,11.8125,7.375,7.375,7.375,1.509015,3.03173,7.099988,6.646956,5.255267,0.1750558,-0.1676038,-0.3422111,1.668252,0.2258514,0.2261415,1.164495,0.05257134,0.4322302,1.759091,-0.1290364,-0.3370492,1.626508,0.1832612,0.2661667,1.163527,0.04395726,-0.04104781,1.751978,0.03969321,-0.3667639,1.725362,-0.129857,0.1610187,1.762634,-0.0437217,-0.3604954,1.699005,-0.1887932,-0.08948486,1.779205,0.2545494,0.06863359,1.420485,NA,NA,NotTracked,Closed,
0.9306641,-0.2709961,-0.2207031,0.03955078,0.7832031,1.115723,-2,-3,-2,0,-3,-1,1,-2,15,8,5,20,1,-8,9,34,3.375,3.375,3.375,34.75,34.75,34.75,1.504414,3.029809,7.115865,6.612576,5.223869,0.1652988,-0.1670093,-0.3461914,1.66705,0.2257027,0.2180358,1.169835,0.05242143,0.4324311,1.759491,-0.1269293,-0.3169695,1.644231,0.1839657,0.2545356,1.164889,0.04412678,-0.04129926,1.75293,0.03929528,-0.3671953,1.72632,-0.1296106,0.1606292,1.763478,-0.04385873,-0.360806,1.700038,-0.1886902,-0.08994298,1.780551,0.254219,0.05964448,1.423716,NA,NA,NotTracked,Closed,
0.9379883,-0.2563477,-0.2080078,-0.3334961,0.4555664,-0.06396484,-2,1,3,3,0,-2,-1,-2,2,3,8,0,4,-1,-4,-12,-0.6875,-0.6875,-0.6875,106.875,106.875,106.875,1.493729,3.026099,7.127494,6.753586,5.266133,0.1518354,-0.1670724,-0.3482309,1.666089,0.2211276,0.205464,1.174838,0.05237032,0.4325045,1.759506,-0.1284567,-0.317721,1.645037,0.1719176,0.2440216,1.166222,0.04423639,-0.04132354,1.753477,0.03919195,-0.3673109,1.727008,-0.129292,0.1606942,1.763702,-0.04385266,-0.3607937,1.700545,-0.1885068,-0.08997782,1.781528,0.2602904,0.04411642,1.429529,NA,NA,NotTracked,Closed,
0.9599609,-0.2509766,-0.159668,0.1210938,0.8354492,0.1972656,0,-1,-2,-16,-4,-1,0,-2,2,-1,-2,-1,0,0,1,6,-1.5,-1.5,-1.5,155.375,155.375,155.375,1.493893,3.014062,7.119318,6.990075,5.254842,0.1531701,-0.1687124,-0.341479,1.671547,0.2123046,0.1646897,1.185631,0.05200634,0.432732,1.759099,-0.1306646,-0.3365074,1.629032,0.1632995,0.1644259,1.163846,0.0432423,-0.04091217,1.752452,0.03929366,-0.3673662,1.727384,-0.1291974,0.1606373,1.763801,-0.04379475,-0.360764,1.7007,-0.18855,-0.08966172,1.781787,0.2749646,0.02410167,1.432917,NA,NA,NotTracked,Unknown,
0.9619141,-0.2543945,-0.1616211,-0.2407227,0.9599609,0.4702148,-1,0,1,2,-1,0,-1,-1,-3,4,-4,-4,-4,-4,-3,0,5.3125,5.3125,5.3125,135.375,135.375,135.375,1.513707,3.005818,7.104244,7.324275,5.137733,0.2036468,-0.169773,-0.3397749,1.674478,0.2129572,0.09096806,1.207647,0.05069098,0.4333189,1.757506,-0.1322902,-0.3388481,1.628,0.2020408,0.05564016,1.212,0.04326659,-0.04109587,1.752541,0.03934822,-0.3680036,1.727968,-0.1297685,0.1607838,1.763858,-0.04367193,-0.3610693,1.700933,-0.1886211,-0.08976028,1.782121,0.2904982,-0.01152547,1.488271,NA,NA,NotTracked,Closed,
0.9794922,-0.2524414,-0.1723633,0.3823242,1.098633,0.04931641,-1,2,0,-1,-2,0,-2,-2,1,7,1,3,1,1,0,1,6.4375,6.4375,6.4375,122.4375,122.4375,122.4375,1.519053,3.002789,7.102491,7.542649,4.93455,0.2462753,-0.1696411,-0.3445384,1.67244,0.2213916,-0.005702457,1.237889,0.04802495,0.4340875,1.754387,-0.1281241,-0.3160564,1.649714,0.2390347,-0.01722104,1.215781,0.04322058,-0.04112398,1.752484,0.03935171,-0.3680801,1.728354,-0.1308399,0.1611817,1.763654,-0.04353816,-0.3611254,1.701069,-0.1887234,-0.08967396,1.782324,0.306963,-0.04437098,1.491276,NA,NA,NotTracked,Closed,
0.9575195,-0.2470703,-0.1640625,0.3496094,1.196777,-0.1611328,-2,0,0,-2,0,-1,-1,-3,-3,-6,-6,-1,-1,1,0,1,1.25,1.25,1.25,94.25,94.25,94.25,1.542881,2.983726,7.097563,7.753448,4.546322,0.3007962,-0.1681906,-0.3511601,1.670486,0.2385087,-0.1076631,1.290761,0.04481027,0.4351025,1.748912,-0.128629,-0.3184159,1.648511,0.2372001,-0.06817696,1.262308,0.04298489,-0.04106048,1.75191,0.03930029,-0.3680549,1.728548,-0.1324116,0.1616587,1.76223,-0.04351176,-0.3610436,1.700976,-0.1887901,-0.08929703,1.78247,0.3307047,-0.02629813,1.635806,NA,NA,NotTracked,Unknown,
0.9536133,-0.2583008,-0.1542969,0.5541992,1.203613,-0.2026367,-1,-1,-3,-3,1,-1,-2,-2,-7,-9,-4,-3,-4,-1,-4,-4,4.75,4.75,4.75,61.75,61.75,61.75,1.549575,2.972002,7.097105,7.863242,4.22397,0.3000946,-0.1705494,-0.3524389,1.67148,0.2706014,-0.1977669,1.377607,0.04214467,0.4355801,1.743814,-0.129106,-0.3195934,1.648813,0.2442264,-0.144966,1.359923,0.04247198,-0.04088771,1.750341,0.03918601,-0.3680273,1.728621,-0.1338382,0.1622608,1.759738,-0.04357126,-0.360934,1.700722,-0.1889583,-0.08907393,1.78234,0.3754933,-0.0312766,1.65138,NA,NA,NotTracked,Closed,
0.9750977,-0.2456055,-0.1586914,0.6630859,0.9946289,-0.1142578,-2,-2,2,3,2,-1,-3,0,4,3,1,4,0,0,0,4,2.25,2.25,2.25,56.5,56.5,56.5,1.549492,2.957076,7.105167,7.924482,3.923342,0.3355497,-0.1740849,-0.3393461,1.680693,0.2973427,-0.2693083,1.469536,0.0404092,0.4362929,1.738565,-0.1376585,-0.3374112,1.633408,0.2509009,-0.2951357,1.508833,0.04192594,-0.04081381,1.747867,0.03869922,-0.3680784,1.728669,-0.1346635,0.1628917,1.755645,-0.04416848,-0.3607955,1.700114,-0.18908,-0.08900515,1.782175,0.3613797,-0.0386927,1.697108,NA,NA,NotTracked,Unknown,
0.953125,-0.2348633,-0.159668,0.684082,1.079102,-0.1855469,0,-1,3,2,1,-2,-1,0,-29,-7,-1,3,0,-9,0,-7,2.9375,2.9375,2.9375,4.1875,4.1875,4.1875,1.539506,2.94,7.117118,7.935814,3.697984,0.3820003,-0.1692791,-0.3471981,1.67349,0.3119798,-0.2976197,1.555659,0.03968019,0.4366904,1.731805,-0.1327123,-0.3326404,1.636141,0.2673962,-0.3051198,1.604579,0.041749,-0.0407513,1.744765,0.03851246,-0.3680772,1.728515,-0.1347264,0.1638226,1.750682,-0.04463258,-0.3605797,1.698734,-0.1891856,-0.0893397,1.781028,0.3588819,-0.04514378,1.720331,NA,NA,NotTracked,Unknown,
0.9418945,-0.2128906,-0.1474609,0.5551758,0.8032227,0.02490234,-1,0,-4,-7,-3,-2,-1,-3,-12,-11,-5,0,1,2,11,-1,-2.3125,-2.3125,-2.3125,-51.3125,-51.3125,-51.3125,1.524535,2.923081,7.134765,7.790091,3.511521,0.4525012,-0.1694401,-0.3509378,1.670702,0.3072951,-0.2962282,1.61709,0.04082432,0.4369868,1.725428,-0.1317632,-0.3266171,1.641478,0.2555664,-0.2956064,1.655,0.04226854,-0.04052682,1.741684,0.03849313,-0.3680265,1.728428,-0.1335783,0.1642637,1.743758,-0.04465765,-0.3602986,1.697361,-0.1893271,-0.08853999,1.778557,0.3610928,-0.05013923,1.753248,NA,NA,NotTracked,Open,
0.9399414,-0.2167969,-0.1508789,0.4267578,0.7973633,-0.02587891,-1,-1,-1,-2,-2,-2,0,1,21,-7,-5,-2,-1,2,1,4,-7.9375,-7.9375,-7.9375,-77.625,-77.625,-77.625,1.511875,2.910251,7.136929,7.634135,3.469639,0.5047677,-0.1720281,-0.3403054,1.677581,0.2908026,-0.2911287,1.650907,0.04273831,0.4373337,1.721292,-0.1352738,-0.3405916,1.62936,0.2350824,-0.2641317,1.676143,0.04332215,-0.04022833,1.73921,0.03878245,-0.3677619,1.728243,-0.1319958,0.1653133,1.738067,-0.04416639,-0.3598259,1.69608,-0.1891978,-0.08789619,1.77599,0.3550895,-0.05146267,1.781956,NA,NA,NotTracked,NotTracked,
0.9560547,-0.1757813,-0.1450195,0.4907227,0.6230469,-0.1508789,-1,-1,-5,-3,1,1,-1,-2,-8,3,4,0,0,6,-1,-5,-11.375,-11.375,-11.375,-61.1875,-61.1875,-61.1875,1.496025,2.897677,7.136523,7.546566,3.496995,0.4714283,-0.172677,-0.3400617,1.674254,0.2827545,-0.289996,1.654523,0.045472,0.4377941,1.716875,-0.1332404,-0.3266031,1.637117,0.2285399,-0.2470591,1.672,0.04466457,-0.04009544,1.736709,0.03941188,-0.3673888,1.727691,-0.1300695,0.1656963,1.731518,-0.0433824,-0.3593261,1.694453,-0.1887482,-0.08736923,1.771453,0.3427842,-0.05414864,1.799123,NA,NA,NotTracked,NotTracked,
0.9638672,-0.1669922,-0.140625,0.6879883,0.637207,-0.1259766,-1,1,2,5,-1,0,-1,-2,5,-1,-3,-4,-1,-1,-2,2,-16.5,-16.5,-16.5,-10,-10,-10,1.481246,2.885085,7.124246,7.502928,3.475825,0.4265332,-0.1714112,-0.3404327,1.671332,0.2774258,-0.297445,1.647377,0.04823164,0.4378395,1.713785,-0.1314724,-0.3238477,1.637613,0.2224036,-0.2455176,1.658714,0.04563281,-0.04012712,1.734729,0.04057054,-0.3670405,1.726867,-0.1286764,0.1656488,1.726281,-0.04190326,-0.3588204,1.692281,-0.1889111,-0.08810521,1.765631,0.3306145,-0.06232792,1.808054,NA,NA,NotTracked,NotTracked,
0.9663086,-0.1767578,-0.1357422,0.7587891,0.546875,-0.04345703,-2,-1,-1,0,0,-1,-1,-1,-3,1,-1,2,2,-8,-3,-8,-23.3125,-23.3125,-23.3125,24.1875,24.1875,24.1875,1.490847,2.868076,7.05477,7.43578,3.408442,0.546271,-0.1707924,-0.3406454,1.669536,0.2603293,-0.3166684,1.645613,0.05024241,0.4377502,1.712467,-0.1343094,-0.3346483,1.63095,0.2061481,-0.2718665,1.6285,0.04645655,-0.04023657,1.733583,0.042113,-0.3669386,1.726124,-0.1274945,0.1655099,1.721331,-0.04013365,-0.3586854,1.690238,-0.1891765,-0.08729039,1.760032,0.3205036,-0.07239511,1.806007,NA,NA,NotTracked,NotTracked,
