ALX,ALY,ALZ,ARX,ARY,ARZ,EMG0L,EMG1L,EMG2L,EMG3L,EMG4L,EMG5L,EMG6L,EMG7L,EMG0R,EMG1R,EMG2R,EMG3R,EMG4R,EMG5R,EMG6R,EMG7R,GLX,GLY,GLZ,GRX,GRY,GRZ,ORL,OPL,OYL,ORR,OPR,OYR,LHNX,LHNY,LHNZ,RHNX,RHNY,RHNZ,HX,HY,HZ,LTX,LTY,LTZ,RTX,RTY,RTZ,SpineMidX,SpineMidY,SpineMidZ,SpineBaseX,SpineBaseY,SpineBaseZ,ShoulderLeftX,ShoulderLeftY,ShoulderLeftZ,ShoulderRightX,ShoulderRightY,ShoulderRightZ,ElbowLeftX,ElbowLeftY,ElbowLeftZ,ElbowRightX,ElbowRightY,ElbowRightZ,Myo_Pose_left,Myo_Pose_Right,Kinect_pose_left,Kinect_pose_right
0.965332,-0.2319336,-0.1679688,0.9555664,0.3969727,-0.08447266,-2,0,-2,3,0,0,-1,1,-5,-2,-4,-2,-4,-2,-2,-4,10.1875,10.1875,10.1875,0.125,0.125,0.125,1.543685,2.932795,7.03435,7.533614,3.198586,0.4011735,-0.1832696,-0.3411976,1.691885,0.248685,-0.3531905,1.618256,0.05482722,0.4343478,1.721819,-0.1409566,-0.3407152,1.64597,0.2098036,-0.338706,1.59671,0.04893405,-0.04089525,1.736942,0.03852489,-0.3662601,1.722279,-0.1210594,0.169376,1.74281,-0.04392345,-0.3569012,1.687815,-0.1873042,-0.08567932,1.780287,0.3070851,-0.09946065,1.775817,NA,NA,NotTracked,NotTracked,
0.965332,-0.2319336,-0.1679688,0.9150391,0.5366211,-0.09960938,-2,0,-2,3,0,0,-1,1,1,1,1,1,1,-1,1,0,10.1875,10.1875,10.1875,33,33,33,1.543685,2.932795,7.03435,7.582192,3.275617,0.4218613,-0.1840246,-0.3405159,1.690144,0.247551,-0.3334778,1.619755,0.05290024,0.4344242,1.722222,-0.1414036,-0.3375712,1.646935,0.1913306,-0.2804008,1.602799,0.047745,-0.04087578,1.736973,0.03808735,-0.3662593,1.722245,-0.122981,0.1693904,1.742823,-0.04438818,-0.3570135,1.687694,-0.189322,-0.08553402,1.780136,0.3122632,-0.09374255,1.777354,NA,NA,NotTracked,NotTracked,
0.965332,-0.2319336,-0.1679688,0.7167969,0.6474609,-0.06884766,-2,0,-2,3,0,0,-1,1,-9,-10,-1,-4,-3,-3,-3,-4,10.1875,10.1875,10.1875,45.125,45.125,45.125,1.543685,2.932795,7.03435,7.676066,3.467937,0.4230342,-0.1843531,-0.3410398,1.690302,0.2494727,-0.3316728,1.61492,0.05202584,0.4345879,1.722311,-0.1420605,-0.3390163,1.645074,0.1910134,-0.2822625,1.601704,0.04690453,-0.04065501,1.737007,0.03766053,-0.3661552,1.722167,-0.1239771,0.1694263,1.742613,-0.04487145,-0.357004,1.68749,-0.1903039,-0.08577906,1.779466,0.3151666,-0.09029193,1.776783,NA,NA,NotTracked,NotTracked,
0.965332,-0.2319336,-0.1679688,0.6953125,0.7241211,-0.1010742,-2,0,-2,3,0,0,-1,1,-3,-1,-1,0,-2,-3,-2,-4,10.1875,10.1875,10.1875,43.0625,43.0625,43.0625,1.543685,2.932795,7.03435,7.723741,3.587034,0.4226461,-0.1844778,-0.3407018,1.68925,0.2549597,-0.3289643,1.609535,0.05107939,0.4346818,1.722666,-0.1416846,-0.3392937,1.644902,0.19401,-0.2951786,1.600692,0.0463739,-0.04060297,1.737032,0.03751749,-0.3661223,1.722126,-0.1250778,0.1693844,1.742423,-0.04504326,-0.3570178,1.68737,-0.1913046,-0.08564738,1.779075,0.3190524,-0.08571966,1.774937,NA,NA,NotTracked,NotTracked,
0.965332,-0.2319336,-0.1679688,0.6953125,0.7241211,-0.1010742,-2,0,-2,3,0,0,-1,1,-4,0,-12,-3,-2,-2,-3,-2,10.1875,10.1875,10.1875,43.0625,43.0625,43.0625,1.543685,2.932795,7.03435,7.723741,3.587034,0.4226461,-0.185279,-0.3409149,1.688898,0.2604353,-0.3228306,1.603077,0.05015232,0.434587,1.722899,-0.1432024,-0.3386943,1.644203,0.1988424,-0.2897038,1.605277,0.04565262,-0.0406206,1.737134,0.03717437,-0.3660912,1.722094,-0.1258564,0.1691968,1.742409,-0.04544035,-0.357035,1.68724,-0.1921691,-0.08562693,1.778621,0.3239614,-0.07998069,1.771588,NA,NA,NotTracked,NotTracked,
0.965332,-0.2319336,-0.1679688,0.6704102,0.7587891,-0.1191406,-2,0,-2,3,0,0,-1,1,1,-12,-9,-5,-3,-2,1,0,10.1875,10.1875,10.1875,41.25,41.25,41.25,1.543685,2.932795,7.03435,7.749477,3.652579,0.4190146,-0.1863751,-0.3405851,1.688731,0.2659745,-0.3114713,1.593957,0.04925748,0.4345499,1.72346,-0.1445107,-0.341415,1.643258,0.2044752,-0.2861002,1.614289,0.04476981,-0.04049272,1.737332,0.0368651,-0.3660121,1.722105,-0.1268819,0.1690457,1.742394,-0.04579442,-0.3570111,1.687133,-0.1930416,-0.08560097,1.778235,0.3269938,-0.07286347,1.770796,NA,NA,NotTracked,Unknown,
0.965332,-0.2319336,-0.1679688,0.5629883,0.9194336,-0.1967773,-2,0,-2,3,0,0,-1,1,-6,1,4,0,0,3,6,8,10.1875,10.1875,10.1875,5.125,5.125,5.125,1.543685,2.932795,7.03435,7.80194,3.893159,0.3866496,-0.1866891,-0.3410054,1.68643,0.2757177,-0.2766598,1.566541,0.04843706,0.4346943,1.723913,-0.1440016,-0.336552,1.64391,0.2117544,-0.2982857,1.61481,0.04432357,-0.04040377,1.737387,0.03670319,-0.3659247,1.722024,-0.1276932,0.1691047,1.742382,-0.04599712,-0.3569661,1.686978,-0.1938916,-0.08497816,1.777875,0.3300238,-0.06199237,1.766885,NA,NA,NotTracked,Unknown,
0.965332,-0.2319336,-0.1679688,0.5629883,0.9194336,-0.1967773,-2,0,-2,3,0,0,-1,1,0,2,4,1,1,0,0,0,10.1875,10.1875,10.1875,5.125,5.125,5.125,1.543685,2.932795,7.03435,7.80194,3.893159,0.3866496,-0.1864206,-0.3405844,1.687566,0.2787334,-0.2403366,1.53062,0.04748298,0.4346951,1.724482,-0.1451104,-0.3391911,1.642413,0.234532,-0.2371019,1.57195,0.04365823,-0.04043637,1.737591,0.03647319,-0.3659039,1.721977,-0.1285082,0.1689643,1.742496,-0.04629475,-0.357022,1.686871,-0.1945057,-0.08512606,1.777861,0.3317096,-0.05112269,1.762523,NA,NA,NotTracked,Unknown,
0.965332,-0.2319336,-0.1679688,0.3662109,0.9467773,-0.1391602,-2,0,-2,3,0,0,-1,1,-6,-11,-6,-6,-3,-4,-4,-5,10.1875,10.1875,10.1875,-21.1875,-21.1875,-21.1875,1.543685,2.932795,7.03435,7.812331,4.201634,0.3190791,-0.185689,-0.3413882,1.685903,0.2740174,-0.1957478,1.498981,0.04680939,0.4347975,1.725129,-0.1451258,-0.3337999,1.642912,0.2247094,-0.2018843,1.559,0.04298655,-0.04041189,1.737931,0.0362039,-0.3658906,1.722041,-0.1292733,0.1688458,1.742592,-0.0465521,-0.3570452,1.686851,-0.1951227,-0.08518998,1.777626,0.3346972,-0.04221997,1.759899,NA,NA,NotTracked,Unknown,
0.965332,-0.2319336,-0.1679688,0.1601563,1.0625,-0.06787109,-2,0,-2,3,0,0,-1,1,-14,-6,-2,-3,-1,-2,-4,-5,10.1875,10.1875,10.1875,-18.3125,-18.3125,-18.3125,1.543685,2.932795,7.03435,7.799345,4.566564,0.2759261,-0.1870947,-0.3410228,1.685686,0.2625769,-0.1508633,1.458696,0.04611951,0.4348913,1.726047,-0.1455706,-0.3308189,1.644657,0.2092248,-0.1651624,1.463323,0.04241988,-0.04039149,1.738193,0.0360707,-0.3658812,1.722073,-0.1299061,0.1686504,1.742559,-0.04678128,-0.3570125,1.686667,-0.1959947,-0.08481801,1.777372,0.3382055,-0.04021699,1.758657,NA,NA,NotTracked,Unknown,
0.965332,-0.2319336,-0.1679688,0,1.11084,-0.06396484,-2,0,-2,3,0,0,-1,1,-22,3,2,1,1,-1,0,-6,10.1875,10.1875,10.1875,-14.5,-14.5,-14.5,1.543685,2.932795,7.03435,7.7803,4.830254,0.2751343,-0.1876012,-0.3404783,1.685608,0.2466822,-0.09963233,1.423855,0.04570185,0.4348404,1.726441,-0.14573,-0.3380173,1.64134,0.1947964,-0.09670626,1.436084,0.04195222,-0.04041228,1.738506,0.03602625,-0.3658824,1.722122,-0.1303603,0.1686014,1.742534,-0.04681229,-0.3570265,1.686614,-0.1963462,-0.08454908,1.777221,0.3630882,-0.01886553,1.653418,NA,NA,NotTracked,Unknown,
0.965332,-0.2319336,-0.1679688,-0.03320313,1.112793,-0.07128906,-2,0,-2,3,0,0,-1,1,1,-4,1,-1,-3,-1,-1,-3,10.1875,10.1875,10.1875,-12.875,-12.875,-12.875,1.543685,2.932795,7.03435,7.771731,4.965827,0.2789868,-0.1880581,-0.340009,1.684362,0.2336276,0.03130033,1.409838,0.04502977,0.43491,1.727846,-0.1465645,-0.338856,1.640107,0.1998662,0.05380495,1.391917,0.04095818,-0.04029823,1.739233,0.03588286,-0.3658489,1.722304,-0.1311876,0.1682688,1.742426,-0.04693613,-0.3570887,1.686664,-0.1973321,-0.0843207,1.776517,0.347142,-0.06177504,1.641829,NA,NA,NotTracked,Unknown,
0.965332,-0.2319336,-0.1679688,-0.2412109,1.080078,-0.1040039,-2,0,-2,3,0,0,-1,1,4,9,8,6,4,3,0,2,10.1875,10.1875,10.1875,-8.0625,-8.0625,-8.0625,1.543685,2.932795,7.03435,7.750163,5.371812,0.3020669,-0.1877427,-0.3396759,1.683449,0.2230201,0.08762532,1.408285,0.04490859,0.4349626,1.728433,-0.1462156,-0.3301061,1.644979,0.2230744,0.116138,1.414941,0.0407286,-0.04028326,1.739528,0.03591669,-0.3657917,1.722411,-0.1316764,0.1681928,1.742316,-0.04690896,-0.3570864,1.686676,-0.1981151,-0.08455129,1.776015,0.3623313,-0.06543886,1.636549,NA,NA,NotTracked,Unknown,
0.965332,-0.2319336,-0.1679688,-0.2963867,1.064941,-0.1064453,-2,0,-2,3,0,0,-1,1,6,1,0,-1,-2,-1,2,1,10.1875,10.1875,10.1875,-3.3125,-3.3125,-3.3125,1.543685,2.932795,7.03435,7.750465,5.626534,0.3209446,-0.1872581,-0.340068,1.682388,0.2201202,0.1388739,1.421573,0.04488941,0.4349808,1.729339,-0.1473608,-0.3397879,1.636521,0.2246672,0.1756353,1.435182,0.04036462,-0.04061884,1.739918,0.03577747,-0.3663838,1.722602,-0.1319925,0.1680308,1.742315,-0.04711969,-0.357778,1.686733,-0.1986976,-0.08467768,1.7755,0.3536886,-0.02708034,1.587645,NA,NA,NotTracked,Unknown,
0.965332,-0.2319336,-0.1679688,-0.3691406,1.021484,-0.09277344,-2,0,-2,3,0,0,-1,1,12,3,-1,0,-1,2,3,15,10.1875,10.1875,10.1875,-11.3125,-11.3125,-11.3125,1.543685,2.932795,7.03435,7.748485,5.748536,0.3325267,-0.1874171,-0.3402683,1.683529,0.211665,0.1819277,1.437144,0.04469654,0.4349949,1.729934,-0.1448257,-0.3369871,1.641783,0.2288097,0.2169381,1.4435,0.03997449,-0.04056754,1.740428,0.0357062,-0.3663958,1.722738,-0.1321883,0.167877,1.742461,-0.0471783,-0.3577539,1.68671,-0.1989754,-0.08373033,1.775267,0.3514141,-0.02048728,1.58308,NA,NA,NotTracked,Closed,
0.965332,-0.2319336,-0.1679688,-0.4467773,0.8813477,-0.06445313,-2,0,-2,3,0,0,-1,1,-14,-11,-5,-5,-2,-3,-3,-48,10.1875,10.1875,10.1875,-14.1875,-14.1875,-14.1875,1.543685,2.932795,7.03435,7.753905,6.090643,0.3792765,-0.1875529,-0.3391326,1.683455,0.2051689,0.2208873,1.457922,0.04448215,0.4350466,1.730422,-0.1438606,-0.3256857,1.64728,0.2281549,0.2679006,1.489636,0.03988817,-0.04000474,1.740858,0.03566691,-0.3652343,1.722845,-0.1324058,0.1678768,1.742515,-0.04752117,-0.3562813,1.686503,-0.1994333,-0.08185163,1.774793,0.3290137,-0.01540643,1.618366,NA,NA,NotTracked,Closed,
0.965332,-0.2319336,-0.1679688,-0.4467773,0.8813477,-0.06445313,-2,0,-2,3,0,0,-1,1,-28,-13,-5,5,3,0,1,-30,10.1875,10.1875,10.1875,-14.1875,-14.1875,-14.1875,1.543685,2.932795,7.03435,7.753905,6.090643,0.3792765,-0.1876884,-0.3386049,1.684955,0.2030401,0.2474531,1.476415,0.04424962,0.4349495,1.731013,-0.1448326,-0.3344681,1.643157,0.1468093,0.2587348,1.535571,0.03968775,-0.0392998,1.74125,0.03560605,-0.3641478,1.722899,-0.1325049,0.1678363,1.742687,-0.04785972,-0.3550234,1.68624,-0.1998585,-0.08103754,1.77453,0.3285493,-0.008640765,1.608216,NA,NA,NotTracked,Unknown,
0.965332,-0.2319336,-0.1679688,-0.4443359,0.7080078,-0.04833984,-2,0,-2,3,0,0,-1,1,23,9,5,-8,4,5,12,29,10.1875,10.1875,10.1875,-17.4375,-17.4375,-17.4375,1.543685,2.932795,7.03435,7.772191,6.373049,0.4521905,-0.1877602,-0.3385638,1.686486,0.1985472,0.2774684,1.49286,0.04420867,0.4349729,1.731361,-0.1447835,-0.3338815,1.644069,0.1582124,0.2776679,1.542367,0.03959962,-0.03894461,1.741566,0.03558367,-0.3637819,1.723109,-0.1322524,0.1679117,1.74273,-0.04802023,-0.3545147,1.686252,-0.1999166,-0.08078489,1.774481,0.3231699,0.0447678,1.553182,NA,NA,NotTracked,Unknown,
0.965332,-0.2319336,-0.1679688,-0.4443359,0.7080078,-0.04833984,-2,0,-2,3,0,0,-1,1,-6,-2,-2,-5,-1,1,1,-8,10.1875,10.1875,10.1875,-17.4375,-17.4375,-17.4375,1.543685,2.932795,7.03435,7.772191,6.373049,0.4521905,-0.1874432,-0.3382422,1.687047,0.1960623,0.3040462,1.508048,0.04412191,0.4349828,1.731661,-0.1450495,-0.3334607,1.643927,0.1616514,0.2843538,1.562,0.04148091,-0.0389894,1.742079,0.03557342,-0.3636807,1.723188,-0.1318142,0.1678561,1.742738,-0.04810653,-0.3543451,1.686259,-0.1999265,-0.08077348,1.774468,0.3224637,0.04366057,1.552845,NA,NA,NotTracked,Unknown,
0.965332,-0.2319336,-0.1679688,-0.609375,0.5595703,-0.08984375,-2,0,-2,3,0,0,-1,1,-18,-4,-3,-4,-3,-5,-8,-21,10.1875,10.1875,10.1875,-41.875,-41.875,-41.875,1.543685,2.932795,7.03435,7.788503,6.603247,0.5433584,-0.1874921,-0.3385114,1.687264,0.1918809,0.3283331,1.522257,0.0440531,0.4348125,1.73195,-0.145536,-0.3339092,1.643846,0.1784045,0.2948388,1.580867,0.04273274,-0.03896598,1.742428,0.03556862,-0.3635391,1.723282,-0.1309945,0.1678668,1.742747,-0.04817645,-0.3541489,1.686216,-0.1999742,-0.08071676,1.774525,0.3213835,0.04325106,1.551771,NA,NA,NotTracked,Unknown,
0.965332,-0.2319336,-0.1679688,-0.6357422,0.4946289,-0.04541016,-2,0,-2,3,0,0,-1,1,1,-8,-8,-1,-4,-6,-9,-1,10.1875,10.1875,10.1875,-33.0625,-33.0625,-33.0625,1.543685,2.932795,7.03435,7.784817,6.733669,0.5889398,-0.1886395,-0.3384184,1.690497,0.1926901,0.3452783,1.55124,0.04385074,0.434646,1.732429,-0.1462533,-0.3235528,1.655177,0.1878987,0.3028794,1.612857,0.04440125,-0.03911592,1.743042,0.03553658,-0.3634519,1.723513,-0.1299941,0.1678309,1.743047,-0.04826213,-0.3540735,1.686363,-0.1997243,-0.08030737,1.775595,0.3115778,0.05845055,1.533478,NA,NA,NotTracked,Unknown,
0.965332,-0.2319336,-0.1679688,-0.6572266,0.5068359,-0.1166992,-2,0,-2,3,0,0,-1,1,-6,-9,-5,0,-2,-1,-2,13,10.1875,10.1875,10.1875,-34.5,-34.5,-34.5,1.543685,2.932795,7.03435,7.792195,6.791384,0.6183887,-0.1900035,-0.3298852,1.696717,0.1882066,0.3591726,1.564634,0.04380377,0.4346149,1.732477,-0.1455152,-0.3214069,1.655745,0.1885453,0.3083979,1.623833,0.04499857,-0.03930095,1.743119,0.03552512,-0.3634978,1.723534,-0.129628,0.1677911,1.743152,-0.04836183,-0.35418,1.686527,-0.1995962,-0.08067574,1.776206,0.3094382,0.06477059,1.525041,NA,NA,NotTracked,Unknown,
0.965332,-0.2319336,-0.1679688,-0.7607422,0.3676758,-0.09521484,-2,0,-2,3,0,0,-1,1,7,-5,-9,8,0,1,3,33,10.1875,10.1875,10.1875,-38.9375,-38.9375,-38.9375,1.543685,2.932795,7.03435,7.803766,6.921873,0.7060286,-0.1904466,-0.3299653,1.69791,0.193729,0.3472253,1.571377,0.04367371,0.4345115,1.732521,-0.1444897,-0.3150909,1.662804,0.1949924,0.297594,1.635286,0.04555744,-0.03939398,1.743218,0.03553122,-0.3634983,1.723569,-0.1293184,0.1677517,1.743283,-0.04839995,-0.3541549,1.68692,-0.1995139,-0.0807789,1.776478,0.3060494,0.06804366,1.522573,NA,NA,NotTracked,Unknown,
0.965332,-0.2319336,-0.1679688,-0.8564453,0.3188477,-0.1132813,-2,0,-2,3,0,0,-1,1,-12,-5,-7,4,2,5,19,19,10.1875,10.1875,10.1875,-36.6875,-36.6875,-36.6875,1.543685,2.932795,7.03435,7.805871,6.984644,0.7493291,-0.1902198,-0.3295115,1.699026,0.1938671,0.346094,1.578726,0.04362152,0.4344746,1.732529,-0.1458951,-0.3311091,1.651299,0.1948726,0.2953889,1.6322,0.04449144,-0.03942036,1.743437,0.03542339,-0.3635026,1.723623,-0.1290389,0.1678284,1.74402,-0.04877807,-0.3541574,1.687494,-0.199204,-0.08080065,1.777288,0.3023125,0.07060294,1.519834,NA,NA,NotTracked,Unknown,
0.965332,-0.2319336,-0.1679688,-0.9033203,0.2998047,-0.1147461,-2,0,-2,3,0,0,-1,1,6,7,4,8,1,3,0,-2,10.1875,10.1875,10.1875,-37.5,-37.5,-37.5,1.543685,2.932795,7.03435,7.797677,7.005696,0.7626105,-0.1900679,-0.3297644,1.698477,0.1921896,0.3453861,1.584408,0.04350591,0.4343789,1.732515,-0.1445927,-0.3156481,1.659213,0.1928447,0.2939317,1.6413,0.0439702,-0.03947364,1.7436,0.03539569,-0.3635037,1.72364,-0.1286077,0.1679184,1.744857,-0.04895559,-0.354188,1.687928,-0.1988627,-0.08093998,1.777943,0.2991971,0.07263942,1.517678,NA,NA,NotTracked,Unknown,
0.965332,-0.2319336,-0.1679688,-0.9135742,0.2836914,-0.1044922,-2,0,-2,3,0,0,-1,1,8,3,-3,-13,-1,1,1,0,10.1875,10.1875,10.1875,-18.8125,-18.8125,-18.8125,1.543685,2.932795,7.03435,7.767332,7.028642,0.7573398,-0.1896092,-0.3289932,1.698334,0.191954,0.3441726,1.585858,0.04344649,0.4343439,1.732542,-0.1462294,-0.3234786,1.653318,0.1921916,0.2943465,1.6405,0.04460829,-0.03954887,1.743639,0.03534899,-0.363484,1.723673,-0.1282967,0.1678963,1.745476,-0.04917746,-0.3541351,1.688355,-0.1987657,-0.08104884,1.778601,0.2961745,0.07364455,1.516319,NA,NA,NotTracked,Unknown,
0.965332,-0.2319336,-0.1679688,-0.9716797,0.2514648,-0.09863281,-2,0,-2,3,0,0,-1,1,3,3,4,0,0,0,-6,10,10.1875,10.1875,10.1875,-16.5625,-16.5625,-16.5625,1.543685,2.932795,7.03435,7.705657,7.039234,0.7244406,-0.1897674,-0.3294447,1.697826,0.1909518,0.3444498,1.585322,0.04340364,0.4342688,1.73251,-0.1452125,-0.3229488,1.655167,0.1923847,0.2931434,1.639061,0.04497833,-0.03961789,1.743695,0.03521425,-0.3634764,1.723733,-0.1282441,0.1681108,1.745951,-0.04945994,-0.3541062,1.688825,-0.1986753,-0.08084187,1.778852,0.2928446,0.07451437,1.514594,NA,NA,NotTracked,Unknown,
0.965332,-0.2319336,-0.1679688,-0.9707031,0.2724609,-0.07568359,-2,0,-2,3,0,0,-1,1,0,-5,-2,5,-3,-9,-21,-15,10.1875,10.1875,10.1875,-15.1875,-15.1875,-15.1875,1.543685,2.932795,7.03435,7.67991,7.040916,0.7063797,-0.1900993,-0.3302956,1.698491,0.1906753,0.3449535,1.587828,0.04339732,0.4342153,1.732486,-0.1453519,-0.321072,1.657062,0.1899987,0.2897666,1.641846,0.04533033,-0.03964375,1.743739,0.03517257,-0.3634653,1.723763,-0.1279383,0.1682579,1.746556,-0.04955216,-0.3540845,1.689019,-0.1983778,-0.08078469,1.779566,0.2902915,0.07559805,1.513298,NA,NA,NotTracked,Unknown,
0.965332,-0.2319336,-0.1679688,-0.9707031,0.2724609,-0.07568359,-2,0,-2,3,0,0,-1,1,6,3,-1,-1,-3,-7,-35,7,10.1875,10.1875,10.1875,-15.1875,-15.1875,-15.1875,1.543685,2.932795,7.03435,7.67991,7.040916,0.7063797,-0.1899257,-0.3297117,1.697592,0.190327,0.3448412,1.583621,0.04342712,0.4340312,1.732504,-0.1474125,-0.3330004,1.648513,0.188001,0.291885,1.644333,0.04572485,-0.03969764,1.743749,0.03512529,-0.3634599,1.723769,-0.1276342,0.1684436,1.746912,-0.04965189,-0.3541117,1.689227,-0.1983152,-0.0807749,1.779764,0.2876581,0.07769454,1.511505,NA,NA,NotTracked,Unknown,
0.965332,-0.2319336,-0.1679688,-0.9477539,0.2832031,-0.03662109,-2,0,-2,3,0,0,-1,1,10,4,3,12,8,24,102,25,10.1875,10.1875,10.1875,-16.9375,-16.9375,-16.9375,1.543685,2.932795,7.03435,7.60899,7.042335,0.6559077,-0.1904388,-0.3286209,1.698208,0.1902237,0.3448756,1.581751,0.04338159,0.4339313,1.732539,-0.1467783,-0.3167055,1.656669,0.1891863,0.2945564,1.642332,0.0459507,-0.03969964,1.743779,0.03498753,-0.3633901,1.723816,-0.1275637,0.1684342,1.747451,-0.04989068,-0.3540166,1.689544,-0.1980685,-0.08079057,1.780123,0.2850892,0.07816012,1.510539,NA,NA,NotTracked,Unknown,
0.965332,-0.2319336,-0.1679688,-0.9570313,0.2495117,-0.02636719,-2,0,-2,3,0,0,-1,1,-1,1,-2,-1,-3,-15,-68,5,10.1875,10.1875,10.1875,-15.1875,-15.1875,-15.1875,1.543685,2.932795,7.03435,7.544792,7.054036,0.6136405,-0.1905256,-0.3295066,1.698692,0.1900754,0.3461792,1.577344,0.04335463,0.4339199,1.732636,-0.1468346,-0.3342741,1.648156,0.1883165,0.2964822,1.639361,0.04628824,-0.03978564,1.743837,0.03495903,-0.3634138,1.723827,-0.1275616,0.1684305,1.747448,-0.04995884,-0.3540943,1.689723,-0.1979363,-0.08070848,1.780401,0.2835127,0.07805941,1.510041,NA,NA,NotTracked,Unknown,
0.965332,-0.2319336,-0.1679688,-0.9570313,0.2495117,-0.02636719,-2,0,-2,3,0,0,-1,1,-20,-1,1,-3,-2,14,1,17,10.1875,10.1875,10.1875,-15.1875,-15.1875,-15.1875,1.543685,2.932795,7.03435,7.544792,7.054036,0.6136405,-0.1905175,-0.3298436,1.699206,0.1906396,0.3465563,1.571267,0.04326658,0.4338094,1.732854,-0.1468546,-0.3312253,1.650282,0.1851842,0.3013657,1.637795,0.04653507,-0.03986096,1.74383,0.03486121,-0.3634565,1.723821,-0.1273831,0.1683817,1.747758,-0.05008115,-0.3541484,1.689815,-0.1977379,-0.08061461,1.780668,0.2820294,0.07854692,1.509351,NA,NA,NotTracked,Unknown,
0.965332,-0.2319336,-0.1679688,-1.005371,0.2275391,0.01220703,-2,0,-2,3,0,0,-1,1,17,4,5,7,4,-23,14,11,10.1875,10.1875,10.1875,-22.0625,-22.0625,-22.0625,1.543685,2.932795,7.03435,7.422657,7.049921,0.5183998,-0.190448,-0.3300444,1.698291,0.1904819,0.3465554,1.563306,0.04324455,0.4337357,1.733152,-0.1468359,-0.3303586,1.650882,0.1786071,0.3073962,1.623286,0.04671017,-0.03990389,1.743846,0.03480374,-0.3634985,1.723824,-0.1267882,0.1686228,1.748702,-0.05014808,-0.3542302,1.689943,-0.1975169,-0.08061626,1.781189,0.28084,0.07887777,1.508862,NA,NA,NotTracked,Unknown,
0.965332,-0.2319336,-0.1679688,-1.032715,0.21875,0.02832031,-2,0,-2,3,0,0,-1,1,1,-3,-3,0,-5,-27,-56,-3,10.1875,10.1875,10.1875,-8.3125,-8.3125,-8.3125,1.543685,2.932795,7.03435,7.342661,7.02384,0.4458387,-0.1912913,-0.3303573,1.699492,0.163444,0.4095131,1.5659,0.04320406,0.433508,1.734267,-0.1462365,-0.3202771,1.657612,0.16226,0.3824265,1.5516,0.04712915,-0.0400461,1.743924,0.03467764,-0.3636308,1.723841,-0.1262649,0.1687505,1.750442,-0.0502967,-0.3545677,1.690462,-0.197246,-0.0812215,1.782086,0.2758486,0.07887653,1.507539,NA,NA,NotTracked,Open,
0.965332,-0.2319336,-0.1679688,-1.092285,0.2421875,-0.008789063,-2,0,-2,3,0,0,-1,1,16,1,1,3,4,15,41,26,10.1875,10.1875,10.1875,-10.5,-10.5,-10.5,1.543685,2.932795,7.03435,7.318364,7.000628,0.4256783,-0.1903277,-0.3284541,1.699441,0.1709443,0.404673,1.534271,0.04323323,0.4333152,1.734968,-0.1456211,-0.313666,1.661857,0.1484867,0.398594,1.544,0.04618538,-0.04039134,1.74412,0.03469104,-0.363846,1.723781,-0.1259443,0.1687203,1.750937,-0.05024273,-0.3549541,1.690617,-0.1970887,-0.08203159,1.782727,0.2726759,0.07773583,1.507103,NA,NA,NotTracked,Unknown,
0.965332,-0.2319336,-0.1679688,-1.086914,0.2626953,0.03710938,-2,0,-2,3,0,0,-1,1,-21,-6,0,-3,-6,-8,2,-13,10.1875,10.1875,10.1875,-26.0625,-26.0625,-26.0625,1.543685,2.932795,7.03435,7.254943,6.923965,0.3856384,-0.1912207,-0.3284635,1.700683,0.1879109,0.3786283,1.4915,0.04326785,0.4331368,1.735732,-0.1465488,-0.3283536,1.654834,0.1531983,0.3642906,1.5282,0.04543654,-0.04035806,1.744334,0.03467421,-0.3639064,1.723708,-0.125668,0.1688294,1.751958,-0.05022795,-0.3550706,1.690678,-0.1970819,-0.08241301,1.783126,0.2683475,0.07795122,1.505967,NA,NA,NotTracked,Unknown,
0.965332,-0.2319336,-0.1679688,-0.996582,0.3901367,0.05761719,-2,0,-2,3,0,0,-1,1,0,1,1,-15,-12,13,18,-1,10.1875,10.1875,10.1875,-9.75,-9.75,-9.75,1.543685,2.932795,7.03435,7.184191,6.732404,0.3389688,-0.1905383,-0.3294194,1.69994,0.2043918,0.3463904,1.444271,0.04318879,0.4327413,1.737487,-0.1446412,-0.3146344,1.661796,0.1645604,0.3449478,1.472818,0.04512418,-0.04037132,1.744701,0.03469158,-0.3639384,1.723675,-0.1258023,0.1686267,1.753241,-0.05011237,-0.3552644,1.690839,-0.1965434,-0.08265977,1.784321,0.2572487,0.1245579,1.482433,NA,NA,NotTracked,Unknown,
0.965332,-0.2319336,-0.1679688,-0.9506836,0.4750977,0.1044922,-2,0,-2,3,0,0,-1,1,3,-1,2,7,20,-10,-34,10,10.1875,10.1875,10.1875,-5.3125,-5.3125,-5.3125,1.543685,2.932795,7.03435,7.172734,6.655453,0.32887,-0.1903369,-0.3288209,1.700808,0.2092397,0.341874,1.407065,0.04313571,0.4323101,1.739511,-0.145061,-0.3140444,1.661047,0.1832041,0.3022285,1.39815,0.04454081,-0.040333,1.745241,0.03468266,-0.3639111,1.723673,-0.1260484,0.1685076,1.753155,-0.05005122,-0.3553059,1.690931,-0.1962746,-0.08368164,1.785164,0.2597122,0.09039588,1.482482,NA,NA,NotTracked,Unknown,
0.965332,-0.2319336,-0.1679688,-0.9892578,0.6787109,0.1005859,-2,0,-2,3,0,0,-1,1,4,-2,-3,24,19,-9,-2,-11,10.1875,10.1875,10.1875,-21.6875,-21.6875,-21.6875,1.543685,2.932795,7.03435,7.137764,6.491574,0.308301,-0.1907811,-0.3294306,1.700762,0.2148007,0.3358162,1.365763,0.04309293,0.4320576,1.741299,-0.1474656,-0.3317929,1.651303,0.1780697,0.3199219,1.35212,0.04517626,-0.04037739,1.745386,0.03468364,-0.3639157,1.72367,-0.1271752,0.1680769,1.755289,-0.04994221,-0.3554967,1.691136,-0.1961741,-0.08422029,1.785868,0.2592573,0.09073211,1.478701,NA,NA,NotTracked,Unknown,
0.965332,-0.2319336,-0.1679688,-0.9584961,0.5810547,0.04638672,-2,0,-2,3,0,0,-1,1,-12,-5,-9,-28,-39,-6,-11,-55,10.1875,10.1875,10.1875,-36,-36,-36,1.543685,2.932795,7.03435,7.106427,6.400712,0.292989,-0.1904199,-0.3286871,1.701124,0.2163842,0.3309739,1.322795,0.04314573,0.431979,1.743745,-0.1468813,-0.3164246,1.660292,0.185991,0.30281,1.314947,0.04570818,-0.04046744,1.745523,0.03471468,-0.3639809,1.723674,-0.1273868,0.1678793,1.755152,-0.04975046,-0.3559194,1.69143,-0.196043,-0.08422942,1.786501,0.2599551,0.09792818,1.461226,NA,NA,NotTracked,Unknown,
0.965332,-0.2319336,-0.1679688,-0.7353516,0.7348633,0.2084961,-2,0,-2,3,0,0,-1,1,9,-3,-4,-4,-4,2,6,26,10.1875,10.1875,10.1875,-40.4375,-40.4375,-40.4375,1.543685,2.932795,7.03435,7.042323,6.186983,0.274978,-0.1906376,-0.3294935,1.701316,0.2201549,0.3218863,1.276815,0.0430671,0.4319508,1.745405,-0.1464917,-0.3140868,1.661043,0.191524,0.2825927,1.262889,0.04428015,-0.04055534,1.746615,0.03458907,-0.3641039,1.723652,-0.1276044,0.1672542,1.757487,-0.04986748,-0.356241,1.691718,-0.1960023,-0.08486772,1.787364,0.2611425,0.0964396,1.456452,NA,NA,NotTracked,Closed,
0.965332,-0.2319336,-0.1679688,-0.6958008,0.7563477,0.2993164,-2,0,-2,3,0,0,-1,1,-1,-5,-3,10,13,7,8,-8,10.1875,10.1875,10.1875,-29.8125,-29.8125,-29.8125,1.543685,2.932795,7.03435,7.02582,6.07619,0.2754253,-0.1901799,-0.3302888,1.701534,0.223425,0.3067776,1.236125,0.04318526,0.432125,1.748457,-0.1481875,-0.3352171,1.647536,0.1853027,0.3233327,1.223118,0.04338681,-0.04075438,1.747602,0.03454274,-0.3643168,1.72374,-0.1285334,0.1664199,1.759488,-0.04978506,-0.3568103,1.692351,-0.1956887,-0.08583263,1.788379,0.2625078,0.09757046,1.446736,NA,NA,NotTracked,Closed,
0.965332,-0.2319336,-0.1679688,-0.125,0.8774414,0.3022461,-2,0,-2,3,0,0,-1,1,-8,-14,-2,13,16,-7,-16,-2,10.1875,10.1875,10.1875,11.9375,11.9375,11.9375,1.543685,2.932795,7.03435,7.009149,5.741391,0.2420928,-0.1868911,-0.3411897,1.692325,0.2281588,0.2876585,1.200361,0.04300357,0.4323309,1.750387,-0.1477789,-0.3387347,1.644234,0.1910612,0.3188199,1.187929,0.04250116,-0.04073544,1.748543,0.03439769,-0.3644468,1.723868,-0.1286413,0.1662725,1.759201,-0.04985045,-0.3570916,1.692792,-0.1954756,-0.08674553,1.78936,0.2633441,0.09785322,1.4421,NA,NA,NotTracked,Closed,
0.965332,-0.2319336,-0.1679688,-0.07519531,0.7519531,0.3408203,-2,0,-2,3,0,0,-1,1,7,6,5,17,31,23,61,4,10.1875,10.1875,10.1875,-18.1875,-18.1875,-18.1875,1.543685,2.932795,7.03435,6.993206,5.568836,0.2445259,-0.1827226,-0.3492803,1.687091,0.2326315,0.2693871,1.175677,0.04282155,0.4324831,1.753164,-0.1421787,-0.3279389,1.651483,0.189756,0.3018178,1.1665,0.04162912,-0.04068976,1.74979,0.03413407,-0.364641,1.724066,-0.1297976,0.1649125,1.763639,-0.04994743,-0.357372,1.693249,-0.1954039,-0.08783282,1.791196,0.263976,0.1003983,1.432766,NA,NA,NotTracked,Closed,
0.965332,-0.2319336,-0.1679688,-0.05371094,0.7802734,0.2861328,-2,0,-2,3,0,0,-1,1,-1,-2,1,4,1,4,6,-7,10.1875,10.1875,10.1875,3.625,3.625,3.625,1.543685,2.932795,7.03435,6.987844,5.443925,0.2304251,-0.1838822,-0.3458797,1.688283,0.2348478,0.2519177,1.158067,0.04250273,0.4325241,1.754481,-0.1446698,-0.3452893,1.641999,0.1951419,0.2799293,1.161,0.04064191,-0.04099371,1.750709,0.03372459,-0.3651377,1.72422,-0.1299601,0.1649969,1.763072,-0.05030714,-0.3581519,1.69403,-0.1953323,-0.08826102,1.79203,0.2650388,0.1061617,1.417688,NA,NA,NotTracked,Closed,
0.965332,-0.2319336,-0.1679688,-0.105957,0.9765625,0.3007813,-2,0,-2,3,0,0,-1,1,-4,4,9,9,10,-1,-2,-5,10.1875,10.1875,10.1875,16.6875,16.6875,16.6875,1.543685,2.932795,7.03435,7.007419,5.36004,0.224728,-0.1866953,-0.3414827,1.693856,0.23696,0.2397582,1.147868,0.04230571,0.4326918,1.755998,-0.146377,-0.3388226,1.64551,0.2005996,0.2834671,1.12525,0.04037877,-0.0410572,1.751449,0.03358836,-0.3654065,1.724452,-0.1307713,0.1640296,1.766383,-0.05028117,-0.3587434,1.694985,-0.1951697,-0.08855507,1.793118,0.2643941,0.1069472,1.413417,NA,NA,NotTracked,Closed,
0.965332,-0.2319336,-0.1679688,-0.1118164,0.9077148,0.3012695,-2,0,-2,3,0,0,-1,1,1,-1,5,15,6,-1,-14,-6,10.1875,10.1875,10.1875,3.5625,3.5625,3.5625,1.543685,2.932795,7.03435,7.01012,5.310511,0.2237697,-0.1890038,-0.3328437,1.701593,0.23577,0.2227561,1.137439,0.0416404,0.4328299,1.757962,-0.1454929,-0.3214122,1.659867,0.194148,0.2585384,1.125143,0.03991827,-0.04124497,1.752116,0.03312387,-0.3661247,1.724768,-0.130807,0.164237,1.764555,-0.05056835,-0.3597315,1.696303,-0.1947948,-0.08919811,1.794515,0.2630342,0.1063167,1.40697,NA,NA,NotTracked,Closed,
0.965332,-0.2319336,-0.1679688,-0.1264648,0.921875,0.3085938,-2,0,-2,3,0,0,-1,1,-9,-4,-1,8,13,0,-6,-6,10.1875,10.1875,10.1875,6.625,6.625,6.625,1.543685,2.932795,7.03435,7.012828,5.293155,0.2225078,-0.1885538,-0.3326387,1.702592,0.2367309,0.2167731,1.135385,0.04146747,0.4330199,1.758542,-0.1454183,-0.319973,1.659706,0.2015207,0.2581103,1.1067,0.03973712,-0.04121033,1.752507,0.03299478,-0.3661811,1.724937,-0.1308107,0.1642016,1.764121,-0.05057045,-0.3598093,1.696621,-0.1947542,-0.08930913,1.794977,0.262901,0.1058778,1.40641,NA,NA,NotTracked,Closed,
0.965332,-0.2319336,-0.1679688,-0.128418,0.9912109,0.2939453,-2,0,-2,3,0,0,-1,1,-16,-2,6,30,11,-2,-12,-11,10.1875,10.1875,10.1875,0.4375,0.4375,0.4375,1.543685,2.932795,7.03435,7.01732,5.271092,0.2223305,-0.1890913,-0.3326332,1.703514,0.2368923,0.2127046,1.134462,0.04131033,0.4329252,1.758995,-0.1460588,-0.3257785,1.655207,0.1933601,0.2395417,1.112,0.03954896,-0.04137689,1.752885,0.03278102,-0.3665492,1.725204,-0.1307219,0.1641988,1.763575,-0.05067154,-0.3602583,1.697314,-0.1945083,-0.08970697,1.795851,0.2627952,0.1048716,1.406068,NA,NA,NotTracked,Closed,
0.965332,-0.2319336,-0.1679688,-0.1455078,0.9370117,0.284668,-2,0,-2,3,0,0,-1,1,-2,-3,-2,-15,-14,0,-7,-1,10.1875,10.1875,10.1875,4.5,4.5,4.5,1.543685,2.932795,7.03435,7.014789,5.252826,0.2213849,-0.1884154,-0.3329491,1.703711,0.237868,0.2076545,1.134996,0.04113563,0.4329624,1.759587,-0.144776,-0.3229201,1.65967,0.1935034,0.2364747,1.1116,0.03935382,-0.04148816,1.753342,0.03251778,-0.3668643,1.725476,-0.1306863,0.1641511,1.763129,-0.05085723,-0.3605576,1.697876,-0.1943376,-0.09035584,1.797037,0.2625021,0.1042979,1.405567,NA,NA,NotTracked,Closed,
0.965332,-0.2319336,-0.1679688,-0.1132813,0.9233398,0.2734375,-2,0,-2,3,0,0,-1,1,6,-2,-3,-4,-9,-8,11,1,10.1875,10.1875,10.1875,3.4375,3.4375,3.4375,1.543685,2.932795,7.03435,7.020377,5.24696,0.2196537,-0.1888681,-0.334018,1.70425,0.2381662,0.2055137,1.136299,0.04100806,0.4331237,1.760221,-0.1459017,-0.3243029,1.657708,0.194465,0.2318089,1.118167,0.03926243,-0.04160897,1.753754,0.03242213,-0.3670453,1.72568,-0.130692,0.1642235,1.762965,-0.05088665,-0.3607101,1.698186,-0.1941421,-0.09057412,1.797625,0.2625211,0.1036436,1.405545,NA,NA,NotTracked,Unknown,
0.965332,-0.2319336,-0.1679688,-0.1225586,0.9042969,0.2587891,-2,0,-2,3,0,0,-1,1,1,0,0,-5,-3,-2,-2,-1,10.1875,10.1875,10.1875,3.25,3.25,3.25,1.543685,2.932795,7.03435,7.022889,5.244554,0.2189055,-0.1888357,-0.3330769,1.703744,0.2396282,0.2025622,1.137662,0.04097872,0.433145,1.760395,-0.146964,-0.3333811,1.653736,0.1956913,0.2335253,1.119461,0.03921614,-0.04167491,1.753872,0.03238382,-0.3671448,1.725724,-0.1311114,0.1626527,1.766917,-0.05084946,-0.3607987,1.698251,-0.194199,-0.0903523,1.797827,0.2621482,0.101287,1.406348,NA,NA,NotTracked,Unknown,
0.965332,-0.2319336,-0.1679688,-0.09863281,0.8657227,0.2421875,-2,0,-2,3,0,0,-1,1,-6,-7,-4,8,-6,-3,-6,-13,10.1875,10.1875,10.1875,12.375,12.375,12.375,1.543685,2.932795,7.03435,7.033523,5.240006,0.2176228,-0.1883985,-0.3321274,1.70189,0.2410607,0.2004577,1.138123,0.04096547,0.4331782,1.760437,-0.1448563,-0.3172881,1.662341,0.1990317,0.2306233,1.11975,0.03920142,-0.0416821,1.75393,0.03239604,-0.3672456,1.725828,-0.1313349,0.162447,1.768431,-0.05073303,-0.3609016,1.698404,-0.1941328,-0.09023357,1.797906,0.2603763,0.09171303,1.406869,NA,NA,NotTracked,Unknown,
0.965332,-0.2319336,-0.1679688,-0.03076172,0.7856445,0.1899414,-2,0,-2,3,0,0,-1,1,8,3,3,-5,1,4,9,10,10.1875,10.1875,10.1875,17.5625,17.5625,17.5625,1.543685,2.932795,7.03435,7.052852,5.235748,0.2151355,-0.1859334,-0.3418915,1.695078,0.2440101,0.1966894,1.142455,0.04096721,0.4331947,1.760583,-0.1474036,-0.3343211,1.650187,0.200269,0.228785,1.128,0.03914053,-0.04176405,1.754202,0.03228786,-0.3673916,1.726039,-0.1312174,0.1630787,1.766705,-0.05077571,-0.3609684,1.698522,-0.1941112,-0.09014013,1.798038,0.2620482,0.09032916,1.407443,NA,NA,NotTracked,Unknown,
0.965332,-0.2319336,-0.1679688,0.08642578,0.6533203,0.08203125,-2,0,-2,3,0,0,-1,1,-2,-7,-30,-20,-6,2,3,20,10.1875,10.1875,10.1875,46.25,46.25,46.25,1.543685,2.932795,7.03435,7.098136,5.229864,0.2172906,-0.180529,-0.3568185,1.684648,0.2466538,0.1914217,1.145466,0.04097002,0.4331987,1.760607,-0.1427762,-0.3317779,1.652825,0.2036211,0.2162807,1.128,0.03912331,-0.04179397,1.754256,0.03230029,-0.367483,1.726084,-0.1313637,0.1628016,1.767258,-0.050729,-0.3610218,1.69856,-0.1941868,-0.09015654,1.79809,0.2644858,0.0877867,1.408346,NA,NA,NotTracked,Closed,
0.965332,-0.2319336,-0.1679688,0.1201172,0.6972656,0.05126953,-2,0,-2,3,0,0,-1,1,0,-2,-5,-9,-1,-3,-4,34,10.1875,10.1875,10.1875,80.625,80.625,80.625,1.543685,2.932795,7.03435,7.186553,5.223403,0.2187399,-0.18179,-0.3500307,1.687216,0.2481265,0.1844866,1.149578,0.0409502,0.4332236,1.760622,-0.1384223,-0.3180452,1.66225,0.2038451,0.2119057,1.125,0.03910333,-0.04180479,1.754305,0.03239394,-0.36761,1.726211,-0.1312816,0.1632237,1.765653,-0.05061361,-0.3611198,1.698681,-0.194149,-0.09021441,1.798137,0.267682,0.07704042,1.411481,NA,NA,NotTracked,Closed,
0.965332,-0.2319336,-0.1679688,0.2148438,0.7197266,0.06054688,-2,0,-2,3,0,0,-1,1,-5,-5,3,6,0,0,-3,-12,10.1875,10.1875,10.1875,87.6875,87.6875,87.6875,1.543685,2.932795,7.03435,7.237756,5.21637,0.220358,-0.1827291,-0.3469488,1.69058,0.250276,0.1733803,1.154986,0.04084916,0.4333193,1.76065,-0.140873,-0.3291259,1.655187,0.2079725,0.1826611,1.128444,0.03908675,-0.04183934,1.754408,0.03246368,-0.3678115,1.726386,-0.1312543,0.1635873,1.76456,-0.05056014,-0.3611844,1.698738,-0.1941565,-0.09020407,1.798119,0.277909,0.04438726,1.429634,NA,NA,NotTracked,Closed,
0.965332,-0.2319336,-0.1679688,0.1542969,0.8344727,-0.006835938,-2,0,-2,3,0,0,-1,1,0,1,2,-1,-2,-3,-2,-7,10.1875,10.1875,10.1875,88.4375,88.4375,88.4375,1.543685,2.932795,7.03435,7.292198,5.205235,0.2276313,-0.1827909,-0.346901,1.689677,0.2508081,0.1563758,1.164789,0.04069154,0.4333821,1.760679,-0.1445005,-0.3449321,1.644209,0.2127366,0.1497292,1.151444,0.0390703,-0.04187945,1.754413,0.03252919,-0.3680267,1.726478,-0.1318234,0.1634635,1.765956,-0.05046688,-0.3612886,1.698786,-0.1942492,-0.09018914,1.797945,0.2802564,0.03497899,1.441492,NA,NA,NotTracked,Closed,
0.965332,-0.2319336,-0.1679688,0.1542969,0.8344727,-0.006835938,-2,0,-2,3,0,0,-1,1,0,1,2,-1,-2,-3,-2,-7,10.1875,10.1875,10.1875,88.4375,88.4375,88.4375,1.543685,2.932795,7.03435,7.292198,5.205235,0.2276313,-0.1821277,-0.3457755,1.690227,0.2509414,0.1346727,1.178223,0.04035677,0.4335214,1.760508,-0.1428379,-0.3430439,1.644887,0.2041077,0.1338791,1.136667,0.03906259,-0.04189076,1.754407,0.03268218,-0.3681823,1.726555,-0.1326673,0.1633127,1.767317,-0.05029774,-0.3613577,1.698771,-0.1944434,-0.09011001,1.797902,0.2831759,0.02801817,1.443747,NA,NA,NotTracked,Closed,
0.965332,-0.2319336,-0.1679688,0.1821289,0.9174805,0.03710938,-2,0,-2,3,0,0,-1,1,-4,-3,1,2,-2,-3,-7,-16,10.1875,10.1875,10.1875,89,89,89,1.543685,2.932795,7.03435,7.449558,5.140979,0.2544799,-0.1828641,-0.345032,1.690966,0.248889,0.1073342,1.193062,0.03948279,0.4336841,1.759511,-0.1437156,-0.3406784,1.645544,0.208333,0.09183567,1.1582,0.03901426,-0.04190665,1.754324,0.03270269,-0.368257,1.72659,-0.133365,0.1632739,1.767737,-0.05024937,-0.3613812,1.698757,-0.1944665,-0.09009599,1.797768,0.297222,0.03627882,1.43357,NA,NA,NotTracked,Closed,
0.965332,-0.2319336,-0.1679688,0.2192383,1.014648,-0.05175781,-2,0,-2,3,0,0,-1,1,2,9,4,0,0,0,0,-2,10.1875,10.1875,10.1875,98.75,98.75,98.75,1.543685,2.932795,7.03435,7.560495,5.046362,0.2743791,-0.183915,-0.3420219,1.694786,0.2489498,0.07445784,1.209614,0.03834991,0.4338744,1.757607,-0.1436943,-0.3381238,1.648575,0.2103882,0.06636323,1.190667,0.03894384,-0.04193595,1.754194,0.03279505,-0.3683543,1.726626,-0.1337503,0.1631917,1.767913,-0.05009551,-0.3614361,1.698696,-0.1945412,-0.09007049,1.797703,0.2954634,-0.00312266,1.550808,NA,NA,NotTracked,Closed,
0.965332,-0.2319336,-0.1679688,0.1269531,1.137207,-0.03222656,-2,0,-2,3,0,0,-1,1,-4,-1,4,-3,-1,0,1,-1,10.1875,10.1875,10.1875,69.0625,69.0625,69.0625,1.543685,2.932795,7.03435,7.642522,4.92878,0.288255,-0.1843898,-0.3425095,1.695015,0.2474918,0.03420909,1.228496,0.03734007,0.4341798,1.756169,-0.1441645,-0.3390708,1.647857,0.2132031,0.01428061,1.205143,0.03878494,-0.04190829,1.753919,0.03279387,-0.3683786,1.726659,-0.1343331,0.1631724,1.767996,-0.05008819,-0.3614367,1.698696,-0.194698,-0.08996163,1.797535,0.3074119,-0.03076133,1.55604,NA,NA,NotTracked,Closed,
0.965332,-0.2319336,-0.1679688,0.2192383,1.177246,-0.06982422,-2,0,-2,3,0,0,-1,1,-2,5,-1,-6,-3,-3,-2,1,10.1875,10.1875,10.1875,73.125,73.125,73.125,1.543685,2.932795,7.03435,7.717541,4.770357,0.2877424,-0.1840044,-0.3423385,1.69645,0.2475838,-0.0130951,1.254102,0.03599403,0.4346256,1.754143,-0.1437113,-0.3370914,1.649213,0.2106359,-0.03967233,1.224187,0.03856946,-0.04187927,1.753425,0.03277337,-0.3684042,1.726737,-0.1348681,0.1631562,1.767966,-0.05008366,-0.3614365,1.698698,-0.1948426,-0.08971409,1.797517,0.3381521,-0.05240794,1.514929,NA,NA,NotTracked,Unknown,
0.965332,-0.2319336,-0.1679688,0.2006836,1.289063,-0.05029297,-2,0,-2,3,0,0,-1,1,2,2,5,-1,0,-1,1,1,10.1875,10.1875,10.1875,62.8125,62.8125,62.8125,1.543685,2.932795,7.03435,7.788953,4.579703,0.287104,-0.1842157,-0.3417464,1.695912,0.2466247,-0.0615851,1.282414,0.03423397,0.4350062,1.750865,-0.1437355,-0.3370252,1.649123,0.2000742,-0.07533188,1.30725,0.03805086,-0.04179914,1.752596,0.032633,-0.3684156,1.726813,-0.1356087,0.1631548,1.767691,-0.05013397,-0.3614161,1.698709,-0.194839,-0.08972793,1.797421,0.3397906,-0.02112174,1.645628,NA,NA,NotTracked,Unknown,
0.965332,-0.2319336,-0.1679688,0.2480469,1.286133,-0.09570313,-2,0,-2,3,0,0,-1,1,1,0,-3,1,1,5,0,-3,10.1875,10.1875,10.1875,53.3125,53.3125,53.3125,1.543685,2.932795,7.03435,7.818921,4.477252,0.2807607,-0.1841749,-0.3421456,1.696926,0.2537287,-0.1100322,1.319613,0.03237543,0.4353139,1.747263,-0.1437002,-0.3369416,1.649703,0.2436839,-0.1548967,1.318692,0.03772155,-0.04167852,1.751794,0.0325147,-0.3684224,1.726952,-0.1362273,0.1631699,1.767208,-0.05015784,-0.3614033,1.698717,-0.1949537,-0.08946465,1.797253,0.3563325,-0.02666449,1.635842,NA,NA,NotTracked,Closed,
0.965332,-0.2319336,-0.1679688,0.3076172,1.227051,-0.07617188,-2,0,-2,3,0,0,-1,1,2,1,4,12,0,-2,1,2,10.1875,10.1875,10.1875,29,29,29,1.543685,2.932795,7.03435,7.858136,4.270518,0.268789,-0.1850031,-0.342132,1.697267,0.261832,-0.1552646,1.363083,0.03114855,0.4353711,1.743443,-0.1434112,-0.3344054,1.653136,0.2786138,-0.1984945,1.364044,0.03733937,-0.04142453,1.750657,0.0322991,-0.3683709,1.727027,-0.13672,0.1636082,1.766243,-0.05034536,-0.3612676,1.698638,-0.1950852,-0.08927387,1.797113,0.3616026,-0.03029502,1.643083,NA,NA,NotTracked,Closed,
0.965332,-0.2319336,-0.1679688,0.3876953,1.068848,-0.09765625,-2,0,-2,3,0,0,-1,1,2,4,4,-12,-2,-2,1,-1,10.1875,10.1875,10.1875,28.25,28.25,28.25,1.543685,2.932795,7.03435,7.895668,4.066379,0.2500213,-0.1861017,-0.3423096,1.697587,0.2719493,-0.1959786,1.41014,0.03009989,0.4349899,1.739597,-0.1440781,-0.3371645,1.649907,0.2953247,-0.2410689,1.409684,0.03692345,-0.04130656,1.749702,0.03191002,-0.3683813,1.727212,-0.137444,0.1638107,1.764998,-0.05065612,-0.361186,1.6986,-0.1951059,-0.08919173,1.797026,0.3757121,-0.03613507,1.662659,NA,NA,NotTracked,Unknown,
0.965332,-0.2319336,-0.1679688,0.4321289,1.035645,-0.1118164,-2,0,-2,3,0,0,-1,1,0,0,-1,3,-3,-3,-4,4,10.1875,10.1875,10.1875,26.125,26.125,26.125,1.543685,2.932795,7.03435,7.916035,3.974934,0.2381815,-0.1861705,-0.3417576,1.69753,0.2832412,-0.2316369,1.45453,0.02952297,0.4353036,1.735249,-0.1448759,-0.3388036,1.649115,0.3146465,-0.2718673,1.450571,0.0365266,-0.04108376,1.748159,0.03158969,-0.3682815,1.727281,-0.1378779,0.1642945,1.762516,-0.05099567,-0.3609602,1.698417,-0.1951209,-0.08911269,1.796592,0.3859746,-0.03201161,1.701651,NA,NA,NotTracked,Unknown,
0.965332,-0.2319336,-0.1679688,0.5239258,1.074219,-0.1206055,-2,0,-2,3,0,0,-1,1,-1,-4,-7,-6,-2,-2,3,-2,10.1875,10.1875,10.1875,31.8125,31.8125,31.8125,1.543685,2.932795,7.03435,7.939588,3.89568,0.22649,-0.1859108,-0.3419218,1.697516,0.2910165,-0.2645691,1.495035,0.02927002,0.4350384,1.731964,-0.1439995,-0.3348173,1.653081,0.3090698,-0.3299477,1.504429,0.03647758,-0.04084334,1.746819,0.03147237,-0.3681481,1.72732,-0.1381212,0.1647947,1.76065,-0.05116769,-0.3607134,1.698218,-0.1953593,-0.08909022,1.796017,0.3515591,-0.04268768,1.723344,NA,NA,NotTracked,Unknown,
0.965332,-0.2319336,-0.1679688,0.5239258,1.074219,-0.1206055,-2,0,-2,3,0,0,-1,1,-1,-4,-7,-6,-2,-2,3,-2,10.1875,10.1875,10.1875,31.8125,31.8125,31.8125,1.543685,2.932795,7.03435,7.939588,3.89568,0.22649,-0.1862726,-0.3414341,1.695745,0.2972071,-0.285854,1.533564,0.02935711,0.4348816,1.728096,-0.1444757,-0.3367565,1.649904,0.3258704,-0.280199,1.501551,0.0367013,-0.04081557,1.745208,0.03144539,-0.3681052,1.727295,-0.1378808,0.1654609,1.757918,-0.05124452,-0.3605644,1.697788,-0.1954543,-0.08869823,1.794525,0.3505722,-0.04360644,1.728526,NA,NA,NotTracked,Unknown,
0.965332,-0.2319336,-0.1679688,0.5976563,0.8789063,-0.1796875,-2,0,-2,3,0,0,-1,1,16,-3,-2,-1,-2,-1,0,-2,10.1875,10.1875,10.1875,10.875,10.875,10.875,1.543685,2.932795,7.03435,7.954216,3.6867,0.2483874,-0.1871092,-0.342036,1.696562,0.2984296,-0.3012888,1.569858,0.02979206,0.4350182,1.724949,-0.1446284,-0.3369835,1.650157,0.2557662,-0.2972428,1.608428,0.03675376,-0.04085117,1.743974,0.03141851,-0.3680918,1.727299,-0.1377424,0.1656526,1.755603,-0.05138392,-0.3604586,1.697421,-0.1957981,-0.0880973,1.793113,0.3500172,-0.05001833,1.739974,NA,NA,NotTracked,Unknown,
0.965332,-0.2319336,-0.1679688,0.5512695,0.8120117,-0.1337891,-2,0,-2,3,0,0,-1,1,3,-1,-4,3,-2,-2,-2,2,10.1875,10.1875,10.1875,-10.75,-10.75,-10.75,1.543685,2.932795,7.03435,7.914498,3.58735,0.2855198,-0.1866271,-0.3416361,1.69568,0.2961059,-0.3064463,1.597937,0.03081146,0.4347806,1.720783,-0.1448403,-0.3370797,1.649727,0.2398222,-0.3186794,1.63564,0.03684658,-0.04090501,1.742682,0.03138455,-0.3680477,1.727275,-0.1371157,0.1665687,1.751394,-0.05145845,-0.3603407,1.697066,-0.1961056,-0.08774441,1.791597,0.3496384,-0.05359537,1.749956,NA,NA,NotTracked,Unknown,
0.965332,-0.2319336,-0.1679688,0.5737305,0.7709961,-0.1040039,-2,0,-2,3,0,0,-1,1,16,-4,-6,-1,0,2,-1,0,10.1875,10.1875,10.1875,-13.1875,-13.1875,-13.1875,1.543685,2.932795,7.03435,7.87655,3.505101,0.3139656,-0.1875727,-0.3411253,1.693673,0.2893012,-0.3074763,1.618567,0.03224817,0.4346696,1.716919,-0.145624,-0.3374593,1.64899,0.2401709,-0.3040129,1.64503,0.03721429,-0.04082333,1.741217,0.03137965,-0.3679784,1.727229,-0.1363432,0.1670582,1.747905,-0.05143803,-0.3601305,1.696489,-0.1962301,-0.08721419,1.78916,0.348241,-0.05655685,1.760504,NA,NA,NotTracked,NotTracked,
0.965332,-0.2319336,-0.1679688,0.5522461,0.78125,-0.02783203,-2,0,-2,3,0,0,-1,1,0,-14,-8,-6,-6,-8,-34,-22,10.1875,10.1875,10.1875,-39.375,-39.375,-39.375,1.543685,2.932795,7.03435,7.808451,3.444564,0.3446167,-0.1875088,-0.3400519,1.693745,0.2827111,-0.308277,1.631701,0.03377277,0.4340485,1.713682,-0.1475635,-0.3404731,1.647226,0.2304787,-0.2977905,1.639263,0.03761626,-0.04084747,1.740093,0.03138538,-0.3679062,1.7272,-0.1354364,0.1678253,1.744138,-0.05144037,-0.3599537,1.696094,-0.196615,-0.08609977,1.786349,0.3449516,-0.05884111,1.772292,NA,NA,NotTracked,NotTracked,
0.965332,-0.2319336,-0.1679688,0.6054688,0.7641602,-0.1098633,-2,0,-2,3,0,0,-1,1,-22,-10,-2,-1,-1,-2,-4,-15,10.1875,10.1875,10.1875,-54.1875,-54.1875,-54.1875,1.543685,2.932795,7.03435,7.741109,3.414917,0.3516403,-0.1876361,-0.3397504,1.691028,0.2763042,-0.3078921,1.636952,0.03549649,0.4336709,1.710322,-0.1465513,-0.3367959,1.647236,0.2216628,-0.2708924,1.653857,0.03849673,-0.04089198,1.738271,0.0318091,-0.3676542,1.726638,-0.1346923,0.1677454,1.740391,-0.0508938,-0.3595949,1.694754,-0.1969352,-0.08472647,1.782973,0.3414619,-0.06094133,1.780152,NA,NA,NotTracked,NotTracked,
0.965332,-0.2319336,-0.1679688,0.6186523,0.6430664,-0.02099609,-2,0,-2,3,0,0,-1,1,16,5,6,4,2,-2,-6,-8,10.1875,10.1875,10.1875,-51.5,-51.5,-51.5,1.543685,2.932795,7.03435,7.701044,3.402759,0.3638813,-0.1881366,-0.3396554,1.691553,0.2707763,-0.3102438,1.63892,0.03646259,0.4333541,1.708354,-0.1462117,-0.3368769,1.648386,0.213634,-0.2723072,1.6344,0.03909322,-0.04101189,1.737406,0.0319304,-0.3676104,1.726554,-0.1340913,0.1678678,1.737992,-0.05063891,-0.3594348,1.69411,-0.1971385,-0.08503883,1.780901,0.337333,-0.06321442,1.785803,NA,NA,NotTracked,NotTracked,
0.965332,-0.2319336,-0.1679688,0.546875,0.5957031,-0.1103516,-2,0,-2,3,0,0,-1,1,-14,9,1,-4,-6,-16,-54,-47,10.1875,10.1875,10.1875,-33.125,-33.125,-33.125,1.543685,2.932795,7.03435,7.624276,3.375183,0.4001563,-0.1869519,-0.3400569,1.690116,0.2659641,-0.3144703,1.63816,0.03789785,0.4332969,1.706419,-0.147211,-0.3370202,1.647648,0.2094005,-0.2641069,1.63408,0.03963374,-0.04098801,1.736471,0.03212469,-0.3674687,1.726309,-0.1332645,0.1682149,1.735703,-0.05038295,-0.359109,1.693339,-0.1972268,-0.08478836,1.779587,0.3323935,-0.06724671,1.790141,NA,NA,NotTracked,NotTracked,
0.965332,-0.2319336,-0.1679688,0.625,0.6210938,-0.09716797,-2,0,-2,3,0,0,-1,1,1,-1,0,-3,-1,1,-6,5,10.1875,10.1875,10.1875,-4,-4,-4,1.543685,2.932795,7.03435,7.586473,3.346921,0.4382543,-0.1870043,-0.3400484,1.687811,0.2600311,-0.3208739,1.635909,0.03915296,0.4331816,1.704837,-0.1459589,-0.3341223,1.647603,0.2037956,-0.2654669,1.624038,0.04008875,-0.04110635,1.735665,0.03245838,-0.3673921,1.726063,-0.1325812,0.1685188,1.732756,-0.04992311,-0.358968,1.692517,-0.197758,-0.08467006,1.776381,0.3269606,-0.07161185,1.791968,NA,NA,NotTracked,NotTracked,
0.965332,-0.2319336,-0.1679688,0.855957,0.5371094,-0.05908203,-2,0,-2,3,0,0,-1,1,-1,-2,-2,-3,-2,-1,6,-2,10.1875,10.1875,10.1875,7.8125,7.8125,7.8125,1.543685,2.932795,7.03435,7.526224,3.284969,0.5133302,-0.1854427,-0.340161,1.687735,0.2548375,-0.3293788,1.638518,0.04045027,0.4328213,1.703528,-0.1441516,-0.3324171,1.649612,0.2037221,-0.2799629,1.622667,0.04064029,-0.04136566,1.734717,0.0327642,-0.3673853,1.725672,-0.1319614,0.1683454,1.730672,-0.04954174,-0.3588648,1.691427,-0.1973623,-0.0840173,1.773717,0.3190571,-0.07748271,1.792454,NA,NA,NotTracked,NotTracked,
0.965332,-0.2319336,-0.1679688,0.9135742,0.4487305,-0.1162109,-2,0,-2,3,0,0,-1,1,1,-4,-4,-3,1,3,7,8,10.1875,10.1875,10.1875,13.6875,13.6875,13.6875,1.543685,2.932795,7.03435,7.506883,3.243506,0.5463908,-0.1852471,-0.3404588,1.686901,0.2511321,-0.3448263,1.637777,0.04155767,0.432602,1.703056,-0.1477583,-0.3417741,1.641034,0.2128451,-0.3333708,1.606792,0.04100235,-0.04144337,1.734378,0.03313136,-0.3673694,1.725537,-0.1311757,0.1687132,1.728921,-0.04909178,-0.3588159,1.69089,-0.1975409,-0.08420338,1.771451,0.3110669,-0.08271791,1.790599,NA,NA,NotTracked,NotTracked,
0.965332,-0.2319336,-0.1679688,1.32666,0.2832031,-0.3193359,-2,0,-2,3,0,0,-1,1,0,-1,-1,-2,-4,-1,6,4,10.1875,10.1875,10.1875,-14.4375,-14.4375,-14.4375,1.543685,2.932795,7.03435,7.582477,3.163919,0.4679002,-0.1844116,-0.339984,1.686225,0.2489956,-0.3528381,1.637699,0.04261382,0.4325738,1.702817,-0.1455771,-0.3393585,1.643703,0.2096882,-0.3317426,1.609546,0.04124842,-0.04152633,1.734089,0.03345441,-0.3673535,1.725382,-0.1308662,0.168881,1.727853,-0.04877182,-0.3588417,1.690504,-0.197735,-0.08413341,1.769701,0.3058417,-0.08920141,1.787561,NA,NA,NotTracked,NotTracked,
0.965332,-0.2319336,-0.1679688,1.417969,0.1362305,-0.1767578,-2,0,-2,3,0,0,-1,1,1,1,-1,-1,0,1,0,7,10.1875,10.1875,10.1875,-22.0625,-22.0625,-22.0625,1.543685,2.932795,7.03435,7.655824,3.127256,0.3604504,-0.1853294,-0.340309,1.68317,0.2489635,-0.3564347,1.634364,0.04330976,0.4325245,1.702529,-0.1467897,-0.3426314,1.638525,0.2097429,-0.3341036,1.607185,0.04137737,-0.04166716,1.73366,0.03374986,-0.3675035,1.725035,-0.1304729,0.1688025,1.726191,-0.04835791,-0.3590611,1.689587,-0.1982674,-0.08400141,1.767433,0.3028213,-0.09300107,1.785228,NA,NA,NotTracked,NotTracked,
0.965332,-0.2319336,-0.1679688,0.8725586,0.2949219,-0.03369141,-2,0,-2,3,0,0,-1,1,1,0,0,0,1,2,4,6,10.1875,10.1875,10.1875,23.5625,23.5625,23.5625,1.543685,2.932795,7.03435,7.642083,3.143556,0.3988328,-0.1860281,-0.3406335,1.682772,0.2508508,-0.3555254,1.633442,0.04404289,0.4325245,1.702452,-0.1457959,-0.3392972,1.641638,0.2109786,-0.34217,1.599854,0.04181919,-0.04175683,1.733215,0.03461024,-0.3675964,1.724438,-0.1300737,0.168754,1.725308,-0.04752703,-0.3591676,1.688659,-0.1988462,-0.08358729,1.765613,0.3018574,-0.09365916,1.78421,NA,NA,NotTracked,NotTracked,
