ALX,ALY,ALZ,ARX,ARY,ARZ,EMG0L,EMG1L,EMG2L,EMG3L,EMG4L,EMG5L,EMG6L,EMG7L,EMG0R,EMG1R,EMG2R,EMG3R,EMG4R,EMG5R,EMG6R,EMG7R,GLX,GLY,GLZ,GRX,GRY,GRZ,ORL,OPL,OYL,ORR,OPR,OYR,LHNX,LHNY,LHNZ,RHNX,RHNY,RHNZ,HX,HY,HZ,LTX,LTY,LTZ,RTX,RTY,RTZ,SpineMidX,SpineMidY,SpineMidZ,SpineBaseX,SpineBaseY,SpineBaseZ,ShoulderLeftX,ShoulderLeftY,ShoulderLeftZ,ShoulderRightX,ShoulderRightY,ShoulderRightZ,ElbowLeftX,ElbowLeftY,ElbowLeftZ,ElbowRightX,ElbowRightY,ElbowRightZ,Myo_Pose_left,Myo_Pose_Right,Kinect_pose_left,Kinect_pose_right
0.965332,-0.1879883,-0.1264648,0.8564453,0.4311523,-0.01171875,-1,-10,-1,6,-1,0,0,-2,1,1,-4,-1,3,4,3,1,-8.1875,-8.1875,-8.1875,5.5,5.5,5.5,1.47901,2.869612,6.49283,7.576883,3.229359,0.2928227,-0.201288,-0.3270631,1.699929,0.2371053,-0.3478619,1.662046,0.03891752,0.4440476,1.734462,-0.1604273,-0.3267378,1.656429,0.2731917,-0.3646829,1.658839,0.02624574,-0.03193898,1.744512,0.02748464,-0.35748,1.737565,-0.1425838,0.177796,1.74258,-0.05123956,-0.3492089,1.698417,-0.203953,-0.07782732,1.778536,0.2683555,-0.09125469,1.804495,NA,NA,NotTracked,NotTracked,
0.965332,-0.1879883,-0.1264648,0.871582,0.4135742,-0.03515625,-1,-10,-1,6,-1,0,0,-2,-3,-2,-2,-2,2,-1,-4,-10,-8.1875,-8.1875,-8.1875,2.5,2.5,2.5,1.47901,2.869612,6.49283,7.583584,3.228651,0.2967591,-0.202319,-0.3280112,1.698489,0.2374648,-0.3472001,1.659892,0.03767972,0.4436502,1.733644,-0.1595494,-0.3285376,1.657,0.2733645,-0.3640905,1.655548,0.02577555,-0.03228205,1.744061,0.0271872,-0.3577883,1.737014,-0.1432981,0.1774173,1.742779,-0.05158851,-0.3495701,1.698079,-0.2041915,-0.07804305,1.778548,0.2685047,-0.09131487,1.803463,NA,NA,NotTracked,NotTracked,
0.965332,-0.1879883,-0.1264648,0.9399414,0.4008789,-0.04345703,-1,-10,-1,6,-1,0,0,-2,0,-1,2,-2,1,-2,-5,-4,-8.1875,-8.1875,-8.1875,2.1875,2.1875,2.1875,1.47901,2.869612,6.49283,7.580973,3.225305,0.3044485,-0.2016209,-0.3275191,1.698777,0.2371091,-0.346525,1.657735,0.03660222,0.4433269,1.732829,-0.1599909,-0.3233408,1.658813,0.2737764,-0.3595382,1.651118,0.02534414,-0.03244698,1.743662,0.02695401,-0.3579381,1.736581,-0.143819,0.1771663,1.742881,-0.05182134,-0.3497578,1.697897,-0.2044444,-0.07810649,1.778624,0.2690686,-0.0906922,1.802444,NA,NA,NotTracked,NotTracked,
0.965332,-0.1879883,-0.1264648,0.9301758,0.421875,-0.1005859,-1,-10,-1,6,-1,0,0,-2,1,0,-2,1,-1,0,-1,0,-8.1875,-8.1875,-8.1875,0.5,0.5,0.5,1.47901,2.869612,6.49283,7.578312,3.238659,0.316847,-0.2020565,-0.3263377,1.697273,0.2369394,-0.3454123,1.654226,0.03563061,0.4433714,1.731568,-0.1606452,-0.3126845,1.660532,0.272041,-0.3549242,1.648,0.02504301,-0.03254144,1.743037,0.02659286,-0.3579995,1.735836,-0.1442068,0.1772108,1.742596,-0.05215249,-0.3499162,1.697347,-0.2046321,-0.07809133,1.778511,0.2700129,-0.08971286,1.801225,NA,NA,NotTracked,NotTracked,
0.965332,-0.1879883,-0.1264648,0.8500977,0.425293,-0.0390625,-1,-10,-1,6,-1,0,0,-2,-3,-2,2,1,-1,-5,0,-2,-8.1875,-8.1875,-8.1875,6.25,6.25,6.25,1.47901,2.869612,6.49283,7.580308,3.257535,0.3177387,-0.201838,-0.326823,1.698076,0.2390847,-0.3423916,1.652823,0.03502797,0.4433918,1.730506,-0.1580986,-0.3099811,1.666629,0.2758734,-0.352006,1.64624,0.02469578,-0.03254335,1.742537,0.02620636,-0.3579219,1.735312,-0.1447066,0.1774569,1.742483,-0.05247276,-0.3499057,1.697153,-0.2046893,-0.07807209,1.778476,0.2717038,-0.08826111,1.800238,NA,NA,NotTracked,NotTracked,
0.965332,-0.1879883,-0.1264648,0.9638672,0.453125,-0.08007813,-1,-10,-1,6,-1,0,0,-2,-1,8,-5,-5,4,-1,-1,0,-8.1875,-8.1875,-8.1875,7.75,7.75,7.75,1.47901,2.869612,6.49283,7.606958,3.274754,0.3090207,-0.2011314,-0.3303799,1.696694,0.2433651,-0.3324234,1.651155,0.03455745,0.4433986,1.729432,-0.1598006,-0.3180024,1.660959,0.2820992,-0.3436798,1.645583,0.02441189,-0.03273175,1.741973,0.02580669,-0.3580921,1.734762,-0.1448996,0.1774166,1.742314,-0.05291081,-0.3501203,1.696761,-0.2047373,-0.07831628,1.778253,0.275022,-0.08598445,1.799538,NA,NA,NotTracked,NotTracked,
0.965332,-0.1879883,-0.1264648,0.8808594,0.7504883,-0.06445313,-1,-10,-1,6,-1,0,0,-2,1,-3,-1,68,-5,-5,-2,-1,-8.1875,-8.1875,-8.1875,-6.375,-6.375,-6.375,1.47901,2.869612,6.49283,7.609298,3.422831,0.2981912,-0.20141,-0.3296743,1.696875,0.2399291,-0.314799,1.641662,0.0341785,0.4432635,1.72861,-0.1595951,-0.3182805,1.661394,0.2855489,-0.3157521,1.629313,0.02410455,-0.03289736,1.741529,0.02518776,-0.3582684,1.734136,-0.145147,0.1773753,1.742092,-0.05357819,-0.3502854,1.696292,-0.2048137,-0.07841945,1.778131,0.2811344,-0.07829174,1.800201,NA,NA,NotTracked,NotTracked,
0.965332,-0.1879883,-0.1264648,0.7026367,0.9462891,-0.184082,-1,-10,-1,6,-1,0,0,-2,6,4,3,-4,7,7,3,3,-8.1875,-8.1875,-8.1875,15.3125,15.3125,15.3125,1.47901,2.869612,6.49283,7.643547,3.689541,0.289536,-0.2017142,-0.328876,1.695942,0.2465765,-0.26724,1.617192,0.0339398,0.4431413,1.727384,-0.1605798,-0.3149027,1.661197,0.2849402,-0.2661213,1.581518,0.02366818,-0.03297207,1.74069,0.02415524,-0.3581675,1.732921,-0.1454653,0.1774015,1.741687,-0.05468195,-0.350116,1.695339,-0.2049617,-0.07811158,1.77777,0.2911677,-0.0565529,1.798552,NA,NA,NotTracked,NotTracked,
0.965332,-0.1879883,-0.1264648,0.5351563,0.956543,-0.152832,-1,-10,-1,6,-1,0,0,-2,1,0,-8,-34,1,1,-1,1,-8.1875,-8.1875,-8.1875,11.625,11.625,11.625,1.47901,2.869612,6.49283,7.638645,3.928105,0.3112932,-0.2026334,-0.3288457,1.694311,0.2318703,-0.1818143,1.565778,0.03390889,0.443084,1.726949,-0.1594105,-0.3131461,1.664885,0.260758,-0.1768627,1.530214,0.02344434,-0.03285853,1.740456,0.02346241,-0.3578441,1.73231,-0.1455814,0.1775723,1.741246,-0.05558016,-0.3496263,1.694584,-0.2052797,-0.0776919,1.777289,0.3018435,-0.03418752,1.79142,NA,NA,NotTracked,Lasso,
0.965332,-0.1879883,-0.1264648,0.02148438,1.161621,0.0703125,-1,-10,-1,6,-1,0,0,-2,-10,-9,3,2,1,-1,0,0,-8.1875,-8.1875,-8.1875,36.0625,36.0625,36.0625,1.47901,2.869612,6.49283,7.663331,4.578412,0.4103889,-0.2029049,-0.3278457,1.692436,0.2033942,-0.07038326,1.52349,0.03395235,0.4429812,1.726898,-0.1626002,-0.3177147,1.654935,0.2249967,-0.08746634,1.483158,0.02335913,-0.03281895,1.740418,0.0231586,-0.357655,1.731973,-0.1456965,0.1776065,1.740902,-0.05596208,-0.3494144,1.694162,-0.2054132,-0.0778945,1.776466,0.3236921,-0.02669738,1.757425,NA,NA,NotTracked,Unknown,
0.965332,-0.1879883,-0.1264648,-0.1171875,1.101563,-0.01464844,-1,-10,-1,6,-1,0,0,-2,-2,-6,-3,2,-3,-4,-1,1,-8.1875,-8.1875,-8.1875,51.8125,51.8125,51.8125,1.47901,2.869612,6.49283,7.713835,4.998648,0.5299377,-0.2019631,-0.3288085,1.68978,0.1687838,0.04172279,1.51786,0.034285,0.4425642,1.727064,-0.1624456,-0.3235445,1.653039,0.1619208,0.03549499,1.4672,0.02329939,-0.03289486,1.740672,0.02320582,-0.3575997,1.73187,-0.1456438,0.1771843,1.740627,-0.0559149,-0.3493966,1.69406,-0.2053043,-0.07810927,1.775186,0.3222832,-0.02927959,1.692262,NA,NA,NotTracked,Unknown,
0.965332,-0.1879883,-0.1264648,-0.25,1.075684,-0.07714844,-1,-10,-1,6,-1,0,0,-2,-4,6,-3,-3,-3,-7,-2,1,-8.1875,-8.1875,-8.1875,66.0625,66.0625,66.0625,1.47901,2.869612,6.49283,7.844856,5.42312,0.684152,-0.2014502,-0.3293619,1.687122,0.1399436,0.1371748,1.534698,0.03517758,0.4414404,1.727906,-0.1607543,-0.3253519,1.64892,0.1054261,0.1095788,1.586222,0.02355301,-0.03356295,1.741329,0.02359718,-0.3583665,1.731482,-0.1467972,0.1751884,1.734458,-0.05575479,-0.3503472,1.694182,-0.2055752,-0.07822153,1.772988,0.3198626,-0.01120222,1.665242,NA,NA,NotTracked,Unknown,
0.965332,-0.1879883,-0.1264648,-0.2719727,0.9174805,-0.1704102,-1,-10,-1,6,-1,0,0,-2,0,-7,-6,-3,-2,4,9,-5,-8.1875,-8.1875,-8.1875,48.75,48.75,48.75,1.47901,2.869612,6.49283,7.995309,5.768915,0.8593405,-0.2010967,-0.3284081,1.686912,0.1396583,0.2049446,1.549853,0.03523025,0.4406128,1.729507,-0.1612797,-0.3277675,1.645679,0.09976639,0.178561,1.540812,0.02301214,-0.03439328,1.741586,0.02324883,-0.3603147,1.731172,-0.1466638,0.1750517,1.736856,-0.05672088,-0.3527038,1.695668,-0.2054992,-0.07784975,1.772224,0.3280106,0.007983881,1.613473,NA,NA,NotTracked,Unknown,
0.965332,-0.1879883,-0.1264648,-0.2324219,0.7099609,-0.2543945,-1,-10,-1,6,-1,0,0,-2,3,-6,-3,-2,-2,-1,-18,6,-8.1875,-8.1875,-8.1875,32.9375,32.9375,32.9375,1.47901,2.869612,6.49283,8.198286,6.072172,1.074204,-0.2000504,-0.3289354,1.688162,0.1467133,0.2348915,1.557053,0.0357098,0.4403196,1.730877,-0.1608717,-0.321997,1.65078,0.0966313,0.2240608,1.539647,0.02362068,-0.03427528,1.741599,0.02306972,-0.3607078,1.731055,-0.145208,0.1758785,1.739648,-0.05717635,-0.3528585,1.695475,-0.2049438,-0.07402506,1.772003,0.3329706,0.02442187,1.588178,NA,NA,NotTracked,Unknown,
0.965332,-0.1879883,-0.1264648,-0.3486328,0.6762695,-0.2885742,-1,-10,-1,6,-1,0,0,-2,7,8,1,-5,-6,2,-25,9,-8.1875,-8.1875,-8.1875,18.5,18.5,18.5,1.47901,2.869612,6.49283,8.306107,6.153933,1.185928,-0.2002725,-0.3297171,1.689969,0.1501848,0.2468146,1.558876,0.03618725,0.4401485,1.731168,-0.1603971,-0.3300789,1.64703,0.09563036,0.2384885,1.540345,0.02477441,-0.03387639,1.741647,0.02284738,-0.3605705,1.730862,-0.143714,0.1759814,1.741428,-0.05780299,-0.3523088,1.695101,-0.204078,-0.07071514,1.772841,0.3321662,0.03979829,1.573378,NA,NA,NotTracked,Unknown,
0.965332,-0.1879883,-0.1264648,-0.5888672,0.5898438,-0.2963867,-1,-10,-1,6,-1,0,0,-2,10,-2,-1,0,5,30,18,16,-8.1875,-8.1875,-8.1875,9,9,9,1.47901,2.869612,6.49283,8.390545,6.213505,1.283992,-0.2014908,-0.3277557,1.695859,0.09911961,0.2884224,1.576018,0.03671412,0.4397613,1.731726,-0.1586145,-0.3099692,1.660778,0.06876674,0.2837086,1.609625,0.02633577,-0.03328996,1.742407,0.02271437,-0.3602859,1.730851,-0.1425018,0.1758191,1.743996,-0.05825714,-0.3515497,1.695025,-0.2031986,-0.06900754,1.775581,0.3297921,0.05948901,1.558056,NA,NA,NotTracked,Unknown,
0.965332,-0.1879883,-0.1264648,-0.6762695,0.4902344,-0.453125,-1,-10,-1,6,-1,0,0,-2,-7,-8,-15,-13,2,-7,-13,-6,-8.1875,-8.1875,-8.1875,7,7,7,1.47901,2.869612,6.49283,8.461935,6.25758,1.361104,-0.2020535,-0.3273717,1.69758,0.09649144,0.2977696,1.568482,0.03704425,0.4395493,1.731892,-0.1610629,-0.3210273,1.656839,0.07329971,0.2800273,1.58575,0.02787475,-0.03253934,1.743443,0.02236489,-0.3596337,1.730839,-0.1411611,0.1760479,1.745293,-0.05889598,-0.3504061,1.694923,-0.2026904,-0.06781507,1.777664,0.3289355,0.06844588,1.551894,NA,NA,NotTracked,Unknown,
0.965332,-0.1879883,-0.1264648,-0.4829102,0.5136719,-0.4702148,-1,-10,-1,6,-1,0,0,-2,-1,-8,-8,3,-13,-4,-9,0,-8.1875,-8.1875,-8.1875,14.375,14.375,14.375,1.47901,2.869612,6.49283,8.447749,6.188055,1.293766,-0.2029385,-0.3268093,1.698336,0.1253669,0.27475,1.539294,0.03709168,0.4402192,1.732512,-0.1652433,-0.3292509,1.654567,0.09075969,0.2497429,1.54021,0.02866507,-0.03192843,1.744285,0.02186857,-0.3587806,1.731016,-0.1402223,0.1765107,1.747098,-0.05967551,-0.3491762,1.695379,-0.2021416,-0.06761167,1.779294,0.3292809,0.07277384,1.549526,NA,NA,NotTracked,Unknown,
0.965332,-0.1879883,-0.1264648,-0.7558594,0.6777344,-0.1259766,-1,-10,-1,6,-1,0,0,-2,-25,-4,-4,-1,0,-10,-17,-1,-8.1875,-8.1875,-8.1875,-4.6875,-4.6875,-4.6875,1.47901,2.869612,6.49283,8.368989,6.162533,1.22683,-0.2034814,-0.3265584,1.698918,0.1114665,0.2775083,1.552084,0.03682345,0.4404885,1.732971,-0.1597316,-0.3018607,1.67331,0.07786611,0.2525228,1.562461,0.02880335,-0.03176335,1.744132,0.02153425,-0.3582046,1.73112,-0.1398443,0.1768453,1.748621,-0.06010672,-0.3484953,1.695673,-0.2020941,-0.06685779,1.781181,0.3295539,0.07386888,1.548707,NA,NA,NotTracked,Unknown,
0.965332,-0.1879883,-0.1264648,-0.6748047,0.5087891,-0.5253906,-1,-10,-1,6,-1,0,0,-2,9,-2,-1,0,-4,-2,-12,-6,-8.1875,-8.1875,-8.1875,-8.9375,-8.9375,-8.9375,1.47901,2.869612,6.49283,8.416485,6.24521,1.307407,-0.2030422,-0.3264569,1.700413,0.1139179,0.284089,1.56806,0.03693665,0.4402239,1.73317,-0.165065,-0.3282395,1.6542,0.08409408,0.2564368,1.577889,0.02925494,-0.03144814,1.744686,0.0213016,-0.3578811,1.73119,-0.1395841,0.1766302,1.748878,-0.06041518,-0.3480974,1.695797,-0.201971,-0.0666464,1.7816,0.3291078,0.07467613,1.547914,NA,NA,NotTracked,Unknown,
0.965332,-0.1879883,-0.1264648,-0.5888672,0.5415039,-0.4301758,-1,-10,-1,6,-1,0,0,-2,-8,-16,-12,-6,-51,14,11,10,-8.1875,-8.1875,-8.1875,9.4375,9.4375,9.4375,1.47901,2.869612,6.49283,8.445137,6.290012,1.321026,-0.2039217,-0.3264371,1.697792,0.1148318,0.2874447,1.554918,0.0369664,0.4400002,1.733454,-0.1638448,-0.3096041,1.666026,0.1028704,0.253919,1.529894,0.03003107,-0.03122616,1.7455,0.02125325,-0.3575456,1.73113,-0.1391062,0.1762131,1.748996,-0.06055631,-0.3475857,1.69554,-0.2018865,-0.06645311,1.781775,0.3285259,0.07513308,1.547445,NA,NA,NotTracked,Unknown,
0.965332,-0.1879883,-0.1264648,-0.5424805,0.5913086,-0.315918,-1,-10,-1,6,-1,0,0,-2,2,-3,-9,-24,-7,0,12,11,-8.1875,-8.1875,-8.1875,10.75,10.75,10.75,1.47901,2.869612,6.49283,8.396349,6.20801,1.225659,-0.2046683,-0.3258329,1.698146,0.1246829,0.2700104,1.54106,0.03644029,0.4401948,1.734643,-0.1598775,-0.3023857,1.677,0.09563418,0.2422846,1.544474,0.03019647,-0.03117483,1.745732,0.0211606,-0.3573349,1.731063,-0.1390551,0.1760157,1.749251,-0.0606555,-0.3473566,1.69542,-0.2019127,-0.06650142,1.781847,0.3287224,0.07476375,1.547847,NA,NA,NotTracked,Unknown,
0.965332,-0.1879883,-0.1264648,-0.8623047,0.6225586,-0.2373047,-1,-10,-1,6,-1,0,0,-2,40,-11,0,5,-5,3,-24,12,-8.1875,-8.1875,-8.1875,-7.4375,-7.4375,-7.4375,1.47901,2.869612,6.49283,8.332322,6.204934,1.191369,-0.2042132,-0.3259564,1.697725,0.120234,0.2704035,1.561102,0.03603448,0.4396817,1.735741,-0.1641597,-0.3180265,1.661878,0.08500858,0.2442144,1.575625,0.02988473,-0.03151263,1.745034,0.02105701,-0.3572582,1.730874,-0.1391368,0.1759088,1.749497,-0.06076256,-0.3472772,1.695224,-0.2019727,-0.06646572,1.781955,0.3291703,0.07321966,1.549046,NA,NA,NotTracked,Unknown,
0.965332,-0.1879883,-0.1264648,-0.7597656,0.5341797,-0.4897461,-1,-10,-1,6,-1,0,0,-2,7,2,2,2,-6,-1,-1,1,-8.1875,-8.1875,-8.1875,-15.4375,-15.4375,-15.4375,1.47901,2.869612,6.49283,8.377025,6.315826,1.271221,-0.2049159,-0.3236851,1.697378,0.1082344,0.2930843,1.577959,0.03613375,0.4393239,1.736047,-0.1709244,-0.3276848,1.648611,0.07781981,0.2755723,1.605889,0.03036775,-0.03127686,1.745248,0.02105698,-0.3570237,1.730519,-0.139053,0.1755937,1.749314,-0.06084496,-0.3470171,1.694584,-0.2019398,-0.06680535,1.781769,0.3278653,0.07267687,1.549562,NA,NA,NotTracked,Lasso,
0.965332,-0.1879883,-0.1264648,-0.5864258,0.5581055,-0.3735352,-1,-10,-1,6,-1,0,0,-2,2,1,-16,39,7,-5,-57,-7,-8.1875,-8.1875,-8.1875,3.0625,3.0625,3.0625,1.47901,2.869612,6.49283,8.393336,6.373907,1.277782,-0.2039286,-0.3254847,1.693766,0.1047966,0.3004187,1.56349,0.03634562,0.4393143,1.73641,-0.1677258,-0.3272402,1.650045,0.07665455,0.2967364,1.602445,0.03125964,-0.03074357,1.746097,0.02134136,-0.3565713,1.7303,-0.1387966,0.175423,1.749245,-0.06052863,-0.3463866,1.693846,-0.2019473,-0.06646422,1.78153,0.3263468,0.07244277,1.549988,NA,NA,NotTracked,Unknown,
0.965332,-0.1879883,-0.1264648,-0.5546875,0.5878906,-0.2387695,-1,-10,-1,6,-1,0,0,-2,-5,3,7,0,6,7,10,7,-8.1875,-8.1875,-8.1875,3,3,3,1.47901,2.869612,6.49283,8.335597,6.298645,1.184767,-0.2055684,-0.3268541,1.692933,0.1171296,0.2844824,1.551915,0.03637446,0.4393037,1.737434,-0.1667853,-0.3192974,1.656937,0.08505146,0.2625409,1.562331,0.0317187,-0.03055514,1.746634,0.02151733,-0.3564041,1.730252,-0.1386805,0.1750875,1.74912,-0.06033624,-0.346249,1.693621,-0.2020448,-0.06587671,1.780563,0.3257932,0.07066192,1.551287,NA,NA,NotTracked,Unknown,
0.965332,-0.1879883,-0.1264648,-0.8364258,0.597168,-0.2133789,-1,-10,-1,6,-1,0,0,-2,-3,5,-2,-2,-3,-9,-14,-7,-8.1875,-8.1875,-8.1875,-13.0625,-13.0625,-13.0625,1.47901,2.869612,6.49283,8.250657,6.301795,1.138309,-0.2039909,-0.3257069,1.694772,0.1169152,0.2904665,1.569274,0.03644104,0.4392922,1.737629,-0.1679889,-0.3301402,1.645,0.08397599,0.2684529,1.588455,0.03181414,-0.03051849,1.746701,0.02157074,-0.3563297,1.730197,-0.1385822,0.1748474,1.748628,-0.06029254,-0.3461589,1.693262,-0.2022341,-0.06551602,1.780091,0.3244044,0.0673757,1.552365,NA,NA,NotTracked,Unknown,
0.965332,-0.1879883,-0.1264648,-0.4990234,0.6191406,-0.3745117,-1,-10,-1,6,-1,0,0,-2,-1,-1,-1,1,-1,-4,9,4,-8.1875,-8.1875,-8.1875,-12.1875,-12.1875,-12.1875,1.47901,2.869612,6.49283,8.191454,6.367177,1.098598,-0.2041288,-0.3257604,1.694634,0.1015524,0.3199357,1.588475,0.03687766,0.4389058,1.73759,-0.165936,-0.3198218,1.655272,0.05249029,0.3165959,1.627524,0.03238282,-0.03018826,1.747136,0.02179747,-0.3560286,1.73032,-0.1381792,0.1747372,1.747672,-0.06014066,-0.3458778,1.693051,-0.2020893,-0.06498389,1.77946,0.322129,0.06173846,1.554705,NA,NA,NotTracked,Unknown,
0.965332,-0.1879883,-0.1264648,-0.2753906,0.4882813,-0.371582,-1,-10,-1,6,-1,0,0,-2,-3,-1,0,-8,-2,-5,-2,-1,-8.1875,-8.1875,-8.1875,8.8125,8.8125,8.8125,1.47901,2.869612,6.49283,8.11288,6.266196,0.9753112,-0.2019213,-0.3353526,1.687889,0.1032494,0.3145742,1.564025,0.03689218,0.4386498,1.737421,-0.1711885,-0.3415667,1.640027,0.0726556,0.3250182,1.613444,0.03267419,-0.0299661,1.747452,0.02193144,-0.3558779,1.730383,-0.138012,0.1746393,1.747199,-0.06001098,-0.3457381,1.69291,-0.2020404,-0.0645211,1.778552,0.3229257,0.05095844,1.561961,NA,NA,NotTracked,Unknown,
0.965332,-0.1879883,-0.1264648,-0.1445313,0.7983398,-0.2871094,-1,-10,-1,6,-1,0,0,-2,-2,-1,-2,-4,-4,-2,-5,-2,-8.1875,-8.1875,-8.1875,19.1875,19.1875,19.1875,1.47901,2.869612,6.49283,8.048956,6.016591,0.8241988,-0.2036335,-0.3275285,1.693738,0.1559333,0.2116423,1.501876,0.03475526,0.4388968,1.737601,-0.1624585,-0.3217193,1.65876,0.116583,0.1936664,1.517667,0.03041572,-0.03159091,1.747327,0.02172573,-0.3572173,1.730415,-0.1396448,0.1743453,1.747771,-0.06018687,-0.3475008,1.693205,-0.202452,-0.06521042,1.778109,0.333456,0.0196207,1.59335,NA,NA,NotTracked,Unknown,
0.965332,-0.1879883,-0.1264648,-0.2470703,1.050293,-0.1884766,-1,-10,-1,6,-1,0,0,-2,-3,-3,-3,-3,-7,-19,5,-4,-8.1875,-8.1875,-8.1875,4.25,4.25,4.25,1.47901,2.869612,6.49283,7.986427,5.498511,0.7005418,-0.1910373,-0.3337687,1.688709,0.1719198,0.1190431,1.475034,0.03197438,0.4387223,1.737496,-0.1396269,-0.3354911,1.646937,0.142867,0.09966952,1.481917,0.02623677,-0.03580938,1.746781,0.02094804,-0.3634974,1.730194,-0.1409155,0.1737277,1.747986,-0.06062572,-0.3547022,1.694811,-0.204395,-0.07258563,1.778191,0.340095,-0.005569819,1.633279,NA,NA,NotTracked,Closed,
0.965332,-0.1879883,-0.1264648,-0.2475586,1.152832,-0.1293945,-1,-10,-1,6,-1,0,0,-2,-1,7,0,-4,0,-2,-1,-1,-8.1875,-8.1875,-8.1875,-7.0625,-7.0625,-7.0625,1.47901,2.869612,6.49283,7.954196,5.06854,0.5633912,-0.2013339,-0.3304285,1.698377,0.2076681,0.008146295,1.473977,0.0275261,0.438931,1.736463,-0.1600578,-0.3271768,1.658484,0.1695889,-0.01140629,1.48,0.02556262,-0.03552726,1.746744,0.0209219,-0.3622921,1.730792,-0.1439586,0.1734467,1.749499,-0.06022039,-0.3538854,1.695467,-0.2044256,-0.07602417,1.780323,0.3394116,-0.008326314,1.668838,NA,NA,NotTracked,Unknown,
0.965332,-0.1879883,-0.1264648,0.007324219,1.117676,-0.1118164,-1,-10,-1,6,-1,0,0,-2,-1,0,-1,-1,-3,-2,-1,-1,-8.1875,-8.1875,-8.1875,-1.75,-1.75,-1.75,1.47901,2.869612,6.49283,7.948529,4.662412,0.47892,-0.2013182,-0.3311445,1.700231,0.2350054,-0.09187688,1.49637,0.02307984,0.439771,1.733607,-0.160977,-0.3292689,1.657171,0.2057888,-0.1354507,1.515167,0.02487095,-0.03497009,1.746293,0.02059931,-0.3610069,1.731063,-0.1454606,0.1735874,1.749862,-0.06019454,-0.3529848,1.695739,-0.204174,-0.07682335,1.782184,0.3805127,-0.008121924,1.700952,NA,NA,NotTracked,Unknown,
0.965332,-0.1879883,-0.1264648,0.2524414,1.029785,-0.2368164,-1,-10,-1,6,-1,0,0,-2,4,-2,-7,-4,-2,-6,7,14,-8.1875,-8.1875,-8.1875,2.5,2.5,2.5,1.47901,2.869612,6.49283,7.965924,4.295627,0.4341828,-0.2011852,-0.3307392,1.700856,0.2637641,-0.1731664,1.544214,0.01872275,0.4404095,1.729808,-0.1607151,-0.3295963,1.658788,0.2938143,-0.2116357,1.548,0.02416547,-0.03447834,1.744791,0.02019585,-0.3603769,1.73091,-0.1462161,0.1737023,1.749537,-0.06040154,-0.3525266,1.695607,-0.2040285,-0.07741425,1.782702,0.3345235,-0.004024053,1.779376,NA,NA,NotTracked,Unknown,
0.965332,-0.1879883,-0.1264648,0.4765625,0.90625,-0.2573242,-1,-10,-1,6,-1,0,0,-2,-6,-2,-2,3,0,-1,-1,-3,-8.1875,-8.1875,-8.1875,-4.5,-4.5,-4.5,1.47901,2.869612,6.49283,7.972185,3.997343,0.4156434,-0.2012163,-0.3309893,1.700463,0.2714901,-0.2255802,1.593835,0.01545588,0.440562,1.727908,-0.159467,-0.3148554,1.66633,0.3061621,-0.2422026,1.566265,0.02356195,-0.03407273,1.743177,0.01999632,-0.36019,1.730778,-0.1471276,0.173756,1.748744,-0.06046107,-0.3524569,1.695638,-0.2035961,-0.07860351,1.783147,0.3339599,-0.01043619,1.787437,NA,NA,NotTracked,Unknown,
0.965332,-0.1879883,-0.1264648,0.5888672,0.8535156,-0.1396484,-1,-10,-1,6,-1,0,0,-2,29,7,1,-3,1,7,19,14,-8.1875,-8.1875,-8.1875,-48.75,-48.75,-48.75,1.47901,2.869612,6.49283,7.923273,3.713303,0.3739955,-0.2019551,-0.3289934,1.697658,0.2662168,-0.2574498,1.631417,0.01267594,0.4404755,1.726533,-0.1596233,-0.3192284,1.660029,0.298319,-0.2579661,1.591326,0.02336454,-0.03361538,1.741029,0.01990498,-0.3600118,1.730491,-0.1476,0.1737505,1.747148,-0.06047327,-0.3523707,1.695502,-0.2032357,-0.07932092,1.782289,0.3286904,-0.0232199,1.801056,NA,NA,NotTracked,NotTracked,
0.965332,-0.1879883,-0.1264648,0.5766602,0.6791992,-0.09619141,-1,-10,-1,6,-1,0,0,-2,26,10,4,2,1,7,3,18,-8.1875,-8.1875,-8.1875,-51.625,-51.625,-51.625,1.47901,2.869612,6.49283,7.790987,3.529856,0.38017,-0.2032072,-0.3278501,1.695987,0.255123,-0.2775557,1.646405,0.01126294,0.4406742,1.725717,-0.159332,-0.3184454,1.661687,0.2878848,-0.2839451,1.6106,0.02333313,-0.03312701,1.7389,0.01982548,-0.3599528,1.730096,-0.147938,0.1734475,1.744238,-0.06048501,-0.3523386,1.695253,-0.2023055,-0.07998858,1.780191,0.3188456,-0.03766748,1.809466,NA,NA,NotTracked,NotTracked,
0.965332,-0.1879883,-0.1264648,0.6826172,0.7617188,-0.1367188,-1,-10,-1,6,-1,0,0,-2,-10,-7,-3,-5,-9,-5,10,-8,-8.1875,-8.1875,-8.1875,-60.6875,-60.6875,-60.6875,1.47901,2.869612,6.49283,7.706688,3.443653,0.3814225,-0.2026864,-0.3275907,1.69543,0.2482478,-0.2943871,1.650165,0.01056733,0.4407847,1.72549,-0.1627795,-0.3217652,1.659134,0.2785036,-0.3149516,1.618567,0.02327346,-0.0328244,1.737479,0.01971068,-0.3599738,1.729742,-0.1481384,0.1729729,1.741832,-0.06054861,-0.3523575,1.694986,-0.201377,-0.07994235,1.777788,0.3022543,-0.05650608,1.815272,NA,NA,NotTracked,NotTracked,
0.965332,-0.1879883,-0.1264648,0.7734375,0.6206055,-0.1088867,-1,-10,-1,6,-1,0,0,-2,3,3,3,3,20,24,4,3,-8.1875,-8.1875,-8.1875,-64.375,-64.375,-64.375,1.47901,2.869612,6.49283,7.611957,3.390322,0.3629674,-0.201743,-0.3282324,1.692103,0.2257251,-0.3276058,1.639252,0.01015214,0.440885,1.725267,-0.1652675,-0.3289159,1.646846,0.2687271,-0.3464815,1.622393,0.02372018,-0.03268185,1.73617,0.02033592,-0.3601639,1.729041,-0.1481795,0.1725163,1.739641,-0.05971927,-0.3525669,1.693954,-0.2007047,-0.08047397,1.775155,0.2853667,-0.07365929,1.810399,NA,NA,NotTracked,NotTracked,
0.965332,-0.1879883,-0.1264648,1.005859,0.4077148,-0.1894531,-1,-10,-1,6,-1,0,0,-2,1,0,-1,0,4,-9,-1,-3,-8.1875,-8.1875,-8.1875,-28.5625,-28.5625,-28.5625,1.47901,2.869612,6.49283,7.553017,3.304039,0.3658825,-0.2034509,-0.3290769,1.690428,0.2231824,-0.3353647,1.643648,0.009973247,0.4406562,1.725161,-0.158791,-0.304383,1.665047,0.2582501,-0.3842668,1.633154,0.02413934,-0.0329322,1.73469,0.02131389,-0.3605508,1.727839,-0.1479464,0.1717441,1.736451,-0.05859136,-0.3531463,1.692326,-0.200608,-0.08088375,1.77218,0.2730128,-0.08651078,1.80215,NA,NA,NotTracked,NotTracked,
0.965332,-0.1879883,-0.1264648,1.222656,0.2158203,-0.1743164,-1,-10,-1,6,-1,0,0,-2,-1,-2,-2,-2,3,7,9,-2,-8.1875,-8.1875,-8.1875,-34.5,-34.5,-34.5,1.47901,2.869612,6.49283,7.652708,3.218304,0.1854146,-0.2023709,-0.3274229,1.685388,0.2354123,-0.3417978,1.643059,0.01009354,0.4405234,1.725043,-0.1647964,-0.3294539,1.639091,0.2717352,-0.3666863,1.6298,0.02463175,-0.03314182,1.732862,0.02239007,-0.3608079,1.726328,-0.1479555,0.1711919,1.733711,-0.0572326,-0.3535187,1.690065,-0.2013054,-0.08152591,1.768828,0.2685138,-0.08989807,1.797728,NA,NA,NotTracked,NotTracked,
0.965332,-0.1879883,-0.1264648,0.8120117,0.4750977,0.02050781,-1,-10,-1,6,-1,0,0,-2,0,-1,-1,1,4,3,1,-2,-8.1875,-8.1875,-8.1875,33.625,33.625,33.625,1.47901,2.869612,6.49283,7.672961,3.214518,0.1985557,-0.2022681,-0.3238463,1.681009,0.2368267,-0.3351659,1.645016,0.01044459,0.4403877,1.724986,-0.1633215,-0.3270874,1.636667,0.2727361,-0.3527459,1.6329,0.02542282,-0.0329965,1.730381,0.02363949,-0.3603234,1.724044,-0.1481133,0.1715638,1.731066,-0.05595144,-0.3532612,1.687485,-0.2015306,-0.08134424,1.76508,0.2668886,-0.09027769,1.794436,NA,NA,NotTracked,NotTracked,
0.965332,-0.1879883,-0.1264648,0.7783203,0.496582,0.04882813,-1,-10,-1,6,-1,0,0,-2,-1,-1,2,1,0,-6,-16,-3,-8.1875,-8.1875,-8.1875,0.375,0.375,0.375,1.47901,2.869612,6.49283,7.691883,3.213897,0.1997057,-0.2015343,-0.3271492,1.675635,0.2369284,-0.3361503,1.642442,0.01082682,0.4401824,1.725089,-0.1627604,-0.3259464,1.631913,0.2730852,-0.3572882,1.630067,0.02586153,-0.03240434,1.727777,0.02470062,-0.359501,1.721431,-0.147963,0.1721865,1.728049,-0.05467032,-0.3524384,1.684297,-0.2012166,-0.08116192,1.761559,0.2644479,-0.08987253,1.789594,NA,NA,NotTracked,NotTracked,
0.965332,-0.1879883,-0.1264648,0.9145508,0.3530273,-0.02832031,-1,-10,-1,6,-1,0,0,-2,1,-1,-2,0,1,1,2,-2,-8.1875,-8.1875,-8.1875,0.0625,0.0625,0.0625,1.47901,2.869612,6.49283,7.697533,3.1745,0.1795098,-0.2009631,-0.3254746,1.672742,0.2365346,-0.3353532,1.640904,0.01097241,0.4401019,1.725232,-0.1607673,-0.3149382,1.636004,0.2698344,-0.3459324,1.629318,0.0259527,-0.03176434,1.724924,0.0252148,-0.3587013,1.718475,-0.1480338,0.1723426,1.725664,-0.05423249,-0.3517442,1.681321,-0.2010769,-0.08076473,1.757849,0.2616569,-0.08955422,1.782921,NA,NA,NotTracked,NotTracked,
0.965332,-0.1879883,-0.1264648,0.9091797,0.328125,-0.04589844,-1,-10,-1,6,-1,0,0,-2,-2,0,2,0,-5,1,-6,-12,-8.1875,-8.1875,-8.1875,-16.125,-16.125,-16.125,1.47901,2.869612,6.49283,7.70088,3.161438,0.154648,-0.2021739,-0.3249827,1.669127,0.2360561,-0.3359777,1.637294,0.01110812,0.4398226,1.725191,-0.1605841,-0.3191463,1.636497,0.2633511,-0.3595982,1.624158,0.02585276,-0.03132584,1.721516,0.02597488,-0.3579635,1.714469,-0.1482026,0.1723008,1.721927,-0.05355317,-0.3511618,1.677414,-0.2012841,-0.08050852,1.753523,0.2592987,-0.08945682,1.777992,NA,NA,NotTracked,NotTracked,
