ALX,ALY,ALZ,ARX,ARY,ARZ,EMG0L,EMG1L,EMG2L,EMG3L,EMG4L,EMG5L,EMG6L,EMG7L,EMG0R,EMG1R,EMG2R,EMG3R,EMG4R,EMG5R,EMG6R,EMG7R,GLX,GLY,GLZ,GRX,GRY,GRZ,ORL,OPL,OYL,ORR,OPR,OYR,LHNX,LHNY,LHNZ,RHNX,RHNY,RHNZ,HX,HY,HZ,LTX,LTY,LTZ,RTX,RTY,RTZ,SpineMidX,SpineMidY,SpineMidZ,SpineBaseX,SpineBaseY,SpineBaseZ,ShoulderLeftX,ShoulderLeftY,ShoulderLeftZ,ShoulderRightX,ShoulderRightY,ShoulderRightZ,ElbowLeftX,ElbowLeftY,ElbowLeftZ,ElbowRightX,ElbowRightY,ElbowRightZ,Myo_Pose_left,Myo_Pose_Right,Kinect_pose_left,Kinect_pose_right
0.9643555,-0.2880859,-0.1381836,0.8984375,0.4545898,-0.02929688,-1,-2,-1,-1,-18,-3,0,-1,15,9,13,5,8,7,6,6,2.25,2.25,2.25,-1.25,-1.25,-1.25,1.645023,3.039838,6.567233,7.453769,3.232604,9.847076,-0.1821637,-0.3638383,1.689669,0.1834469,-0.3645698,1.670199,0.04974823,0.4413438,1.806513,-0.2219378,-0.3500963,1.704334,0.1484861,-0.3514096,1.636328,0.01074544,-0.0277871,1.783313,0.01308341,-0.3517062,1.763571,-0.1552792,0.1746425,1.781285,-0.06757171,-0.342777,1.719379,-0.2034163,-0.08834582,1.785732,0.2126346,-0.0991949,1.805938,NA,NA,NotTracked,NotTracked,
0.9677734,-0.2841797,-0.246582,1.009277,0.4516602,0.01318359,2,1,-1,-1,1,6,13,5,5,1,5,10,7,1,1,-1,11,11,11,-3.3125,-3.3125,-3.3125,1.663024,3.057875,6.564215,7.391311,3.281997,9.890088,-0.1764201,-0.3764731,1.684129,0.1821788,-0.3623332,1.666705,0.04897098,0.4413893,1.807783,-0.2131668,-0.3757651,1.692922,0.1474648,-0.3486332,1.63526,0.01098002,-0.02780935,1.784994,0.0133588,-0.3515849,1.76439,-0.1558404,0.1740442,1.784021,-0.06730289,-0.3426948,1.720413,-0.2028246,-0.0880485,1.788573,0.2134805,-0.09897165,1.808626,NA,NA,NotTracked,NotTracked,
0.9707031,-0.2807617,-0.265625,0.6650391,0.8115234,0.1733398,-1,1,0,0,1,1,0,0,-6,5,2,1,-2,-4,-13,-13,21.25,21.25,21.25,34.5625,34.5625,34.5625,1.702698,3.105525,6.559139,7.333978,3.493534,0.07310406,-0.1731271,-0.3579955,1.675578,0.1699483,-0.3467554,1.646468,0.04848381,0.4413784,1.808285,-0.2064512,-0.3710865,1.6847,0.1473978,-0.3166579,1.6125,0.01110692,-0.02785491,1.785885,0.01336495,-0.3514913,1.764616,-0.1562989,0.1740185,1.785637,-0.06733071,-0.3425531,1.720785,-0.2027925,-0.08636146,1.791246,0.2141211,-0.09703356,1.812152,NA,NA,NotTracked,Unknown,
0.925293,-0.3095703,-0.2421875,0.6396484,0.6987305,0.1396484,-2,1,2,3,-7,-1,1,1,0,-1,-1,3,3,-7,-2,-1,-0.375,-0.375,-0.375,8.4375,8.4375,8.4375,1.716843,3.129064,6.542665,7.262733,3.701432,0.1788002,-0.1587082,-0.3333512,1.64987,0.1404265,-0.31993,1.603234,0.04808968,0.4414253,1.808426,-0.1920429,-0.3506814,1.656953,0.1116477,-0.2867706,1.577385,0.01153858,-0.0280639,1.787001,0.01377499,-0.3515451,1.765121,-0.1566486,0.1738269,1.787155,-0.06687911,-0.3426113,1.721536,-0.202661,-0.08449059,1.793312,0.2147297,-0.0941437,1.812307,NA,NA,NotTracked,Unknown,
0.8408203,-0.5639648,-0.1669922,0.6088867,0.7651367,0.08789063,-2,-3,-3,-5,-8,-7,-8,-2,3,-3,-2,-2,-1,4,9,11,18.375,18.375,18.375,9.9375,9.9375,9.9375,1.905347,3.454121,6.32179,7.246404,3.905025,0.2369618,-0.1303989,-0.319301,1.619559,0.1129155,-0.2762895,1.574635,0.04753166,0.4411272,1.807922,-0.0937492,-0.3598802,1.653552,0.09006645,-0.2440668,1.532583,0.01191637,-0.02861648,1.78742,0.0146035,-0.352323,1.765313,-0.1566148,0.1736809,1.787571,-0.06585725,-0.3435116,1.721943,-0.2020748,-0.07761583,1.793106,0.215614,-0.08383023,1.807175,NA,NA,NotTracked,Unknown,
0.7880859,-0.5991211,-0.1967773,0.6523438,0.909668,0.1635742,-18,-11,-5,-3,-7,-7,-11,-8,-8,-2,-2,-1,-2,-4,-5,-6,26.875,26.875,26.875,-82.8125,-82.8125,-82.8125,1.985052,3.645215,6.273102,7.136123,4.127782,0.2451597,-0.1186616,-0.2793361,1.575134,0.1039476,-0.2310419,1.533553,0.04664009,0.440719,1.806439,-0.08625434,-0.3042186,1.632529,0.1094892,-0.1861633,1.503617,0.01210222,-0.02943934,1.788035,0.01496871,-0.3534708,1.765888,-0.1566454,0.1735372,1.787897,-0.06510211,-0.345148,1.722785,-0.1999329,-0.07322185,1.789308,0.213585,-0.07602222,1.797268,NA,NA,Unknown,Unknown,
0.7963867,-0.7397461,-0.2070313,0.4643555,0.7265625,0.2456055,9,1,1,-3,-5,-4,-10,-16,7,3,2,1,1,2,2,22,76.4375,76.4375,76.4375,-107.5625,-107.5625,-107.5625,2.047652,3.786022,6.281281,6.986215,4.255037,0.186134,-0.1369158,-0.2138395,1.512995,0.1273782,-0.1676718,1.493766,0.04550137,0.4406823,1.803496,-0.0987019,-0.2590886,1.509643,0.1374344,-0.1238917,1.459,0.01206457,-0.02967593,1.788213,0.01477099,-0.3536332,1.766156,-0.1566494,0.1735013,1.787941,-0.06515513,-0.3453385,1.723136,-0.1976258,-0.06588224,1.785229,0.2119427,-0.06963927,1.787197,NA,NA,Unknown,Unknown,
0.4418945,-0.8369141,-0.2993164,0.3442383,0.8178711,0.1401367,-10,-1,-2,-1,-13,-5,-4,-5,0,0,-1,-6,-25,-1,2,1,93.8125,93.8125,93.8125,-89.375,-89.375,-89.375,2.248579,4.150678,6.480712,6.912829,4.376344,0.01916039,-0.1766021,-0.1559683,1.473889,0.1278862,-0.1201119,1.415523,0.04315786,0.4402562,1.798295,-0.1210641,-0.1821616,1.46,0.1509139,-0.1105423,1.383333,0.0117729,-0.02988983,1.788104,0.01414358,-0.3537293,1.766289,-0.1566604,0.1735126,1.787928,-0.06595036,-0.345307,1.723533,-0.1947913,-0.06007285,1.783606,0.2314659,-0.07116371,1.743082,NA,NA,Unknown,Unknown,
0.5263672,-0.6083984,-0.3730469,0.5053711,0.6513672,0.1323242,-4,-2,-1,-22,-13,-2,0,-1,-4,0,-4,-9,-1,1,0,11,70.6875,70.6875,70.6875,-65.9375,-65.9375,-65.9375,2.288904,4.327526,6.760355,6.843502,4.390574,9.720964,-0.2475477,-0.1238579,1.477331,0.2320763,-0.1158447,1.453257,0.04077318,0.4397886,1.792284,-0.2000478,-0.1477443,1.42,0.2746483,-0.08171351,1.427687,0.01123018,-0.0302556,1.787437,0.0132825,-0.3539005,1.76604,-0.1566925,0.1736089,1.787523,-0.06690445,-0.3454036,1.723749,-0.1949092,-0.07512724,1.744916,0.2095065,-0.08217171,1.73556,NA,NA,Unknown,Unknown,
0.65625,-0.7294922,-0.1552734,0.7080078,0.7094727,0.409668,-1,-1,-1,-10,-35,-3,-4,-6,-1,1,1,31,10,-3,-11,5,8.25,8.25,8.25,-5.9375,-5.9375,-5.9375,2.26693,4.265915,6.906514,6.824035,4.262313,9.659112,-0.2886922,-0.1416012,1.494863,0.2771236,-0.1428738,1.490849,0.03820062,0.4399742,1.786282,-0.2549913,-0.1681975,1.47535,0.3102365,-0.120293,1.470394,0.01073826,-0.03074627,1.785353,0.01252923,-0.3540137,1.764799,-0.1569648,0.1739677,1.786122,-0.06753979,-0.3455017,1.72322,-0.1892066,-0.07065057,1.781587,0.203128,-0.08194307,1.764144,NA,NA,Unknown,Unknown,
0.6689453,-0.8305664,0.2954102,0.4882813,0.7661133,0.7680664,-8,-4,-2,1,7,-2,-5,-7,0,-2,0,-1,-12,8,3,19,-40.875,-40.875,-40.875,98.125,98.125,98.125,2.306101,4.12174,6.795111,6.813156,4.160161,9.811378,-0.2853105,-0.1820556,1.491222,0.2757466,-0.1701463,1.494981,0.03569016,0.4395081,1.780566,-0.2587415,-0.2183812,1.418,0.3106807,-0.1501977,1.45076,0.01036136,-0.0310669,1.782849,0.01167475,-0.3539144,1.762427,-0.1582921,0.174122,1.783473,-0.06834817,-0.3454872,1.721825,-0.198804,-0.06565364,1.784895,0.2151464,-0.0790109,1.763659,NA,NA,Unknown,Unknown,
0.4306641,-1.006348,0.2944336,0.09423828,1.062988,0.4980469,-9,-3,-1,0,11,6,-4,-5,-2,-3,-1,1,-2,1,-3,3,-101.875,-101.875,-101.875,70.8125,70.8125,70.8125,2.322384,4.046183,6.534388,6.863578,4.215831,0.09234595,-0.2214007,-0.1966706,1.483603,0.2245131,-0.1761703,1.489265,0.0333212,0.4386421,1.774646,-0.1839498,-0.2263008,1.47,0.2584129,-0.1525071,1.446322,0.00990307,-0.03144338,1.77959,0.01084576,-0.3539716,1.759645,-0.1592108,0.1744425,1.778816,-0.06919616,-0.3455828,1.719869,-0.2112186,-0.05879875,1.769797,0.2323406,-0.0684172,1.768355,NA,NA,Open,Unknown,
0.3999023,-1.102051,-0.253418,0.4306641,1.138184,0.2333984,7,-4,-1,3,5,-10,4,2,-5,0,-2,-2,-5,-1,0,-6,-9.5,-9.5,-9.5,0.5,0.5,0.5,2.41504,4.150703,6.200568,6.88833,4.396364,0.1807687,-0.1604749,-0.1733057,1.463291,0.1745182,-0.1563795,1.423533,0.03074986,0.4380696,1.767432,-0.117605,-0.1907233,1.447724,0.2229243,-0.1316182,1.395222,0.009266317,-0.03205523,1.776078,0.01059987,-0.3543642,1.756223,-0.1595422,0.1728967,1.772483,-0.06954108,-0.3461088,1.716615,-0.2017954,-0.05087637,1.756729,0.235593,-0.06856667,1.749817,NA,NA,Open,Unknown,
0.5351563,-0.9350586,-0.4746094,0.4790039,0.9316406,0.05810547,-12,32,1,-2,-25,-6,4,4,-6,-1,-3,-1,1,1,1,-9,0.6875,0.6875,0.6875,-10.8125,-10.8125,-10.8125,2.430243,4.32563,6.137669,6.891064,4.572374,0.1476721,-0.1445056,-0.1272475,1.436051,0.1835028,-0.09933274,1.422251,0.02780425,0.4363528,1.761504,-0.09972552,-0.1370064,1.407923,0.22549,-0.07777924,1.387187,0.008577259,-0.03286006,1.773986,0.0102062,-0.3550385,1.75407,-0.1591742,0.1718581,1.768281,-0.07006087,-0.3467762,1.714416,-0.2101716,-0.05132734,1.730586,0.2268697,-0.06093682,1.738307,NA,NA,Open,Unknown,
0.4882813,-0.8046875,-0.3178711,0.3564453,0.6977539,0.171875,5,2,-3,-3,2,-2,-2,-7,-5,-1,0,6,2,1,-3,-14,-2,-2,-2,-10.75,-10.75,-10.75,2.338126,4.512228,6.287243,6.916463,4.70401,9.985453,-0.1712941,-0.08830712,1.404148,0.2107645,-0.05802715,1.410599,0.02522447,0.4344054,1.755305,-0.1391776,-0.1121559,1.399676,0.2611621,-0.03884443,1.380318,0.008293243,-0.0338916,1.771624,0.009828588,-0.3560776,1.751386,-0.1590477,0.1711276,1.76406,-0.07057532,-0.3477263,1.712339,-0.1913166,-0.05507512,1.690042,0.2265745,-0.06271571,1.751746,NA,NA,Unknown,Unknown,
0.4638672,-0.7714844,-0.1074219,0.2861328,0.7314453,0.3447266,-1,-2,1,0,-7,0,1,2,1,-1,1,-1,-3,0,1,3,6.5625,6.5625,6.5625,-19.9375,-19.9375,-19.9375,2.287044,4.594371,6.481706,6.921479,4.703648,9.821165,-0.2307827,-0.06616791,1.401537,0.2465148,-0.04312304,1.398501,0.02305424,0.432776,1.749428,-0.1891656,-0.09252887,1.396407,0.2991692,-0.0261761,1.401429,0.00835768,-0.03513622,1.768581,0.009934921,-0.3570963,1.748149,-0.1599084,0.1711115,1.761477,-0.07066535,-0.3488111,1.709424,-0.1907312,-0.05291483,1.699657,0.2194083,-0.06322411,1.738096,NA,NA,Unknown,Unknown,
0.4677734,-0.8110352,0.03027344,0.3374023,0.762207,0.5698242,11,1,-2,-17,-8,-2,0,2,-1,0,2,3,-8,-2,-10,0,22.25,22.25,22.25,-46.375,-46.375,-46.375,2.265337,4.577581,6.691357,6.871898,4.612502,9.682343,-0.2766492,-0.07745417,1.42766,0.2987458,-0.06028226,1.408567,0.02100291,0.4312086,1.74294,-0.2523312,-0.08073699,1.363454,0.3522079,-0.04821828,1.406238,0.007995957,-0.03610377,1.764834,0.009779904,-0.3577893,1.744013,-0.1611775,0.1713419,1.759866,-0.07086994,-0.3496774,1.705576,-0.1923372,-0.06648896,1.738004,0.227276,-0.0736248,1.694162,NA,NA,Unknown,Unknown,
0.4516602,-0.8398438,0.1650391,0.375,0.7124023,0.6220703,2,1,1,8,-2,-2,-5,2,-1,-1,0,11,23,4,3,3,23.75,23.75,23.75,-24.5,-24.5,-24.5,2.279716,4.467185,6.8586,6.748343,4.418551,9.642159,-0.311631,-0.1096146,1.457033,0.318114,-0.09973202,1.448086,0.01907811,0.4288859,1.734838,-0.2835322,-0.1296115,1.415218,0.3622581,-0.08800011,1.431633,0.008028027,-0.03734107,1.759544,0.00989561,-0.3583953,1.738386,-0.1627076,0.1712562,1.757821,-0.07082764,-0.3504837,1.700303,-0.1907594,-0.06771062,1.769268,0.2196646,-0.0785984,1.730749,NA,NA,Unknown,Unknown,
0.5532227,-1.010254,0.1674805,0.3256836,0.8598633,0.5473633,-6,-1,1,6,-12,7,2,5,1,-1,0,5,2,0,0,-2,16.125,16.125,16.125,18.5625,18.5625,18.5625,2.338925,4.252815,6.932352,6.703338,4.283155,9.755414,-0.3158002,-0.1491224,1.480865,0.3112128,-0.1372989,1.466717,0.01750018,0.4277264,1.72864,-0.2805716,-0.1626364,1.4458,0.3625126,-0.1430696,1.46175,0.008230436,-0.03777673,1.754098,0.01049062,-0.358132,1.732636,-0.1630742,0.1714753,1.753384,-0.07020303,-0.350477,1.6946,-0.1887654,-0.06568813,1.77486,0.2151052,-0.07804502,1.749086,NA,NA,Unknown,Unknown,
0.402832,-0.9912109,0.0004882813,0.2626953,0.9677734,0.4794922,0,-3,-3,-7,6,-2,-3,-2,1,-3,0,0,-9,-4,-8,-7,5.6875,5.6875,5.6875,53.3125,53.3125,53.3125,2.438901,4.129554,6.818488,6.659172,4.1844,0.002708866,-0.284725,-0.1856914,1.48295,0.2586497,-0.1696884,1.478078,0.01578909,0.4268716,1.72191,-0.3408456,-0.1935266,1.4763,0.3051137,-0.1793476,1.4604,0.008144971,-0.03804944,1.749132,0.01073633,-0.3578666,1.727274,-0.162391,0.1716218,1.748638,-0.06982881,-0.3503833,1.689367,-0.1865647,-0.06632379,1.779269,0.2143377,-0.07590054,1.753662,NA,NA,Open,Unknown,
0.2836914,-1.057129,-0.121582,0.2333984,1.086426,0.3173828,-8,-2,-2,-3,-5,-4,-3,-2,7,3,2,-6,2,8,13,15,-73.5,-73.5,-73.5,80.5625,80.5625,80.5625,2.526697,4.056424,6.450379,6.651186,4.172646,0.2725714,-0.2169789,-0.2030743,1.474385,0.1874484,-0.1902786,1.470214,0.01467603,0.4263743,1.716736,-0.2666814,-0.2117547,1.459286,0.2319515,-0.1774334,1.432658,0.008347749,-0.03809844,1.743381,0.01029923,-0.3572774,1.720641,-0.1623688,0.1710436,1.744538,-0.07008318,-0.3497494,1.683053,-0.1903253,-0.05990419,1.75158,0.2140371,-0.07503301,1.75037,NA,NA,Open,Unknown,
0.5268555,-1.045898,-0.2050781,0.5454102,1.019531,0.3056641,-1,18,1,2,-11,2,9,7,0,-2,0,-1,-3,-3,-3,-9,-63.125,-63.125,-63.125,36.8125,36.8125,36.8125,2.516949,4.109612,6.241078,6.738975,4.28582,0.4194955,-0.1631006,-0.1929145,1.449055,0.1510511,-0.1758673,1.447849,0.01356577,0.425511,1.711466,-0.206395,-0.1727892,1.414607,0.2083752,-0.1690296,1.399714,0.008936228,-0.03851015,1.737384,0.01064861,-0.3575795,1.713376,-0.1625471,0.1688621,1.738882,-0.06949742,-0.3503495,1.675973,-0.1899467,-0.05569008,1.735565,0.2135506,-0.06726097,1.73501,NA,NA,Unknown,Unknown,
0.4248047,-0.9545898,-0.3554688,0.5419922,0.8603516,0.2006836,-1,2,1,0,1,-4,-4,-3,-5,-2,-3,-2,15,2,2,10,-40.25,-40.25,-40.25,-23.375,-23.375,-23.375,2.435128,4.220515,6.23062,6.778386,4.424238,0.3225836,-0.1589434,-0.1569246,1.425061,0.1607818,-0.1373027,1.415646,0.01305677,0.4248381,1.707967,-0.2096542,-0.1436599,1.401857,0.207255,-0.1262749,1.378267,0.00869861,-0.03886895,1.734268,0.01010558,-0.3579136,1.709731,-0.1624735,0.1682479,1.734915,-0.07004824,-0.3506058,1.672228,-0.1884572,-0.05697526,1.716263,0.2362094,-0.06539074,1.699652,NA,NA,Open,Unknown,
0.8378906,-0.7451172,-0.3212891,0.4223633,0.7324219,0.2558594,-8,11,-3,-4,-18,-2,1,1,1,0,-1,-3,1,-5,-1,-2,74.5625,74.5625,74.5625,-34.125,-34.125,-34.125,2.384373,4.345891,6.355729,6.78423,4.577394,0.05884103,-0.1835497,-0.1340473,1.345291,0.2061748,-0.1000688,1.385714,0.01226556,0.4237882,1.70232,-0.2131269,-0.1318249,1.334875,0.2596077,-0.0882595,1.352381,0.008530513,-0.03947223,1.730263,0.009139205,-0.3585503,1.705832,-0.1624343,0.1682958,1.730787,-0.07116112,-0.3511533,1.668471,-0.187874,-0.07683132,1.645872,0.2291521,-0.06324844,1.685304,NA,NA,Open,Unknown,
0.5332031,-0.8154297,-0.09423828,0.3886719,0.7250977,0.3427734,-4,-4,-2,-1,0,0,0,-4,-4,0,-1,-2,4,1,8,1,-11.8125,-11.8125,-11.8125,-22.875,-22.875,-22.875,2.310972,4.454447,6.613478,6.798032,4.601156,9.847955,-0.2460186,-0.09616705,1.406136,0.2517454,-0.07909954,1.371955,0.01185721,0.4225896,1.697969,-0.2904836,-0.06814395,1.40404,0.3060132,-0.06655226,1.379243,0.00845924,-0.04009712,1.72686,0.008607286,-0.3593519,1.702989,-0.1626506,0.1689297,1.727664,-0.07174974,-0.3517605,1.666021,-0.1912009,-0.05598677,1.707999,0.2186046,-0.07059494,1.66868,NA,NA,Unknown,Unknown,
0.4462891,-0.7856445,0.04101563,0.3974609,0.715332,0.4667969,-1,-4,-4,-4,7,2,-1,1,-3,-3,-3,4,-19,-8,-28,-6,24.1875,24.1875,24.1875,-22.5,-22.5,-22.5,2.27155,4.47085,6.820968,6.801359,4.540165,9.678252,-0.2931909,-0.09528802,1.420379,0.3035778,-0.08968893,1.383224,0.01164975,0.4227672,1.693063,-0.3343008,-0.06963468,1.409658,0.3618412,-0.07621478,1.383826,0.008323908,-0.04030858,1.722776,0.008199573,-0.3596357,1.699649,-0.1633356,0.1697482,1.724463,-0.07225713,-0.351997,1.662985,-0.1874688,-0.05733734,1.732273,0.2203418,-0.07494035,1.670249,NA,NA,Unknown,Lasso,
0.4160156,-0.8994141,0.09960938,0.3735352,0.7280273,0.5756836,0,-1,-2,1,8,-3,1,0,0,-1,0,0,-11,0,12,0,27.25,27.25,27.25,-18.9375,-18.9375,-18.9375,2.275535,4.396877,7.058828,6.777179,4.421907,9.564794,-0.3350694,-0.1133694,1.438754,0.3310629,-0.1157124,1.422002,0.01172264,0.4227652,1.687694,-0.3845735,-0.09870169,1.424606,0.3711064,-0.09947515,1.42328,0.008000168,-0.04033526,1.717317,0.007678185,-0.3598235,1.695136,-0.1641763,0.1701131,1.719848,-0.07289916,-0.3519938,1.65871,-0.1888476,-0.06019294,1.733341,0.2189078,-0.08140929,1.709887,NA,NA,Unknown,Unknown,
0.5302734,-0.8823242,0.07470703,0.4633789,0.7939453,0.5859375,1,-1,-1,0,-6,0,0,2,0,-1,-3,-2,-5,1,-2,-2,24.9375,24.9375,24.9375,-0.5,-0.5,-0.5,2.309383,4.276789,7.143417,6.73425,4.234358,9.563477,-0.3499452,-0.1453706,1.455546,0.3403037,-0.1502305,1.452174,0.01200132,0.4232187,1.683087,-0.4120032,-0.1426719,1.463667,0.3853344,-0.1482187,1.453579,0.007896299,-0.04006539,1.713842,0.00724758,-0.3596953,1.692385,-0.1641982,0.1708749,1.715096,-0.07333904,-0.3516929,1.656129,-0.1874304,-0.06460846,1.738685,0.2154552,-0.08104393,1.736481,NA,NA,Unknown,Unknown,
0.6196289,-0.8691406,0.02978516,0.4692383,0.8110352,0.5253906,-2,-1,-1,-4,-4,-2,-3,-2,6,6,3,4,10,9,-10,17,-6.25,-6.25,-6.25,36.625,36.625,36.625,2.353853,4.133076,7.097235,6.693277,4.125256,9.703916,-0.3336363,-0.179567,1.455801,0.3216542,-0.1840241,1.464191,0.01249668,0.423302,1.679378,-0.3945386,-0.1832053,1.471286,0.3761645,-0.195578,1.483273,0.007604603,-0.03973526,1.710203,0.006706343,-0.3595543,1.689916,-0.1631958,0.1717751,1.708962,-0.0739266,-0.3513726,1.653613,-0.1863883,-0.0653469,1.738825,0.2149293,-0.07878692,1.743969,NA,NA,Open,Unknown,
0.5571289,-0.9331055,-0.1137695,0.3842773,0.890625,0.4438477,0,-2,1,-1,4,7,3,0,1,0,2,8,-1,2,1,2,-45.25,-45.25,-45.25,61.25,61.25,61.25,2.406918,4.032504,6.905929,6.664348,4.091129,9.932783,-0.281338,-0.2030639,1.447814,0.2739743,-0.2027954,1.464523,0.01309465,0.4235862,1.676221,-0.337672,-0.2081255,1.465071,0.3229127,-0.2118904,1.433654,0.007568734,-0.03940073,1.708072,0.006403334,-0.3591474,1.688594,-0.1628966,0.1720632,1.705753,-0.07421046,-0.3508085,1.652183,-0.1826307,-0.07272392,1.714688,0.2168961,-0.07440377,1.743645,NA,NA,Open,Unknown,
0.4345703,-0.9418945,-0.1259766,0.4794922,0.9472656,0.3681641,1,-4,0,0,-2,3,7,1,-4,-2,-3,-2,4,4,7,-6,-93.6875,-93.6875,-93.6875,56.3125,56.3125,56.3125,2.452096,3.9968,6.594128,6.693615,4.148561,0.1682283,-0.2093391,-0.2031615,1.437714,0.2160097,-0.2066007,1.453068,0.01358647,0.4236988,1.67377,-0.259285,-0.2070578,1.428111,0.2593672,-0.1884311,1.407756,0.007799712,-0.03920753,1.706275,0.006541851,-0.3589145,1.687299,-0.1627062,0.1720099,1.702239,-0.07406998,-0.3504883,1.650637,-0.19049,-0.06464367,1.707912,0.2161391,-0.07476329,1.732047,NA,NA,Open,Open,
0.5263672,-0.8852539,-0.1157227,0.5698242,0.8745117,0.2363281,5,-1,1,-4,-11,-6,-5,-5,-2,-1,-3,-2,-1,0,4,-2,-40.375,-40.375,-40.375,-11.375,-11.375,-11.375,2.455274,4.068382,6.304885,6.720835,4.222669,0.2022352,-0.1685119,-0.1791532,1.418964,0.1938086,-0.1883487,1.434384,0.01392207,0.4235924,1.671578,-0.2158676,-0.1597896,1.38752,0.2407462,-0.171232,1.402387,0.007847792,-0.03910313,1.705102,0.006541656,-0.3588211,1.686278,-0.1629012,0.1715245,1.69959,-0.07400247,-0.3503528,1.649304,-0.1923487,-0.05322133,1.697602,0.2135718,-0.07427987,1.718549,NA,NA,Open,Unknown,
0.5224609,-0.9072266,-0.2993164,0.5009766,0.722168,0.2026367,3,5,1,0,-3,1,2,3,-1,-1,-1,-2,0,2,2,0,-28.5625,-28.5625,-28.5625,-9.75,-9.75,-9.75,2.39955,4.155142,6.297148,6.765676,4.291341,0.08919842,-0.1702296,-0.1478264,1.404009,0.2050169,-0.1630384,1.426657,0.0142093,0.4234756,1.670258,-0.2142528,-0.1319316,1.361067,0.2500944,-0.1467058,1.398187,0.007847807,-0.03908816,1.704955,0.006532351,-0.3588125,1.68627,-0.1625456,0.1715434,1.698185,-0.07400491,-0.3503421,1.64927,-0.1935275,-0.05280728,1.692964,0.2120824,-0.07048986,1.710604,NA,NA,Unknown,Unknown,
0.5458984,-0.6333008,-0.1757813,0.4306641,0.6435547,0.2636719,-2,10,3,0,11,-1,1,0,4,0,0,-5,10,3,5,2,24.9375,24.9375,24.9375,-1.75,-1.75,-1.75,2.336805,4.217165,6.423018,6.823745,4.278685,9.949905,-0.1881385,-0.1358854,1.402883,0.2275381,-0.1535568,1.416605,0.01441221,0.4237049,1.669683,-0.2368118,-0.1076869,1.367429,0.2708174,-0.1313916,1.403304,0.007908694,-0.03903509,1.704934,0.006618805,-0.3586051,1.686776,-0.162403,0.1721106,1.696895,-0.07392925,-0.3501745,1.649485,-0.1968871,-0.07079846,1.640614,0.2146531,-0.06879054,1.706593,NA,NA,Unknown,Unknown,
0.5053711,-0.6879883,-0.1225586,0.4750977,0.6499023,0.2519531,-5,-3,2,3,-3,-1,0,2,-1,-2,-4,-15,7,9,8,9,-54.125,-54.125,-54.125,36.8125,36.8125,36.8125,2.207919,4.166411,6.564267,6.945951,4.179978,9.776419,-0.2140638,-0.1506447,1.408403,0.2519929,-0.1688188,1.433029,0.01466209,0.4238383,1.66932,-0.251798,-0.1210557,1.370895,0.2847113,-0.1362634,1.411844,0.008048687,-0.0389153,1.705067,0.006810813,-0.3583325,1.688002,-0.1622955,0.1735938,1.696003,-0.07374319,-0.3498838,1.650303,-0.205048,-0.05649512,1.673856,0.2167479,-0.0684834,1.710649,NA,NA,Unknown,Unknown,
0.7026367,-0.6655273,-0.1381836,0.6318359,0.7119141,0.2099609,0,0,0,-2,-10,0,-1,-1,2,-3,-4,-20,-8,-14,0,0,-80.125,-80.125,-80.125,62.3125,62.3125,62.3125,1.924336,3.944269,6.788318,7.108561,4.007511,9.638683,-0.2362855,-0.2068758,1.422863,0.270791,-0.2234623,1.449086,0.01498702,0.4240774,1.669172,-0.2403584,-0.1560078,1.366579,0.2790329,-0.1626079,1.402188,0.00825741,-0.03857069,1.705513,0.0070328,-0.3579758,1.689937,-0.1622458,0.1746455,1.695349,-0.07354557,-0.349521,1.651601,-0.2095518,-0.04982026,1.688552,0.2200395,-0.06816152,1.716775,NA,NA,Unknown,Open,
0.8500977,-0.6899414,-0.1005859,0.8276367,0.5688477,0.2524414,-13,-1,3,7,3,-2,-3,-4,-5,1,2,0,4,7,1,-36,-60.4375,-60.4375,-60.4375,85.375,85.375,85.375,1.729776,3.702291,6.908236,7.278858,3.705925,9.599526,-0.249948,-0.2646799,1.451423,0.2774011,-0.2937221,1.47644,0.0156881,0.424501,1.669464,-0.2364567,-0.2369136,1.416511,0.2702104,-0.240388,1.431429,0.008661903,-0.03810165,1.706746,0.007546376,-0.3575633,1.693114,-0.162263,0.1751902,1.695046,-0.07295507,-0.3491186,1.654431,-0.2124067,-0.05318151,1.691056,0.2273304,-0.07465595,1.719712,NA,NA,Unknown,Unknown,
0.9648438,-0.4018555,-0.07763672,0.9384766,0.6118164,0.1396484,-8,0,18,4,4,3,1,-3,1,-1,5,-6,-13,-9,2,0,-51.75,-51.75,-51.75,107.5625,107.5625,107.5625,1.595302,3.436335,6.983365,7.408752,3.45488,9.662132,-0.2351383,-0.3130908,1.511021,0.2512021,-0.3375386,1.509055,0.01660301,0.4247807,1.669926,-0.2082102,-0.3128514,1.468574,0.2253569,-0.3264852,1.464522,0.009045742,-0.03794146,1.708133,0.007919583,-0.3578026,1.696234,-0.162247,0.1754593,1.694788,-0.07249687,-0.349171,1.657063,-0.2168163,-0.06471492,1.691893,0.2313397,-0.08308769,1.72435,NA,NA,Lasso,Unknown,
1.030762,-0.3481445,-0.1264648,0.9301758,0.4526367,0.1044922,-11,-3,24,15,41,-1,-2,-3,-1,-3,-2,-1,-9,-9,-2,1,-115,-115,-115,91.8125,91.8125,91.8125,1.399951,3.166172,7.028397,7.440143,3.238192,9.812768,-0.2050418,-0.3767117,1.575262,0.2113033,-0.3766614,1.582286,0.01765189,0.4255763,1.670796,-0.1600835,-0.3925517,1.5718,0.1728595,-0.3752306,1.541583,0.009292641,-0.03761698,1.7093,0.008109489,-0.3576633,1.69846,-0.162379,0.1755581,1.694666,-0.07229625,-0.3489084,1.659042,-0.2159666,-0.07799572,1.695931,0.2329787,-0.09144212,1.728671,NA,NA,NotTracked,Unknown,
1.020996,-0.2670898,-0.2167969,0.7758789,0.9794922,-0.3339844,-4,1,3,5,-12,-2,0,-2,-2,-2,-2,-2,39,21,-2,-3,-89.0625,-89.0625,-89.0625,34.375,34.375,34.375,1.305326,2.952337,6.943088,7.398691,3.038007,0.07174221,-0.179027,-0.3717925,1.643036,0.195891,-0.3493854,1.63815,0.01838098,0.4263494,1.671806,-0.1517948,-0.3598139,1.603976,0.1641622,-0.3529702,1.59425,0.009281142,-0.03688357,1.710722,0.007838555,-0.356764,1.700809,-0.1625581,0.1756484,1.694681,-0.07272759,-0.3480535,1.661331,-0.2105442,-0.08306106,1.704132,0.2288873,-0.09408741,1.735675,NA,NA,NotTracked,NotTracked,
1.033203,-0.1738281,-0.1948242,0.9648438,0.315918,-0.3149414,-4,14,6,4,-4,-1,2,2,2,0,-3,-1,-8,2,3,-7,-89.3125,-89.3125,-89.3125,-274.6875,-274.6875,-274.6875,1.334502,2.889432,6.861558,7.404316,3.149576,9.816226,-0.1840647,-0.3451448,1.650692,0.1976585,-0.3496451,1.636828,0.01902124,0.4270298,1.672641,-0.1559998,-0.3448752,1.607893,0.1665577,-0.3545484,1.59185,0.009182931,-0.0360524,1.712965,0.007348571,-0.3556328,1.705104,-0.1626111,0.1762149,1.694929,-0.07319038,-0.3468183,1.665383,-0.2056855,-0.08157873,1.712971,0.2249718,-0.0956839,1.74113,NA,NA,NotTracked,NotTracked,
1.054688,-0.6240234,-0.6240234,0.8554688,0.02099609,0.1142578,-1,2,8,5,-1,0,0,-1,-2,-2,-1,-4,-15,6,-5,-2,190.9375,190.9375,190.9375,36.25,36.25,36.25,1.337272,2.942667,6.856885,7.271969,3.114544,9.831327,-0.1849967,-0.3466158,1.651183,0.1895308,-0.370956,1.632596,0.01941693,0.4275096,1.673866,-0.1530109,-0.3489745,1.608059,0.155143,-0.3570171,1.599,0.008973221,-0.03544785,1.715615,0.007290591,-0.3548456,1.709252,-0.1630937,0.1769673,1.697268,-0.07331302,-0.3462321,1.670084,-0.2051198,-0.08322334,1.71898,0.223221,-0.09648918,1.744447,NA,NA,NotTracked,NotTracked,
0.9438477,-0.2626953,0.02587891,0.9648438,0.5073242,0.006347656,0,-4,-3,-1,-7,-1,1,-2,-1,-1,-3,-21,-2,2,-3,1,-123.5,-123.5,-123.5,72,72,72,1.443354,2.948944,6.883849,7.428577,3.086156,9.873007,-0.1868926,-0.3468582,1.652428,0.1947407,-0.3440766,1.645344,0.01986262,0.42783,1.675809,-0.1516817,-0.3454086,1.614504,0.1579919,-0.3288513,1.618609,0.009027266,-0.0350817,1.719014,0.007158818,-0.3543235,1.714133,-0.1641108,0.1777,1.700604,-0.07349418,-0.3458854,1.675476,-0.2061118,-0.0829089,1.722751,0.2226269,-0.09629235,1.746339,NA,NA,NotTracked,NotTracked,
0.9697266,-0.3032227,-0.08105469,0.9194336,0.2827148,0.03662109,5,4,3,0,-3,-2,-1,-1,0,-1,-4,-13,-2,-22,0,-2,-16.5625,-16.5625,-16.5625,-2.625,-2.625,-2.625,1.422193,2.944856,6.765442,7.427642,3.077926,9.894881,-0.1819211,-0.3681905,1.654907,0.1949761,-0.3439887,1.650762,0.02022258,0.4283022,1.678764,-0.1465691,-0.3519256,1.622467,0.1586462,-0.352291,1.610933,0.009053888,-0.03467354,1.723105,0.00699657,-0.3538361,1.719518,-0.1653973,0.1780727,1.704377,-0.07394715,-0.34557,1.681111,-0.2061332,-0.08264698,1.726794,0.2221958,-0.09623943,1.748179,NA,NA,NotTracked,NotTracked,
0.9819336,-0.1743164,-0.08496094,0.9458008,0.2866211,0.03515625,-2,0,0,-1,-1,-1,-2,3,-3,-1,-1,-1,15,1,-3,-9,8.25,8.25,8.25,-11.5625,-11.5625,-11.5625,1.484898,2.926811,6.716417,7.426291,3.067451,9.886064,-0.1797713,-0.3715046,1.661956,0.194851,-0.3420472,1.653681,0.02034655,0.4288536,1.681674,-0.145961,-0.3479903,1.630931,0.1574784,-0.3324543,1.620121,0.008963306,-0.03420053,1.726645,0.007116989,-0.3533783,1.724265,-0.165598,0.1787419,1.706749,-0.07394399,-0.3452732,1.685391,-0.2060078,-0.0831672,1.728713,0.2220402,-0.09522568,1.749441,NA,NA,NotTracked,NotTracked,
