ALX,ALY,ALZ,ARX,ARY,ARZ,EMG0L,EMG1L,EMG2L,EMG3L,EMG4L,EMG5L,EMG6L,EMG7L,EMG0R,EMG1R,EMG2R,EMG3R,EMG4R,EMG5R,EMG6R,EMG7R,GLX,GLY,GLZ,GRX,GRY,GRZ,ORL,OPL,OYL,ORR,OPR,OYR,LHNX,LHNY,LHNZ,RHNX,RHNY,RHNZ,HX,HY,HZ,LTX,LTY,LTZ,RTX,RTY,RTZ,SpineMidX,SpineMidY,SpineMidZ,SpineBaseX,SpineBaseY,SpineBaseZ,ShoulderLeftX,ShoulderLeftY,ShoulderLeftZ,ShoulderRightX,ShoulderRightY,ShoulderRightZ,ElbowLeftX,ElbowLeftY,ElbowLeftZ,ElbowRightX,ElbowRightY,ElbowRightZ,Myo_Pose_left,Myo_Pose_Right,Kinect_pose_left,Kinect_pose_right
0.8261719,-0.637207,-0.1254883,0.6220703,0.746582,0.190918,4,1,2,-2,1,-4,-3,0,6,-1,-3,-5,3,4,9,4,-4.625,-4.625,-4.625,-15.25,-15.25,-15.25,1.828303,3.271672,6.442164,7.224852,3.637824,0.2930494,-0.1415458,-0.3248111,1.632976,0.1360912,-0.3110555,1.608353,0.03640158,0.4489961,1.781828,-0.1772541,-0.3250104,1.646476,0.1066782,-0.2929679,1.562905,0.01422331,-0.02488687,1.763661,0.01378091,-0.3496307,1.7509,-0.1528697,0.1788509,1.764065,-0.06707016,-0.3416236,1.711179,-0.1968345,-0.07555044,1.782356,0.2225094,-0.08583456,1.788271,NA,NA,NotTracked,Unknown,
0.7988281,-0.6123047,-0.1572266,0.6645508,0.7192383,0.1118164,3,2,-1,-4,-7,-8,-7,4,3,1,1,-1,-1,1,11,4,23.75,23.75,23.75,-33.75,-33.75,-33.75,1.958353,3.457177,6.32415,7.141248,3.848397,0.3418424,-0.1012834,-0.2937311,1.605032,0.1159869,-0.2592334,1.568771,0.03630437,0.4488346,1.781719,-0.08792154,-0.3374301,1.640818,0.0778079,-0.2719149,1.609235,0.0152298,-0.02642144,1.767462,0.01522909,-0.3510666,1.754167,-0.1531488,0.1786222,1.768355,-0.06514658,-0.3434343,1.714798,-0.1955852,-0.06989095,1.783957,0.2229298,-0.08124822,1.785472,NA,NA,NotTracked,Unknown,
0.8115234,-0.7436523,-0.1494141,0.5898438,0.7792969,0.1352539,-3,-2,-2,-2,-2,-4,-2,0,-1,1,-2,-2,-1,-2,-1,-1,58.3125,58.3125,58.3125,-71.25,-71.25,-71.25,2.067032,3.671507,6.28233,7.065881,4.043677,0.3147566,-0.1200556,-0.2331817,1.534323,0.1195123,-0.2120193,1.528136,0.0361934,0.4484848,1.781646,-0.08426525,-0.2753512,1.5496,0.09326115,-0.2648493,1.578286,0.01568398,-0.02730725,1.771192,0.01567521,-0.3519223,1.757862,-0.15348,0.1783392,1.772305,-0.06408849,-0.3444803,1.718879,-0.1923381,-0.06406001,1.781555,0.2208146,-0.07524753,1.779226,NA,NA,Unknown,Unknown,
0.7055664,-0.7163086,-0.2387695,0.5004883,0.7280273,0.07958984,7,2,2,-1,-2,-3,0,-3,-3,1,1,-9,-8,-3,-2,-3,108.25,108.25,108.25,-71.9375,-71.9375,-71.9375,2.181011,3.893986,6.350657,6.982867,4.246927,0.1512023,-0.1583269,-0.1752501,1.504796,0.1481729,-0.1616347,1.478674,0.03589281,0.4479231,1.781611,-0.1413238,-0.2097523,1.491167,0.1224391,-0.1853437,1.457333,0.01576775,-0.02764402,1.774317,0.01562916,-0.3519389,1.760206,-0.1530323,0.1782478,1.775385,-0.06398993,-0.3444007,1.720998,-0.1886122,-0.05899695,1.778908,0.2184068,-0.06712998,1.775022,NA,NA,Open,Unknown,
0.565918,-0.6601563,-0.3818359,0.4433594,0.7646484,0.1635742,-6,-2,-4,-3,-5,-6,-5,-7,-1,-2,1,8,-1,-2,-5,1,58.6875,58.6875,58.6875,-66.375,-66.375,-66.375,2.236784,4.173054,6.623169,6.95274,4.322535,9.973962,-0.1930019,-0.1497242,1.48044,0.1859267,-0.1372598,1.446098,0.03510692,0.4470179,1.78154,-0.1514627,-0.1812229,1.459072,0.1312741,-0.1622411,1.454286,0.01557444,-0.02820669,1.776087,0.01522604,-0.352208,1.7613,-0.1528921,0.1780381,1.778746,-0.06451465,-0.3445919,1.722205,-0.185979,-0.0510796,1.779424,0.234449,-0.07174861,1.730304,NA,NA,Unknown,Unknown,
0.6030273,-0.6464844,-0.2783203,0.5283203,0.640625,0.3735352,-2,-1,-1,-2,8,-2,-4,-2,0,1,-1,7,24,7,-1,0,26.9375,26.9375,26.9375,-61.375,-61.375,-61.375,2.196098,4.201724,6.805585,6.907154,4.267904,9.748845,-0.2480262,-0.1455311,1.499239,0.2398188,-0.1388245,1.458442,0.03423912,0.4460055,1.781667,-0.2049627,-0.1718223,1.466571,0.1846561,-0.1596727,1.428539,0.01547168,-0.02892195,1.777699,0.01500277,-0.3525281,1.761951,-0.1527669,0.177613,1.781831,-0.06493484,-0.344931,1.723141,-0.1999264,-0.06262808,1.765735,0.2337274,-0.07327955,1.731734,NA,NA,Unknown,Unknown,
0.6640625,-0.800293,-0.007324219,0.6196289,0.6206055,0.4648438,-5,2,0,12,2,4,-1,-1,-9,-10,-11,63,57,25,-10,-19,16.5,16.5,16.5,-48.125,-48.125,-48.125,2.168783,4.117845,6.929119,6.82962,4.138663,9.695806,-0.2890208,-0.1714537,1.518767,0.2837399,-0.1620354,1.495703,0.03332425,0.4450143,1.781241,-0.2542441,-0.2033845,1.451375,0.2347837,-0.1767145,1.432312,0.01552409,-0.02918237,1.778263,0.01498876,-0.3525405,1.761967,-0.1531225,0.1773916,1.783514,-0.06507248,-0.3449715,1.723435,-0.1998938,-0.05677445,1.794416,0.2287325,-0.07280265,1.765836,NA,NA,Unknown,Lasso,
0.6977539,-0.7553711,0.2875977,0.6499023,0.6191406,0.5126953,-18,-11,2,6,8,6,6,3,-7,-8,-1,22,-3,-31,-22,-14,28.9375,28.9375,28.9375,18.8125,18.8125,18.8125,2.318847,3.954069,6.889746,6.7284,4.013417,9.809059,-0.2981073,-0.2096636,1.5246,0.2855597,-0.1988589,1.514969,0.03251443,0.444189,1.780879,-0.271588,-0.2390029,1.447333,0.2366326,-0.2130163,1.471267,0.01551225,-0.0292826,1.778484,0.01483187,-0.3525107,1.761974,-0.1533016,0.1773892,1.784193,-0.06537427,-0.3448857,1.723813,-0.2005053,-0.05733083,1.795483,0.2291053,-0.07057197,1.789716,NA,NA,Open,Unknown,
0.8144531,-0.9360352,0.3105469,0.440918,1.039063,0.6953125,4,2,-8,-24,-3,-2,-1,-3,-4,1,-2,1,16,8,-6,-9,-40.0625,-40.0625,-40.0625,130.1875,130.1875,130.1875,2.390148,3.910806,6.754223,6.757167,3.967279,0.0400997,-0.2475166,-0.2241036,1.515564,0.2189142,-0.2221148,1.522699,0.0315424,0.4435356,1.780267,-0.2157948,-0.2617504,1.452364,0.1609155,-0.2376862,1.533429,0.01536121,-0.02940118,1.778706,0.01458301,-0.3525229,1.762023,-0.1533346,0.1774597,1.784325,-0.06575777,-0.3448251,1.724121,-0.2019394,-0.05584338,1.79116,0.2293835,-0.06997315,1.790916,NA,NA,Open,Open,
0.3051758,-0.9672852,-0.2407227,0.2993164,1.10498,0.2529297,-9,-4,-3,-8,-20,-1,-3,-1,-1,-3,-1,-2,-3,-5,4,-17,-44.25,-44.25,-44.25,36.5,36.5,36.5,2.510026,4.0151,6.392974,6.797163,4.126403,0.2989979,-0.1702353,-0.1966175,1.497861,0.1583296,-0.2016167,1.516366,0.03032868,0.4427072,1.779069,-0.1263117,-0.2165172,1.47731,0.1043752,-0.205207,1.517154,0.01521729,-0.02955544,1.778814,0.01441316,-0.3525473,1.762078,-0.1533363,0.1774221,1.784348,-0.06592009,-0.3448357,1.724389,-0.1889929,-0.05456515,1.779699,0.2274623,-0.07015472,1.789142,NA,NA,Open,Open,
0.4560547,-0.9433594,-0.3320313,0.5009766,0.9868164,0.1210938,1,-26,-6,-2,12,0,0,-2,-4,-4,-6,2,1,-3,0,2,-60.0625,-60.0625,-60.0625,-10.3125,-10.3125,-10.3125,2.520118,4.182559,6.198269,6.806931,4.322396,0.3065884,-0.1276782,-0.1515134,1.476907,0.1389594,-0.1490987,1.482273,0.02881826,0.4411237,1.776501,-0.07822821,-0.1658619,1.450857,0.07388368,-0.140982,1.519625,0.01498906,-0.02999214,1.779304,0.01430154,-0.3526788,1.76256,-0.1532614,0.1770126,1.784285,-0.0659647,-0.3450357,1.725182,-0.1840279,-0.0475332,1.767379,0.2218112,-0.06469347,1.779429,NA,NA,Open,Unknown,
0.5751953,-0.9599609,-0.293457,0.5048828,0.824707,0.1137695,5,3,1,2,0,2,1,0,2,-4,1,-3,-6,-1,0,10,-21,-21,-21,-15.625,-15.625,-15.625,2.464802,4.352376,6.164505,6.830362,4.497847,0.1882599,-0.131085,-0.1157029,1.405194,0.1727622,-0.101152,1.450772,0.02775124,0.4400266,1.77411,-0.08942842,-0.1134972,1.388,0.1501604,-0.1219822,1.4595,0.01467823,-0.03032415,1.779675,0.01396896,-0.3527532,1.763013,-0.1530076,0.1771209,1.783738,-0.06641751,-0.3451527,1.725798,-0.2008004,-0.04326162,1.745162,0.2364815,-0.05735404,1.745429,NA,NA,Unknown,Unknown,
0.3955078,-0.796875,-0.1601563,0.3891602,0.6533203,0.2285156,-6,-6,-7,3,9,-1,-3,-9,2,0,-3,-2,-5,-3,1,2,16.875,16.875,16.875,-21.6875,-21.6875,-21.6875,2.40368,4.503377,6.357527,6.86244,4.57255,9.938344,-0.1898305,-0.07630591,1.44282,0.2131864,-0.07323468,1.441291,0.02703813,0.4386656,1.771139,-0.1529009,-0.1024474,1.448714,0.1673654,-0.08705402,1.440741,0.01448146,-0.03068181,1.779758,0.01382951,-0.3528494,1.763064,-0.1531849,0.1773908,1.782824,-0.06658412,-0.3452194,1.725896,-0.1919592,-0.04560703,1.754782,0.235083,-0.05887737,1.76055,NA,NA,Unknown,Unknown,
0.4199219,-0.8076172,-0.04492188,0.3745117,0.6801758,0.4663086,-5,-2,-1,5,-6,-1,-1,-1,0,-3,0,13,-2,-4,-2,5,22.25,22.25,22.25,-31,-31,-31,2.370217,4.553112,6.656241,6.865024,4.505331,9.754614,-0.2517072,-0.07295264,1.452556,0.2650885,-0.07986397,1.449818,0.02658917,0.4380506,1.76874,-0.2113756,-0.08045414,1.411687,0.2158589,-0.08759604,1.428304,0.01425658,-0.03100942,1.779449,0.01365203,-0.3529907,1.762797,-0.1538932,0.1774319,1.782406,-0.06674306,-0.3453211,1.725755,-0.1879078,-0.04648346,1.756793,0.2299268,-0.05997726,1.76765,NA,NA,Unknown,Unknown,
0.4165039,-0.8754883,0.1450195,0.4243164,0.644043,0.5473633,-1,-3,-12,3,11,1,1,1,-1,-4,-5,-72,10,-1,-2,-5,25.8125,25.8125,25.8125,-34.9375,-34.9375,-34.9375,2.362962,4.480519,6.849497,6.816196,4.353764,9.674294,-0.2924242,-0.0982094,1.479492,0.3056245,-0.1199863,1.482964,0.02597301,0.4377103,1.766112,-0.2704991,-0.1077522,1.412727,0.2561238,-0.1283669,1.440929,0.01405466,-0.03149045,1.778225,0.01363999,-0.3531863,1.761632,-0.1550324,0.1772334,1.78134,-0.06680945,-0.3455144,1.724849,-0.1884605,-0.0574569,1.788885,0.2244383,-0.07194066,1.761166,NA,NA,Unknown,Lasso,
0.5351563,-0.9262695,0.2167969,0.4594727,0.824707,0.6713867,-2,-4,-4,1,-9,-4,-2,-1,-2,-2,-4,-19,-22,-25,-6,-2,12.4375,12.4375,12.4375,24.1875,24.1875,24.1875,2.407592,4.287199,6.941294,6.742132,4.145451,9.796765,-0.3063499,-0.1371757,1.500927,0.2954339,-0.1582129,1.510136,0.02521408,0.4374632,1.763989,-0.2699899,-0.1501955,1.470946,0.3428977,-0.1592649,1.477815,0.01372897,-0.03200055,1.775619,0.01375206,-0.3535348,1.759493,-0.1559847,0.1768494,1.779683,-0.06673992,-0.3459335,1.723152,-0.1875064,-0.05940593,1.79825,0.2213993,-0.07061245,1.796792,NA,NA,Unknown,Lasso,
0.5581055,-0.9912109,0.1000977,0.3012695,0.9140625,0.4985352,-9,-5,0,0,-6,-4,-2,-7,0,0,-2,-20,-4,11,0,-1,-0.375,-0.375,-0.375,56.8125,56.8125,56.8125,2.491082,4.165592,6.837355,6.691787,4.103428,0.02420317,-0.2823685,-0.1658039,1.505564,0.2471087,-0.1822663,1.514605,0.0246332,0.4379481,1.76066,-0.260428,-0.1828254,1.4197,0.2944705,-0.1847281,1.457927,0.01326316,-0.03213345,1.771884,0.01405106,-0.3536562,1.756167,-0.1566199,0.1768362,1.776396,-0.06658041,-0.3461168,1.719578,-0.1838699,-0.06118558,1.804581,0.2215516,-0.07019731,1.792783,NA,NA,Open,Lasso,
0.3266602,-1.01709,-0.08886719,0.4682617,1.046387,0.2294922,-2,2,-4,-15,-9,-4,-8,1,-12,-4,-8,3,1,0,-8,-3,-38.9375,-38.9375,-38.9375,75.375,75.375,75.375,2.563523,4.11014,6.601183,6.708215,4.184099,0.310719,-0.2223485,-0.1797515,1.498419,0.1833097,-0.1824702,1.498803,0.02419857,0.4383267,1.75747,-0.1855026,-0.2028285,1.426667,0.2243287,-0.1705928,1.459172,0.01282239,-0.0321173,1.767635,0.01401564,-0.3536486,1.752301,-0.1571653,0.1764983,1.772786,-0.06659216,-0.3461045,1.715477,-0.1847214,-0.05767935,1.786138,0.2181331,-0.07105049,1.77781,NA,NA,Open,Unknown,
0.3173828,-1.010254,-0.1430664,0.5170898,1.049805,0.2641602,4,-5,1,2,3,-1,-1,2,-2,0,-3,-4,-4,-1,-1,-2,-75.6875,-75.6875,-75.6875,49,49,49,2.604347,4.132233,6.313101,6.798671,4.307218,0.391578,-0.1596831,-0.1759716,1.484384,0.1511727,-0.1553022,1.47832,0.02386299,0.4387089,1.755809,-0.1149849,-0.187297,1.468542,0.1913384,-0.1466388,1.433067,0.01278878,-0.0322093,1.765489,0.0146293,-0.3539722,1.749486,-0.157789,0.1758438,1.769926,-0.06587962,-0.3466623,1.712214,-0.1856088,-0.05269837,1.766659,0.2171983,-0.06309457,1.766402,NA,NA,Unknown,Unknown,
0.4707031,-0.9526367,-0.1328125,0.5302734,0.7280273,0.2207031,15,-16,-5,-9,5,3,0,1,-1,-4,1,0,1,1,7,-1,-43.4375,-43.4375,-43.4375,-34.125,-34.125,-34.125,2.564507,4.204687,6.1596,6.819578,4.463519,0.2813007,-0.1388208,-0.1519086,1.46394,0.1537036,-0.1219969,1.439061,0.02369285,0.4386216,1.754811,-0.09020273,-0.1611583,1.446176,0.1991396,-0.1127507,1.4007,0.01255399,-0.0324877,1.763638,0.01486704,-0.3544785,1.747154,-0.1579084,0.1740494,1.766322,-0.06567298,-0.3472232,1.709778,-0.1869293,-0.05076789,1.749455,0.2154237,-0.06207889,1.751596,NA,NA,Unknown,Unknown,
0.5073242,-1.022461,-0.2202148,0.4086914,0.7114258,0.2324219,8,-3,-3,-3,4,-2,-1,0,-4,-1,-1,-18,-6,-4,-4,-1,8.6875,8.6875,8.6875,-25.875,-25.875,-25.875,2.473434,4.353869,6.225677,6.841783,4.530847,0.09570765,-0.1602025,-0.1265869,1.437703,0.1871575,-0.09371452,1.424854,0.02335674,0.4387105,1.754115,-0.1123845,-0.1299446,1.409572,0.2404376,-0.08207941,1.389,0.01223072,-0.03276766,1.762381,0.01425811,-0.3548797,1.746033,-0.1579984,0.1732546,1.763839,-0.06622629,-0.347523,1.709006,-0.1847928,-0.05129491,1.73058,0.2328079,-0.05898331,1.727153,NA,NA,Unknown,Unknown,
0.5239258,-0.7416992,-0.1474609,0.3500977,0.7353516,0.375,-1,-5,-6,-14,-15,-5,-4,-6,1,-3,-1,3,13,8,4,3,7.75,7.75,7.75,-34.875,-34.875,-34.875,2.453711,4.438966,6.481653,6.845613,4.540263,9.885464,-0.2044528,-0.1078308,1.42926,0.2417428,-0.07998566,1.422668,0.02274371,0.4389769,1.752903,-0.1559974,-0.1118836,1.41065,0.2997481,-0.0692554,1.402667,0.01169391,-0.0329405,1.760775,0.0134675,-0.3553481,1.744473,-0.1581565,0.1731273,1.762156,-0.0670518,-0.347912,1.707734,-0.1850799,-0.05706078,1.707585,0.2239437,-0.06151522,1.750409,NA,NA,Unknown,Unknown,
0.5307617,-0.7988281,-0.02929688,0.3823242,0.7368164,0.5585938,1,-2,2,7,6,5,2,-3,-12,-2,-3,-19,-10,-21,-5,-3,10.8125,10.8125,10.8125,-31.625,-31.625,-31.625,2.393054,4.429722,6.681917,6.835364,4.427458,9.670558,-0.2543244,-0.1064934,1.443317,0.2958224,-0.09584414,1.439944,0.0220031,0.4394183,1.751334,-0.2295011,-0.1034831,1.366714,0.35359,-0.09166621,1.425588,0.01116993,-0.03292197,1.758693,0.01272175,-0.3556229,1.742299,-0.1584784,0.1733768,1.760529,-0.06785808,-0.3481019,1.705853,-0.1850817,-0.0604675,1.732878,0.2191633,-0.07672696,1.726043,NA,NA,Unknown,Unknown,
0.4506836,-0.8579102,0.199707,0.3935547,0.6459961,0.6420898,-2,-3,-7,-8,-4,-7,-1,-1,3,-4,-2,-5,-2,1,0,2,0.5,0.5,0.5,-23.3125,-23.3125,-23.3125,2.365095,4.332686,6.84037,6.769945,4.29078,9.635307,-0.2879692,-0.1319428,1.470538,0.3110125,-0.1291847,1.478764,0.02153015,0.4397669,1.750344,-0.3040206,-0.16402,1.459917,0.3701911,-0.128672,1.457455,0.01084655,-0.0327241,1.756495,0.0120581,-0.3554928,1.740127,-0.1591431,0.173976,1.759149,-0.06859218,-0.3479797,1.703573,-0.1852861,-0.06225993,1.768877,0.2163906,-0.07788473,1.76156,NA,NA,Unknown,Lasso,
0.4799805,-0.9594727,0.277832,0.4614258,0.7866211,0.5581055,1,5,1,-3,13,12,4,-1,-1,0,-4,-7,-1,4,-4,2,25,25,25,10.8125,10.8125,10.8125,2.386035,4.203037,6.912188,6.71177,4.172084,9.726262,-0.2981455,-0.1664599,1.486494,0.3046379,-0.1630122,1.493772,0.02115237,0.4399823,1.749521,-0.2803191,-0.1898188,1.41025,0.3553034,-0.1660105,1.468033,0.01061928,-0.03256043,1.754537,0.01166167,-0.3552969,1.738123,-0.1595041,0.1738584,1.755138,-0.06900245,-0.3478231,1.701537,-0.1839949,-0.06026679,1.775545,0.2136881,-0.07712479,1.770154,NA,NA,Open,Unknown,
0.565918,-0.8793945,-0.04492188,0.3447266,0.9067383,0.4272461,1,-1,0,1,4,-1,1,-1,0,0,1,-14,12,-6,3,-1,-13.5625,-13.5625,-13.5625,77.6875,77.6875,77.6875,2.502845,4.066276,6.813092,6.676226,4.119992,0.02091869,-0.2715559,-0.1964682,1.4886,0.25971,-0.1868476,1.497429,0.02094131,0.4403046,1.74899,-0.2504718,-0.2273002,1.405143,0.3130094,-0.1925291,1.46065,0.01023927,-0.0320053,1.753245,0.01130194,-0.3547412,1.737097,-0.159119,0.1743858,1.750895,-0.0693992,-0.3470524,1.699981,-0.1823869,-0.06099164,1.77711,0.2141618,-0.07629328,1.770375,NA,NA,Open,Lasso,
0.5048828,-0.9091797,-0.2182617,0.355957,1.025391,0.359375,1,-6,-4,-1,-5,7,0,-2,-5,-2,-2,-1,-6,-11,-6,-3,-75,-75,-75,82.0625,82.0625,82.0625,2.556259,4.026512,6.546501,6.701533,4.156705,0.248491,-0.2072307,-0.2091793,1.47679,0.1989861,-0.1951952,1.488076,0.02072773,0.4406193,1.748635,-0.1744975,-0.2419916,1.3954,0.2439104,-0.1865437,1.450297,0.009651805,-0.03156223,1.75197,0.01085952,-0.3544163,1.735971,-0.1592223,0.1739707,1.747805,-0.06982444,-0.346628,1.69849,-0.1878275,-0.05738502,1.75581,0.2132383,-0.07575005,1.766349,NA,NA,Open,Unknown,
0.3896484,-1.050781,-0.03857422,0.5107422,0.9702148,0.328125,0,-5,-1,-3,-2,-4,-3,-2,1,5,2,0,-5,0,1,0,-105.625,-105.625,-105.625,57.9375,57.9375,57.9375,2.551702,4.063266,6.24821,6.771345,4.255343,0.3637028,-0.149671,-0.1935976,1.468353,0.1596736,-0.1790001,1.475252,0.02051533,0.440871,1.748509,-0.1065564,-0.212002,1.464882,0.1992419,-0.1681581,1.432118,0.009285055,-0.03142355,1.751586,0.01072549,-0.3544255,1.735488,-0.1597417,0.1733567,1.746361,-0.06980142,-0.3467016,1.697406,-0.1918241,-0.05043472,1.745247,0.2129637,-0.06973677,1.757568,NA,NA,Open,Open,
0.4858398,-0.9926758,-0.2006836,0.4638672,0.8291016,0.2421875,-7,1,-2,-1,-1,1,2,-1,-1,-3,0,0,-1,0,2,5,-35.1875,-35.1875,-35.1875,-17.1875,-17.1875,-17.1875,2.456694,4.206278,6.130892,6.832044,4.424478,0.306001,-0.1359805,-0.1585283,1.447133,0.152028,-0.1438912,1.448105,0.02028647,0.440935,1.748544,-0.09371918,-0.1669802,1.448409,0.1939312,-0.1303514,1.412824,0.009017238,-0.03139899,1.751671,0.01059868,-0.3544733,1.735602,-0.1599465,0.1728535,1.744987,-0.06982501,-0.3467062,1.697354,-0.192781,-0.05131733,1.735286,0.2319498,-0.06362373,1.732193,NA,NA,Unknown,Unknown,
0.5839844,-0.8032227,-0.2636719,0.3813477,0.7641602,0.230957,-6,23,0,-1,-11,0,7,1,1,0,0,-2,0,-1,0,1,47.4375,47.4375,47.4375,-20.875,-20.875,-20.875,2.429476,4.337631,6.21615,6.848136,4.528195,0.1684484,-0.155781,-0.1273119,1.419258,0.1764964,-0.1087185,1.414292,0.02014584,0.4409335,1.748596,-0.1030931,-0.1375705,1.3895,0.2213257,-0.09688163,1.377318,0.008484687,-0.0314587,1.752098,0.01021092,-0.3547383,1.736251,-0.1601461,0.1724799,1.744112,-0.07010139,-0.3468518,1.697541,-0.2059505,-0.04931618,1.71904,0.2313835,-0.06164654,1.722982,NA,NA,Unknown,Unknown,
0.4892578,-0.7807617,-0.1489258,0.3256836,0.7353516,0.28125,15,-10,0,2,6,0,-3,4,3,0,0,-1,4,0,0,-1,-7.4375,-7.4375,-7.4375,-16.625,-16.625,-16.625,2.352696,4.421793,6.433243,6.866422,4.558123,0.007936003,-0.1985712,-0.1058934,1.403542,0.2054959,-0.08907623,1.407564,0.02004982,0.4409496,1.748689,-0.1694499,-0.1386528,1.415706,0.2642384,-0.07214883,1.379625,0.007682649,-0.03167244,1.753088,0.009510479,-0.3553073,1.737873,-0.1604663,0.1727045,1.743832,-0.07074056,-0.3472272,1.698627,-0.1993427,-0.05722583,1.689229,0.2198031,-0.06094459,1.744017,NA,NA,Unknown,Lasso,
0.4511719,-0.722168,-0.06933594,0.3173828,0.6860352,0.3457031,-6,-4,-5,-8,-5,-2,-4,-11,-3,-1,-8,-26,-2,1,0,-2,-15.6875,-15.6875,-15.6875,1.5625,1.5625,1.5625,2.273761,4.392972,6.599987,6.90999,4.455205,9.800324,-0.2418612,-0.1080901,1.428399,0.24158,-0.09441224,1.407415,0.0199708,0.4409413,1.748692,-0.2016279,-0.1286682,1.406912,0.2930872,-0.07649998,1.410286,0.007247855,-0.03176731,1.753635,0.009039627,-0.3555583,1.738972,-0.1611805,0.1732405,1.74393,-0.07127742,-0.3474349,1.699629,-0.200191,-0.05093677,1.742213,0.2175416,-0.06166566,1.743737,NA,NA,Unknown,Lasso,
0.4731445,-0.7441406,-0.06494141,0.4243164,0.675293,0.3588867,-8,1,1,-21,-12,-2,-4,-5,3,1,5,10,-4,-12,3,2,-58,-58,-58,26.625,26.625,26.625,2.148955,4.257608,6.757275,6.991916,4.25841,9.663868,-0.271874,-0.1445507,1.452778,0.2807704,-0.1316513,1.442429,0.01986094,0.4409882,1.748702,-0.2527262,-0.1794239,1.3813,0.3269249,-0.1180939,1.424667,0.006905216,-0.03180693,1.754502,0.008646883,-0.3557624,1.740476,-0.1626428,0.1738797,1.744613,-0.07174214,-0.3476825,1.701207,-0.201534,-0.05484947,1.746913,0.215383,-0.07798605,1.718911,NA,NA,Unknown,Lasso,
0.6904297,-0.7758789,-0.1079102,0.6455078,0.7167969,0.2773438,1,0,1,5,3,3,6,2,0,0,-1,3,9,10,1,-2,-38.25,-38.25,-38.25,48.125,48.125,48.125,1.971077,3.958054,6.907339,7.096202,4.010448,9.594645,-0.2901115,-0.215316,1.462352,0.2888183,-0.20564,1.473711,0.01980547,0.4409991,1.748705,-0.27311,-0.2650675,1.391143,0.2883361,-0.1442075,1.4082,0.00662641,-0.03189514,1.755083,0.008319178,-0.3560807,1.741537,-0.163652,0.1737196,1.744912,-0.07202183,-0.3479794,1.702125,-0.2140527,-0.0636683,1.733724,0.2217665,-0.08096191,1.729651,NA,NA,Open,Open,
0.8520508,-0.6132813,-0.2211914,0.8623047,0.6987305,0.2504883,5,-2,-1,1,-2,-5,-3,7,1,-1,-4,-5,-1,1,1,6,-79.9375,-79.9375,-79.9375,101.0625,101.0625,101.0625,1.835849,3.691861,6.957628,7.224901,3.747977,9.594893,-0.2813691,-0.2898196,1.496028,0.2778721,-0.2914002,1.499558,0.0196644,0.4409412,1.748588,-0.2736304,-0.3352556,1.522778,0.2893754,-0.2343051,1.442222,0.006378757,-0.03226566,1.75573,0.008120336,-0.356794,1.742966,-0.1638663,0.1735476,1.744897,-0.07227696,-0.3486929,1.703555,-0.2200286,-0.06670395,1.734476,0.2302783,-0.08304282,1.742065,NA,NA,Open,Open,
0.8618164,-0.6845703,-0.1557617,0.8383789,0.6474609,0.1450195,5,-1,-17,-15,-5,-4,-2,6,8,17,13,-1,9,2,0,-18,-95.5,-95.5,-95.5,77.9375,77.9375,77.9375,1.687373,3.442442,6.941395,7.386209,3.459642,9.652401,-0.2442327,-0.3172105,1.549245,0.2532628,-0.3281825,1.530512,0.01945252,0.4409652,1.748116,-0.2510375,-0.3606299,1.5912,0.2461133,-0.2982569,1.487955,0.006369893,-0.03240279,1.755888,0.008265837,-0.3573084,1.74421,-0.1640493,0.1733922,1.744698,-0.07207859,-0.3492877,1.705021,-0.2223809,-0.07011753,1.737219,0.2332021,-0.089771,1.749555,NA,NA,Unknown,Unknown,
0.9365234,-0.5146484,-0.2480469,0.8579102,0.4799805,0.04833984,7,-1,-13,2,3,4,1,-1,-1,0,1,-35,-33,41,3,0,-51.75,-51.75,-51.75,87.75,87.75,87.75,1.587239,3.224218,6.935865,7.421091,3.27875,9.77207,-0.2122387,-0.3638691,1.601013,0.2207233,-0.3553448,1.579576,0.01898932,0.4410453,1.747361,-0.2386635,-0.3633838,1.587207,0.1947705,-0.3440866,1.53803,0.006394883,-0.03248177,1.756005,0.008437023,-0.3574527,1.744855,-0.1647766,0.1729553,1.744249,-0.07193787,-0.3494744,1.705677,-0.2207217,-0.07891655,1.741607,0.2328315,-0.09356359,1.755112,NA,NA,Unknown,Unknown,
0.9624023,-0.2475586,-0.2084961,0.8867188,0.5712891,-0.07128906,-10,1,10,1,-5,0,0,-8,0,0,2,-10,15,-12,-2,5,-70.75,-70.75,-70.75,44.75,44.75,44.75,1.582933,3.004307,6.793179,7.467111,3.141641,9.914917,-0.1911564,-0.4120433,1.64604,0.1955209,-0.3961148,1.623323,0.01847745,0.4411271,1.74577,-0.2220723,-0.3798009,1.655929,0.1565063,-0.3672031,1.602808,0.006272825,-0.03263919,1.755754,0.008352278,-0.357528,1.744792,-0.1655456,0.1719882,1.742898,-0.07217105,-0.3495623,1.705602,-0.2150582,-0.08453757,1.745682,0.229335,-0.09833115,1.760337,NA,NA,NotTracked,Unknown,
0.9921875,-0.2944336,-0.1987305,0.8466797,0.5883789,-0.1450195,-1,1,1,3,1,-1,1,0,2,-2,1,14,9,-4,3,3,-42.75,-42.75,-42.75,-19.5,-19.5,-19.5,1.635159,2.903977,6.644372,7.468097,3.073169,9.91521,-0.1739663,-0.3733998,1.678618,0.1856684,-0.3708638,1.658109,0.01770165,0.4408643,1.744058,-0.2052007,-0.3637005,1.697455,0.151428,-0.3574611,1.627,0.006282323,-0.0326995,1.755499,0.008299282,-0.3574108,1.744631,-0.1659775,0.1717123,1.742167,-0.07232415,-0.3494576,1.705383,-0.2106071,-0.08491186,1.748882,0.2248469,-0.09935231,1.76506,NA,NA,NotTracked,NotTracked,
0.9770508,-0.3066406,-0.4755859,0.9116211,0.2265625,0.01757813,7,-2,-4,-11,-2,-2,1,4,2,0,-5,-8,-1,1,1,-1,98.3125,98.3125,98.3125,-24.6875,-24.6875,-24.6875,1.609874,2.941346,6.772544,7.522719,3.116702,9.770983,-0.1748965,-0.3695325,1.673833,0.1951984,-0.3525979,1.662147,0.01702768,0.4407088,1.741758,-0.1982182,-0.4048103,1.676177,0.1592088,-0.3540889,1.619873,0.006185576,-0.03279687,1.755004,0.008266329,-0.3573822,1.744589,-0.1663572,0.1717301,1.741094,-0.07241581,-0.3494257,1.705345,-0.2073911,-0.08383432,1.75152,0.2220998,-0.0994234,1.767447,NA,NA,NotTracked,NotTracked,
0.9106445,-0.1796875,-0.1103516,0.8779297,0.3745117,0.07470703,-8,-4,-2,0,-1,0,-5,-2,0,1,4,-3,1,2,1,11,-21.9375,-21.9375,-21.9375,80.6875,80.6875,80.6875,1.591836,2.95163,6.842035,7.600238,3.102297,9.800099,-0.1764017,-0.3721496,1.669186,0.1981755,-0.3397815,1.664072,0.0165434,0.4407558,1.73982,-0.2046432,-0.3911397,1.675452,0.1590255,-0.3477886,1.628154,0.006178312,-0.03283229,1.754643,0.008322231,-0.3573599,1.744566,-0.1664637,0.171711,1.740582,-0.07236299,-0.3494052,1.705264,-0.2063318,-0.08472977,1.752954,0.2218443,-0.09962896,1.767708,NA,NA,NotTracked,NotTracked,
0.9365234,-0.3339844,-0.03564453,0.9370117,0.3828125,0.05664063,-15,-3,2,-2,2,-2,-1,-8,-1,-2,-4,9,-1,1,1,1,-68.375,-68.375,-68.375,17,17,17,1.52923,2.951269,6.80129,7.635532,3.098591,9.829923,-0.1804786,-0.3726895,1.667843,0.1983767,-0.346139,1.661247,0.01620884,0.441087,1.739137,-0.2163251,-0.3803384,1.6835,0.1574679,-0.350044,1.624596,0.006286094,-0.03291769,1.753976,0.008439917,-0.3573833,1.74424,-0.1666466,0.1715625,1.740331,-0.07230175,-0.3494567,1.704876,-0.2063295,-0.08520798,1.752962,0.2219611,-0.1000644,1.767044,NA,NA,NotTracked,NotTracked,
0.9545898,-0.2880859,-0.09375,0.8955078,0.3393555,0.005859375,0,-1,-1,1,0,0,-3,1,-1,1,2,-12,-1,-3,-1,-12,-17.1875,-17.1875,-17.1875,-10.75,-10.75,-10.75,1.517917,2.950558,6.754316,7.609883,3.093502,9.848441,-0.1829764,-0.3726574,1.665577,0.1919691,-0.373757,1.649906,0.01598632,0.4412379,1.738733,-0.2171971,-0.3768945,1.677197,0.1547779,-0.3571953,1.621028,0.006402158,-0.03296926,1.753136,0.00858423,-0.3573567,1.743316,-0.1668536,0.171453,1.739909,-0.0722147,-0.3494416,1.703972,-0.2061655,-0.08589905,1.752153,0.2220815,-0.1007203,1.765595,NA,NA,NotTracked,NotTracked,
0.9726563,-0.2089844,-0.08251953,0.9204102,0.3056641,-0.01757813,-4,-1,-3,-4,-16,-3,0,-3,1,-1,-1,18,12,2,0,-2,27.0625,27.0625,27.0625,-34.8125,-34.8125,-34.8125,1.550139,2.94918,6.749448,7.555389,3.088491,9.83322,-0.180241,-0.3758798,1.661565,0.1926832,-0.372986,1.647767,0.01568676,0.441361,1.73843,-0.2163788,-0.3720517,1.680184,0.1590497,-0.3619322,1.611893,0.006499543,-0.03308968,1.75188,0.008647243,-0.3574515,1.74135,-0.166897,0.1712784,1.73959,-0.0722978,-0.349512,1.702196,-0.2053012,-0.08791842,1.749871,0.221799,-0.1019433,1.762844,NA,NA,NotTracked,NotTracked,
0.9956055,-0.1591797,-0.1157227,0.9448242,0.3037109,-0.05371094,0,-1,-7,-16,40,6,1,2,-1,-2,-3,5,-2,-2,-1,-2,16.8125,16.8125,16.8125,-17.25,-17.25,-17.25,1.576456,2.944176,6.746572,7.539536,3.081866,9.806672,-0.178061,-0.3747123,1.661145,0.1928782,-0.3731512,1.647182,0.01539612,0.4415118,1.738241,-0.2130331,-0.3811215,1.678817,0.1578734,-0.3595063,1.615648,0.006641649,-0.03312664,1.750859,0.008458471,-0.3573944,1.739474,-0.1668915,0.171059,1.739346,-0.07246654,-0.3493997,1.700439,-0.2044958,-0.08804921,1.748687,0.2215988,-0.102328,1.761503,NA,NA,NotTracked,NotTracked,
0.9375,-0.2460938,-0.2832031,0.9169922,0.3720703,-0.0234375,1,-1,-2,-11,-51,-5,-2,-2,0,-2,-1,0,-10,-14,-2,-5,-3.0625,-3.0625,-3.0625,3.375,3.375,3.375,1.538291,2.941984,6.768838,7.55132,3.086121,9.795829,-0.1791106,-0.3722706,1.659264,0.1931908,-0.375259,1.643099,0.01515811,0.4416576,1.737641,-0.2104526,-0.3834927,1.670199,0.1585746,-0.3586359,1.612745,0.007074137,-0.03313412,1.74897,0.008534976,-0.3573216,1.736728,-0.1665154,0.1708469,1.738524,-0.07239799,-0.3493122,1.697469,-0.2037796,-0.08914822,1.747063,0.221058,-0.1029782,1.759811,NA,NA,NotTracked,NotTracked,
