ALX,ALY,ALZ,ARX,ARY,ARZ,EMG0L,EMG1L,EMG2L,EMG3L,EMG4L,EMG5L,EMG6L,EMG7L,EMG0R,EMG1R,EMG2R,EMG3R,EMG4R,EMG5R,EMG6R,EMG7R,GLX,GLY,GLZ,GRX,GRY,GRZ,ORL,OPL,OYL,ORR,OPR,OYR,LHNX,LHNY,LHNZ,RHNX,RHNY,RHNZ,HX,HY,HZ,LTX,LTY,LTZ,RTX,RTY,RTZ,SpineMidX,SpineMidY,SpineMidZ,SpineBaseX,SpineBaseY,SpineBaseZ,ShoulderLeftX,ShoulderLeftY,ShoulderLeftZ,ShoulderRightX,ShoulderRightY,ShoulderRightZ,ElbowLeftX,ElbowLeftY,ElbowLeftZ,ElbowRightX,ElbowRightY,ElbowRightZ,Myo_Pose_left,Myo_Pose_Right,Kinect_pose_left,Kinect_pose_right
0.5673828,-0.8647461,0.02587891,0.4453125,0.8515625,0.4794922,-2,-1,-2,-4,5,-2,-5,-2,-3,-3,-2,0,-1,-13,-2,3,-33.1875,-33.1875,-33.1875,68.375,68.375,68.375,2.259054,3.882571,6.777852,6.715506,3.958058,0.02271127,-0.2582271,-0.2274982,1.49295,0.2467831,-0.2272018,1.491459,0.02535801,0.4374604,1.733032,-0.2953084,-0.2200519,1.45105,0.2795962,-0.1911452,1.448474,0.01307074,-0.03505087,1.749514,0.01190837,-0.358342,1.735021,-0.1578644,0.1737174,1.745604,-0.06848527,-0.3502631,1.697651,-0.2085058,-0.06372133,1.754223,0.2279607,-0.07939819,1.756382,NA,NA,Open,Open,
0.4892578,-0.9614258,-0.121582,0.4658203,0.9707031,0.2607422,-5,-3,-2,-5,-6,-5,-5,-2,7,7,5,-2,-4,-4,3,3,-57.75,-57.75,-57.75,71,71,71,2.344166,3.82614,6.46891,6.733642,4.01973,0.3035761,-0.2000526,-0.2396252,1.487113,0.1801941,-0.2391764,1.499402,0.02448745,0.437595,1.732458,-0.2272449,-0.1931137,1.457167,0.2200743,-0.2015232,1.455296,0.01230434,-0.03497177,1.748341,0.01099107,-0.3583945,1.733957,-0.1580335,0.1735683,1.744876,-0.06934287,-0.3502004,1.696759,-0.2054124,-0.0629958,1.754471,0.2252463,-0.07902354,1.758025,NA,NA,Open,Open,
0.6225586,-0.9189453,-0.2685547,0.5239258,0.9316406,0.1982422,0,2,-1,-4,-1,0,0,0,-4,-5,-2,0,-2,1,-2,5,-36.125,-36.125,-36.125,23.0625,23.0625,23.0625,2.397476,3.929184,6.212739,6.787315,4.141414,0.3711698,-0.1524515,-0.2197937,1.477594,0.1355459,-0.2180808,1.491095,0.02349253,0.4376052,1.731852,-0.1871472,-0.1836494,1.442742,0.1777971,-0.1833209,1.441357,0.0119117,-0.03501566,1.747795,0.01091213,-0.3585147,1.733498,-0.1583461,0.1730525,1.744551,-0.06933044,-0.3503939,1.696304,-0.2003344,-0.05588513,1.750249,0.2207132,-0.07534207,1.755862,NA,NA,Open,Unknown,
0.6210938,-0.8452148,-0.2792969,0.5107422,0.8896484,0.1943359,-3,-4,-1,-3,1,-5,-1,-5,1,1,-3,1,15,2,1,5,-17.8125,-17.8125,-17.8125,-9.0625,-9.0625,-9.0625,2.365135,4.072372,6.168345,6.83571,4.278802,0.3202808,-0.1407181,-0.1744609,1.456083,0.1326103,-0.1765566,1.464663,0.02204845,0.4373632,1.731321,-0.1695045,-0.1487576,1.427917,0.1723721,-0.1465886,1.428445,0.01161381,-0.03502333,1.747827,0.01078744,-0.3584948,1.733532,-0.1585663,0.1727472,1.744252,-0.06939434,-0.3503979,1.696361,-0.1970411,-0.04976574,1.745106,0.2184173,-0.06892597,1.750871,NA,NA,Unknown,Unknown,
0.5273438,-0.8188477,-0.2270508,0.4243164,0.7348633,0.2509766,-5,-5,0,0,1,0,0,-5,-4,-3,-1,0,-9,-2,-1,1,-4.6875,-4.6875,-4.6875,-19.6875,-19.6875,-19.6875,2.299476,4.225747,6.225438,6.861189,4.393658,0.1961298,-0.1511517,-0.1365417,1.426764,0.1630682,-0.138333,1.438635,0.0207737,0.4371339,1.731051,-0.1820081,-0.1125165,1.387947,0.1963643,-0.1131621,1.404286,0.01122612,-0.03509531,1.748053,0.01041779,-0.35853,1.733732,-0.1589317,0.1723468,1.744035,-0.06978822,-0.3504355,1.696564,-0.2130998,-0.05833116,1.700794,0.2326057,-0.06532567,1.727862,NA,NA,Unknown,Unknown,
0.4956055,-0.8007813,-0.1098633,0.4262695,0.7124023,0.3227539,-1,-5,-2,1,-2,-4,-4,-4,-3,-1,1,-1,1,0,0,-3,18.125,18.125,18.125,-38.25,-38.25,-38.25,2.242598,4.350795,6.395153,6.879671,4.457154,9.963717,-0.1855376,-0.1142496,1.41592,0.2012406,-0.1156582,1.420875,0.01988441,0.4369259,1.731007,-0.2200869,-0.07985895,1.386445,0.2418965,-0.08445121,1.386667,0.01067097,-0.03530187,1.748435,0.009895247,-0.3587677,1.734143,-0.1594704,0.1720966,1.743984,-0.07040473,-0.3507189,1.69709,-0.2124193,-0.05785025,1.701185,0.2300708,-0.06696603,1.723314,NA,NA,Unknown,Unknown,
0.4692383,-0.7485352,-0.08496094,0.4296875,0.75,0.4023438,-4,1,-2,-1,-10,-1,-3,-5,1,-1,-1,3,6,2,0,1,28.375,28.375,28.375,-43.9375,-43.9375,-43.9375,2.227396,4.361956,6.556728,6.860236,4.425511,9.795033,-0.2379641,-0.1081301,1.43315,0.252936,-0.1119298,1.435392,0.01886161,0.4366682,1.73152,-0.2789289,-0.08005702,1.414158,0.2950198,-0.08724369,1.410348,0.01004012,-0.03547067,1.749173,0.009440649,-0.3589581,1.734639,-0.1605255,0.1723192,1.744801,-0.07091832,-0.3508992,1.697574,-0.2100041,-0.05498721,1.717504,0.2254829,-0.0707231,1.724368,NA,NA,Unknown,Unknown,
0.5112305,-0.8320313,0.005371094,0.4619141,0.7041016,0.4760742,-1,-3,-3,-2,-12,-4,-3,-3,0,-3,-3,4,-1,-2,-3,15,46.625,46.625,46.625,-58,-58,-58,2.250187,4.246705,6.746919,6.799634,4.330585,9.664149,-0.2756976,-0.1334833,1.463767,0.2894017,-0.1344331,1.463942,0.01834164,0.4366008,1.731821,-0.3072292,-0.1134939,1.442511,0.3328653,-0.1236623,1.460063,0.009775263,-0.03554054,1.749429,0.00907602,-0.3590096,1.734972,-0.1613561,0.1725834,1.745601,-0.07134625,-0.3510007,1.697987,-0.2031657,-0.0614428,1.74964,0.2134445,-0.08135937,1.752059,NA,NA,Unknown,Lasso,
0.550293,-0.8232422,0.05029297,0.4931641,0.690918,0.5239258,1,-1,-7,0,-13,2,0,-2,-5,-5,-3,7,-2,-2,-2,-7,42.375,42.375,42.375,-11.375,-11.375,-11.375,2.286717,4.148761,6.800992,6.745179,4.196428,9.645442,-0.2959062,-0.1739921,1.482453,0.3055879,-0.165881,1.484349,0.01787851,0.4368054,1.732339,-0.3542882,-0.1754806,1.465429,0.3499792,-0.1599806,1.462862,0.009502434,-0.03546444,1.749694,0.008878961,-0.3589517,1.7351,-0.1616166,0.1728429,1.746045,-0.0715994,-0.3509508,1.698133,-0.1988815,-0.06263208,1.769573,0.2121852,-0.08329081,1.758334,NA,NA,Unknown,Unknown,
0.6396484,-0.8676758,0.01074219,0.4667969,0.8603516,0.5297852,3,0,-3,5,9,2,1,-1,2,1,-5,-8,3,-6,0,3,-6.5,-6.5,-6.5,54.875,54.875,54.875,2.376956,3.955794,6.730697,6.68939,4.043942,9.862753,-0.2756153,-0.2152494,1.491109,0.2780767,-0.1989034,1.504008,0.01752947,0.4368943,1.7331,-0.3253826,-0.2183243,1.473444,0.3240975,-0.2030966,1.483667,0.009302354,-0.03538776,1.749995,0.008767124,-0.3588842,1.735273,-0.1617422,0.1727994,1.746353,-0.07175194,-0.3508751,1.698291,-0.2026867,-0.061551,1.76739,0.2090918,-0.07966458,1.782765,NA,NA,Open,Open,
0.4814453,-0.9516602,-0.09814453,0.331543,0.9907227,0.4331055,3,-4,-1,-6,-20,-14,-3,-2,-6,-7,-3,-3,-7,-7,-4,-7,-79.8125,-79.8125,-79.8125,102.4375,102.4375,102.4375,2.443771,3.881512,6.480983,6.692096,4.030818,0.2144233,-0.2133348,-0.2310516,1.495091,0.2134139,-0.2221466,1.505875,0.01713225,0.4371207,1.734272,-0.2453573,-0.1941161,1.465379,0.2553486,-0.197992,1.464794,0.009210564,-0.03538684,1.750206,0.008759797,-0.3588622,1.735336,-0.1619319,0.1724389,1.746678,-0.0717764,-0.3508718,1.698331,-0.201983,-0.06267603,1.763139,0.212285,-0.07887469,1.777835,NA,NA,Open,Unknown,
0.3823242,-1.072754,-0.05957031,0.5048828,1.047852,0.2983398,2,-1,-1,0,12,0,-2,0,0,2,0,-1,-2,-2,-1,5,-82,-82,-82,44.5625,44.5625,44.5625,2.478217,3.911452,6.198727,6.763389,4.151966,0.3241526,-0.1585598,-0.2149918,1.481511,0.1628899,-0.2113506,1.493748,0.01662413,0.4371821,1.736475,-0.1979841,-0.1844279,1.439571,0.2057024,-0.1870434,1.454529,0.009016702,-0.03533536,1.75081,0.008834172,-0.35886,1.735453,-0.1623549,0.1715043,1.747594,-0.07162015,-0.3509109,1.698459,-0.2007941,-0.0562872,1.757162,0.2134284,-0.07676972,1.771321,NA,NA,Open,Open,
0.590332,-0.9560547,-0.2358398,0.53125,0.8964844,0.1953125,-6,-7,-3,-8,-16,-2,-4,-5,3,-2,0,-7,-2,0,4,8,-1.125,-1.125,-1.125,-7.0625,-7.0625,-7.0625,2.473977,4.129519,6.07599,6.810248,4.308026,0.2814526,-0.1442525,-0.1677435,1.456833,0.1529536,-0.1702392,1.466178,0.01605353,0.437166,1.738075,-0.1816934,-0.1521649,1.427324,0.1971724,-0.1482738,1.43279,0.00857838,-0.03523924,1.751921,0.008804786,-0.3587452,1.736052,-0.1623615,0.1709213,1.748105,-0.07155342,-0.3508478,1.699041,-0.1981434,-0.05224113,1.746295,0.2143475,-0.06725965,1.759433,NA,NA,Open,Open,
0.5615234,-0.7807617,-0.2519531,0.4819336,0.7817383,0.2001953,-2,1,-1,-3,-6,0,-1,-1,-3,-2,-3,-5,-1,-2,-5,-5,0.5,0.5,0.5,-24.0625,-24.0625,-24.0625,2.404204,4.360774,6.225459,6.834786,4.455492,0.1443371,-0.1646278,-0.1233019,1.412541,0.1838705,-0.1235671,1.439899,0.01554478,0.4373145,1.740326,-0.2019075,-0.1059349,1.374048,0.2253109,-0.1033978,1.405546,0.008162153,-0.03527618,1.754363,0.008517788,-0.3588539,1.738269,-0.1621795,0.1707251,1.748786,-0.07185413,-0.3509456,1.700665,-0.1976996,-0.07101001,1.675024,0.2326415,-0.06526128,1.729571,NA,NA,Unknown,Unknown,
0.515625,-0.7705078,-0.1118164,0.3886719,0.7177734,0.3242188,-22,-7,-4,0,9,-2,-3,-4,-2,-2,-2,-9,1,2,0,-1,3.3125,3.3125,3.3125,-23.375,-23.375,-23.375,2.335324,4.465424,6.400378,6.853333,4.538215,9.910912,-0.2133196,-0.08547425,1.416311,0.2191848,-0.09790097,1.422649,0.01522902,0.4372892,1.741908,-0.2563756,-0.06456757,1.39965,0.2729546,-0.07352017,1.393909,0.007931197,-0.03537239,1.755882,0.008320913,-0.3591366,1.739919,-0.1622898,0.1706083,1.74973,-0.07211295,-0.3512692,1.702395,-0.2006757,-0.05244005,1.7217,0.2276674,-0.06286671,1.729172,NA,NA,Open,Unknown,
0.4790039,-0.7460938,-0.01171875,0.3764648,0.6674805,0.4433594,-1,-1,-2,-7,6,-5,-2,0,-1,0,-1,-3,-2,-4,1,1,6.875,6.875,6.875,-39.625,-39.625,-39.625,2.293431,4.478566,6.580086,6.835528,4.502036,9.751699,-0.2573746,-0.08351922,1.430964,0.2767726,-0.09304801,1.439304,0.01510429,0.4374374,1.743626,-0.3076075,-0.07482269,1.415539,0.3281429,-0.07254025,1.410625,0.007963935,-0.03550643,1.756424,0.008262164,-0.3592636,1.74033,-0.1627684,0.1706212,1.751161,-0.07222204,-0.3514141,1.702912,-0.1992701,-0.05245823,1.718199,0.2186219,-0.07353708,1.731286,NA,NA,Unknown,Unknown,
0.4458008,-0.8764648,0.1137695,0.3935547,0.6582031,0.5664063,-1,-2,-3,-2,-7,-3,0,-2,-1,-2,-2,3,-1,1,0,6,26.75,26.75,26.75,-33.0625,-33.0625,-33.0625,2.2984,4.393303,6.719804,6.7788,4.398492,9.663583,-0.2857199,-0.1103765,1.46369,0.3067577,-0.1176927,1.461833,0.01526005,0.4377035,1.744975,-0.3190587,-0.10766,1.438,0.349978,-0.09995665,1.445739,0.008000841,-0.03549613,1.756747,0.008202565,-0.3593243,1.740534,-0.1630823,0.1706431,1.752392,-0.07233762,-0.3514716,1.703343,-0.1987864,-0.06347688,1.766996,0.2180835,-0.07786168,1.732083,NA,NA,Unknown,Unknown,
0.5258789,-0.9282227,0.02197266,0.4638672,0.7514648,0.5996094,1,2,2,0,7,0,-1,-3,-1,-2,0,4,-8,4,0,1,11.0625,11.0625,11.0625,2.6875,2.6875,2.6875,2.358502,4.193069,6.754824,6.69901,4.212528,9.728452,-0.2918087,-0.1513945,1.483033,0.3099113,-0.1529413,1.484814,0.01551656,0.4381581,1.746299,-0.3286456,-0.1379099,1.456974,0.3606413,-0.1536345,1.479,0.008059777,-0.03540466,1.75686,0.008184792,-0.3593015,1.740552,-0.163092,0.1707248,1.752776,-0.07237197,-0.3514323,1.703396,-0.1956935,-0.06096182,1.784791,0.2137786,-0.08248506,1.766584,NA,NA,Unknown,Unknown,
0.6054688,-0.8798828,0.01513672,0.5307617,0.8657227,0.3344727,1,-2,-2,0,15,1,1,-1,0,-5,1,-4,-4,-8,-3,-1,-47,-47,-47,45.5,45.5,45.5,2.436992,4.036441,6.548326,6.625218,4.107618,9.956445,-0.2426703,-0.1954675,1.495819,0.2700335,-0.1897421,1.500596,0.01584237,0.4388475,1.747813,-0.2955346,-0.2028994,1.4794,0.3180149,-0.1909363,1.46995,0.008092528,-0.03525084,1.756995,0.00816534,-0.3592173,1.740579,-0.1628759,0.1709434,1.753465,-0.07240558,-0.3513279,1.703425,-0.1981699,-0.05905244,1.785111,0.211899,-0.07980363,1.779258,NA,NA,Open,Unknown,
0.2714844,-0.9731445,-0.005859375,0.2832031,0.9501953,0.4633789,4,-5,0,-3,8,-6,-7,-5,-1,-1,-3,-8,2,4,-3,5,-112.875,-112.875,-112.875,138.25,138.25,138.25,2.497915,3.9391,6.173837,6.636338,4.082755,0.2740194,-0.1584004,-0.2205327,1.503339,0.1812942,-0.2145451,1.504361,0.01612137,0.439148,1.748864,-0.1939526,-0.1812489,1.474949,0.2230744,-0.1849087,1.466378,0.008132078,-0.03515775,1.756985,0.008289516,-0.3591374,1.740346,-0.1629575,0.170716,1.753766,-0.0722632,-0.3513049,1.703231,-0.2008544,-0.05487312,1.772115,0.2133708,-0.07865712,1.777893,NA,NA,Open,Open,
0.3657227,-1.166504,-0.05126953,0.4780273,1.089355,0.2573242,1,32,5,1,-22,4,8,9,-3,-3,-5,-23,-22,-14,-4,1,-74.5,-74.5,-74.5,33.6875,33.6875,33.6875,2.529339,3.939205,5.964524,6.771397,4.204772,0.4845167,-0.1075995,-0.2073985,1.498355,0.1327648,-0.1959014,1.511094,0.0167381,0.4392397,1.750318,-0.1498192,-0.1828951,1.458706,0.168153,-0.1679068,1.46363,0.008179137,-0.03509809,1.757218,0.008360106,-0.3591733,1.740439,-0.1630459,0.1701566,1.754057,-0.07199395,-0.3513809,1.703298,-0.1999643,-0.05214062,1.75923,0.2161173,-0.07471898,1.773697,NA,NA,Open,Unknown,
0.609375,-0.8515625,-0.4609375,0.496582,0.9018555,0.1899414,8,0,-5,-6,-3,-7,-2,1,0,-2,-4,-5,6,12,0,-7,-38.1875,-38.1875,-38.1875,-16.1875,-16.1875,-16.1875,2.500657,4.009745,5.872018,6.788832,4.342184,0.4361204,-0.1097669,-0.1672699,1.474797,0.1225739,-0.1621408,1.479885,0.01752007,0.4395444,1.751241,-0.1478945,-0.154549,1.440743,0.1599645,-0.1370202,1.449893,0.008328545,-0.03494799,1.757698,0.00855864,-0.3590419,1.740873,-0.1626085,0.1700171,1.753987,-0.07174062,-0.351224,1.703454,-0.1985726,-0.05306485,1.752431,0.2158536,-0.06994016,1.762064,NA,NA,Unknown,Open,
0.7124023,-0.6254883,-0.199707,0.4057617,0.7924805,0.2456055,5,2,4,5,20,12,9,6,1,-2,-1,-3,14,10,0,2,86.75,86.75,86.75,-35.3125,-35.3125,-35.3125,2.3922,4.26767,6.051919,6.7967,4.484718,0.285572,-0.1345367,-0.1262369,1.442423,0.1517635,-0.1199712,1.440811,0.01862988,0.4395566,1.751812,-0.1718675,-0.1097974,1.434077,0.1893272,-0.09334946,1.4012,0.008685486,-0.03487381,1.758215,0.008926857,-0.3588583,1.741333,-0.1620975,0.1700137,1.754061,-0.07146969,-0.3510149,1.703628,-0.2035264,-0.07189043,1.673888,0.2168252,-0.06541035,1.755532,NA,NA,Lasso,Unknown,
0.4936523,-0.8901367,-0.1049805,0.3813477,0.7661133,0.3198242,-1,-5,-3,0,17,1,-1,-3,0,-1,-4,-13,1,-6,1,2,-3.75,-3.75,-3.75,-28.125,-28.125,-28.125,2.281009,4.432021,6.343782,6.813022,4.572386,0.02322177,-0.1968486,-0.09297905,1.421646,0.1962704,-0.0913659,1.433435,0.02017421,0.4393214,1.751887,-0.2407531,-0.07170513,1.394793,0.2450841,-0.06113736,1.400937,0.009044492,-0.03498577,1.759068,0.009256336,-0.3589973,1.74236,-0.1613596,0.1705952,1.754342,-0.07127013,-0.3510523,1.704128,-0.2150124,-0.04907059,1.747852,0.225807,-0.0648995,1.750732,NA,NA,Unknown,Unknown,
0.4487305,-0.7167969,-0.05322266,0.3457031,0.7075195,0.3598633,5,0,1,3,-3,-2,1,2,1,-1,3,6,0,2,0,1,5.875,5.875,5.875,-27.25,-27.25,-27.25,2.233976,4.48841,6.556508,6.80962,4.5515,9.848598,-0.2511736,-0.07787661,1.427878,0.2489765,-0.08204831,1.431416,0.02302643,0.4386815,1.750698,-0.2977233,-0.04865034,1.413231,0.301574,-0.05506145,1.406105,0.009694085,-0.03513256,1.759458,0.00999989,-0.3591298,1.742857,-0.1610428,0.1709362,1.754726,-0.0707294,-0.3510703,1.704355,-0.2052315,-0.05113953,1.72403,0.2219575,-0.07498606,1.73372,NA,NA,Unknown,Unknown,
0.4487305,-0.8330078,-0.001464844,0.4853516,0.8364258,0.3427734,-4,3,3,2,1,2,-1,1,-4,-3,-1,0,-7,8,-2,-1,-4.25,-4.25,-4.25,1.875,1.875,1.875,2.171074,4.446639,6.744641,6.819967,4.446562,9.761679,-0.2880285,-0.09563253,1.45316,0.2799434,-0.1034158,1.434054,0.02643711,0.4381178,1.749598,-0.317881,-0.06567492,1.449786,0.3344953,-0.08483616,1.43272,0.01100101,-0.03560472,1.7597,0.01089609,-0.3595982,1.743304,-0.1600189,0.1711876,1.755069,-0.06967159,-0.3515179,1.704827,-0.2061903,-0.06227245,1.741321,0.2259339,-0.08268683,1.7263,NA,NA,Unknown,Unknown,
0.4594727,-0.8930664,0.03076172,0.4238281,0.6635742,0.5654297,-2,-1,-3,-3,-4,0,1,-1,-4,-5,-6,2,0,1,-4,-2,26.0625,26.0625,26.0625,38.625,38.625,38.625,2.171881,4.316459,6.876847,6.809499,4.293867,9.835981,-0.3114313,-0.1345869,1.485748,0.2948149,-0.1397008,1.468025,0.031711,0.4375475,1.747238,-0.3461307,-0.1127795,1.469767,0.3410205,-0.129089,1.448833,0.01281564,-0.03581389,1.759257,0.01215094,-0.3597494,1.743058,-0.1565471,0.1727388,1.754019,-0.06835523,-0.3515083,1.704305,-0.2008588,-0.06385545,1.77965,0.2416022,-0.08239143,1.747789,NA,NA,Unknown,Unknown,
0.5004883,-0.8261719,0.015625,0.215332,0.8847656,0.4570313,-1,0,0,-3,3,-4,1,-1,-2,2,1,1,-14,-7,0,-3,28.9375,28.9375,28.9375,78.625,78.625,78.625,2.186802,4.194533,6.927587,6.884886,4.143957,0.04215277,-0.3125975,-0.1856151,1.507666,0.2652972,-0.1712748,1.503648,0.03750354,0.4373202,1.745456,-0.3670536,-0.1841532,1.499143,0.307053,-0.1594665,1.440083,0.01609039,-0.03581331,1.757934,0.01469535,-0.3596902,1.742247,-0.1517807,0.174069,1.751558,-0.06566572,-0.3512721,1.703101,-0.196259,-0.06111536,1.7858,0.2593478,-0.07174497,1.767089,NA,NA,Open,Unknown,
0.6391602,-0.7592773,-0.1938477,0.2944336,0.8662109,0.2749023,3,-1,-1,-3,-6,-7,-6,-3,-3,-5,-4,-7,-12,-8,-4,-2,-62.3125,-62.3125,-62.3125,35.125,35.125,35.125,2.181033,3.862551,6.911109,6.930878,4.068702,0.1012129,-0.2842227,-0.2377392,1.522303,0.2314939,-0.2036124,1.517646,0.04494641,0.4370423,1.74256,-0.3350373,-0.2349232,1.503,0.2645365,-0.1694816,1.472158,0.02073162,-0.03580503,1.755917,0.01903581,-0.3594627,1.740338,-0.1458145,0.1742877,1.748267,-0.06132812,-0.3507359,1.70058,-0.1979652,-0.06172672,1.776736,0.2627483,-0.06539205,1.785115,NA,NA,Open,Unknown,
0.6469727,-0.8085938,-0.2163086,0.543457,0.8188477,0.07421875,-4,1,0,2,1,1,3,1,5,1,0,2,12,10,3,8,-92.125,-92.125,-92.125,38,38,38,2.01603,3.597786,6.856853,7.070321,3.931932,0.007955005,-0.2372201,-0.2858374,1.541373,0.2205382,-0.2400638,1.51905,0.05317516,0.43659,1.739488,-0.254318,-0.2303836,1.499692,0.2342987,-0.1998505,1.47835,0.02632461,-0.03602674,1.753699,0.02286697,-0.3593996,1.738585,-0.13949,0.1744557,1.745592,-0.05763724,-0.3503488,1.698411,-0.1954114,-0.06803121,1.76791,0.2565957,-0.07337692,1.784983,NA,NA,Open,Unknown,
0.8769531,-0.5048828,-0.2504883,0.7456055,0.6557617,0.1005859,-11,-1,-1,-1,-2,-1,-3,-3,7,5,2,1,3,10,6,9,-121.375,-121.375,-121.375,18.375,18.375,18.375,1.851272,3.418434,6.8462,7.136077,3.791475,9.974519,-0.1972903,-0.3084748,1.559898,0.2223658,-0.2840519,1.515616,0.0627635,0.4350654,1.737193,-0.1912387,-0.2856967,1.522,0.2048329,-0.2503335,1.487577,0.032501,-0.03671091,1.751774,0.02839789,-0.3601102,1.736668,-0.132011,0.1736361,1.74262,-0.05236543,-0.3506927,1.695934,-0.1888211,-0.07299099,1.76299,0.2541495,-0.08274867,1.782708,NA,NA,Open,Unknown,
0.8740234,-0.605957,-0.1313477,0.7749023,0.5288086,0.04003906,4,-6,-12,2,-38,-6,-2,6,3,3,-1,-5,-9,2,2,4,-136.5625,-136.5625,-136.5625,44.8125,44.8125,44.8125,1.753162,3.308662,6.782365,7.208749,3.614479,9.9815,-0.1525667,-0.3815234,1.594843,0.2297433,-0.3421507,1.541707,0.07491235,0.4335771,1.734524,-0.1655342,-0.364886,1.559773,0.1930823,-0.3181705,1.514148,0.04089879,-0.03759541,1.748714,0.03499491,-0.3606345,1.732843,-0.1228861,0.1729675,1.739325,-0.04641968,-0.3509102,1.692078,-0.1751742,-0.07960729,1.75405,0.2580324,-0.09531937,1.775957,NA,NA,NotTracked,Unknown,
1.009277,-0.3178711,-0.1850586,0.8691406,0.6186523,-0.03857422,0,-1,-24,-5,-10,-3,-1,-4,-2,-1,-5,2,45,-8,2,-7,-82.875,-82.875,-82.875,21.1875,21.1875,21.1875,1.635189,3.022685,6.623753,7.274159,3.397153,9.999835,-0.132536,-0.4035431,1.639744,0.2324856,-0.3783454,1.584841,0.08764692,0.4335792,1.732345,-0.1681595,-0.4020261,1.647107,0.1894546,-0.3635889,1.55184,0.05101863,-0.03744427,1.745742,0.0440769,-0.3601893,1.728981,-0.1120993,0.1725531,1.736043,-0.0376011,-0.3500304,1.687812,-0.1609363,-0.08697508,1.745111,0.2631144,-0.1009743,1.773381,NA,NA,NotTracked,Unknown,
0.9829102,-0.1293945,-0.1962891,0.9155273,0.2373047,0.1391602,0,-11,1,-4,-11,-5,-4,-4,-4,-6,1,6,-27,-5,-5,-6,-51.25,-51.25,-51.25,23.9375,23.9375,23.9375,1.556617,2.936486,6.635144,7.230738,3.225458,0.08508572,-0.1256967,-0.3320508,1.664369,0.2545685,-0.3378336,1.644343,0.1039078,0.4325967,1.729868,-0.1562984,-0.3373344,1.6755,0.2224649,-0.3393074,1.606423,0.06219452,-0.03763466,1.743323,0.05201239,-0.3600552,1.727017,-0.09610678,0.172997,1.731418,-0.02918355,-0.3493197,1.685053,-0.1474301,-0.08898614,1.739035,0.2698706,-0.1037748,1.771988,NA,NA,NotTracked,NotTracked,
0.9326172,-0.34375,-0.3525391,0.987793,0.7211914,-0.1079102,-6,-4,-3,2,-1,0,-3,-6,-2,0,1,-3,12,9,1,2,51.25,51.25,51.25,-80.375,-80.375,-80.375,1.41456,2.90344,6.802899,7.300059,3.265031,9.933103,-0.1121025,-0.3773465,1.647408,0.2644623,-0.3479427,1.643323,0.1214658,0.4311387,1.727176,-0.1422176,-0.3772111,1.663615,0.2276244,-0.3313424,1.615778,0.07802624,-0.03860418,1.740613,0.06511746,-0.3607218,1.724396,-0.08039894,0.1724792,1.726869,-0.01670354,-0.3497415,1.682369,-0.1362326,-0.09282591,1.736408,0.2814006,-0.1087337,1.77081,NA,NA,NotTracked,NotTracked,
0.9355469,-0.2836914,-0.105957,0.8652344,0.3271484,0.1333008,-3,-3,-1,-1,0,-1,-4,-2,-1,-1,2,2,8,3,-1,0,-75.125,-75.125,-75.125,37.375,37.375,37.375,1.329676,2.960446,6.915342,7.16494,3.259878,9.964729,-0.1058462,-0.3793419,1.643047,0.2810165,-0.3492829,1.640139,0.1388933,0.430099,1.72419,-0.1352838,-0.4040346,1.6525,0.2448838,-0.3528694,1.600667,0.09368426,-0.03946796,1.737604,0.07992818,-0.3614794,1.721085,-0.06669396,0.1720462,1.724939,-0.001885467,-0.3502409,1.67895,-0.1232975,-0.09469793,1.732154,0.2961475,-0.1115903,1.770314,NA,NA,NotTracked,NotTracked,
0.9584961,-0.2988281,-0.152832,0.918457,0.4936523,0.1367188,-3,-1,0,0,-3,2,0,-5,0,0,0,0,2,3,-1,-1,-16.75,-16.75,-16.75,6.5625,6.5625,6.5625,1.29102,2.972508,6.863518,7.176698,3.262492,9.9925,-0.09359439,-0.3788779,1.635959,0.2928298,-0.3537018,1.637556,0.1574346,0.4283082,1.721672,-0.1268481,-0.3817169,1.649286,0.2554643,-0.3590252,1.592167,0.108659,-0.04088642,1.735463,0.09355903,-0.3633064,1.718597,-0.04821559,0.1720216,1.721258,0.01171707,-0.3513521,1.676466,-0.1115725,-0.09523688,1.728833,0.3128695,-0.1145618,1.769493,NA,NA,NotTracked,NotTracked,
1.026367,-0.06787109,-0.2490234,0.9086914,0.3134766,0.09667969,3,0,-1,-1,-4,-1,-2,4,-1,1,0,10,1,0,1,0,-17.1875,-17.1875,-17.1875,-1.75,-1.75,-1.75,1.221464,2.964057,6.912514,7.141328,3.255922,0.01750741,-0.08444536,-0.3773554,1.627861,0.3064644,-0.3509405,1.63726,0.1750928,0.4269071,1.717237,-0.1174975,-0.3781728,1.643765,0.2727916,-0.3530262,1.598035,0.1229484,-0.04137419,1.732111,0.1061215,-0.3633992,1.714663,-0.03105626,0.1714581,1.715521,0.02380104,-0.3507735,1.672121,-0.09828904,-0.09513894,1.724212,0.3252395,-0.1165726,1.766812,NA,NA,NotTracked,NotTracked,
1.070801,-0.03857422,-0.3994141,0.9697266,0.394043,0.1005859,1,0,-3,-2,0,-2,-1,-5,-1,0,0,2,0,-1,-3,-2,-28.3125,-28.3125,-28.3125,17.8125,17.8125,17.8125,1.118613,2.979994,6.956735,7.135978,3.243659,0.04562912,-0.07591181,-0.3712972,1.616445,0.3000171,-0.3910815,1.619684,0.1914403,0.4258922,1.710685,-0.1109272,-0.3992271,1.62975,0.2673533,-0.3678488,1.591629,0.1354535,-0.04056206,1.727243,0.1160536,-0.3620649,1.710394,-0.01470089,0.172826,1.709932,0.03346108,-0.3481457,1.667747,-0.08834513,-0.0908426,1.722452,0.3373044,-0.1186282,1.765987,NA,NA,NotTracked,NotTracked,
1.109863,-0.05712891,-0.4394531,1.084961,0.402832,-0.03173828,-3,-5,-1,1,-3,-1,-3,-1,-3,-6,-5,-4,-2,0,-2,-1,-61.25,-61.25,-61.25,60.25,60.25,60.25,1.061155,3.00091,6.95009,7.180851,3.239505,0.1066592,-0.06951848,-0.3645295,1.607192,0.3032124,-0.3940369,1.616103,0.2044155,0.4248969,1.702627,-0.1072799,-0.3618207,1.628714,0.2669888,-0.3703564,1.590932,0.1468662,-0.0392343,1.721056,0.1265091,-0.3597628,1.704953,-0.004560535,0.1750314,1.705587,0.04312285,-0.3444364,1.662014,-0.08257452,-0.08598803,1.724335,0.3475928,-0.1193748,1.76703,NA,NA,NotTracked,NotTracked,
0.9521484,-0.2236328,-0.4091797,0.9775391,0.5249023,-0.02832031,1,-2,0,3,4,3,3,-1,-2,-4,-2,-5,-6,-2,-1,-1,-115.375,-115.375,-115.375,89.8125,89.8125,89.8125,0.9567468,3.016643,6.811941,7.289134,3.271323,0.1549259,-0.06831793,-0.3493262,1.604792,0.3104366,-0.3975684,1.614257,0.21514,0.4252657,1.691821,-0.1085917,-0.349959,1.613889,0.2709334,-0.3705335,1.595969,0.157781,-0.03778825,1.713899,0.1375409,-0.3571049,1.70082,0.004639954,0.1793698,1.697198,0.05352067,-0.3410865,1.657326,-0.08257751,-0.07509173,1.725813,0.3613555,-0.1165077,1.772458,NA,NA,NotTracked,NotTracked,
0.9648438,-0.2724609,-0.4541016,0.9492188,0.512207,0.02832031,1,1,2,5,2,6,5,1,0,-3,-9,7,-1,-2,-4,-1,-97.3125,-97.3125,-97.3125,86.3125,86.3125,86.3125,0.8746833,3.019273,6.778238,7.426602,3.305246,0.1636251,-0.07243297,-0.3318661,1.607909,0.3340061,-0.3762236,1.619935,0.2212606,0.424326,1.67704,-0.1165461,-0.3301853,1.610187,0.295589,-0.3631343,1.60775,0.1666372,-0.0373811,1.704191,0.1461814,-0.3569474,1.696318,0.01295367,0.1830595,1.683714,0.06161328,-0.3409897,1.653187,-0.1009979,-0.04855848,1.718208,0.3844323,-0.1062002,1.77923,NA,NA,NotTracked,NotTracked,
0.8129883,-0.2636719,-0.2304688,0.9155273,0.6235352,0.1748047,-3,0,0,-7,-9,-1,11,7,7,7,4,-15,0,0,3,5,-86.25,-86.25,-86.25,59.125,59.125,59.125,0.7575194,2.979203,6.656891,7.541701,3.335905,0.1511781,-0.08109201,-0.3152128,1.608935,0.3599218,-0.3601812,1.631719,0.2226243,0.4240648,1.661182,-0.1283178,-0.3031991,1.607261,0.3168475,-0.3334105,1.627467,0.173415,-0.03647895,1.693867,0.1537721,-0.3563717,1.692742,0.01645536,0.1863733,1.66739,0.06944775,-0.3409889,1.649801,-0.1154941,-0.029858,1.707263,0.4073724,-0.09413817,1.785274,NA,NA,NotTracked,NotTracked,
0.722168,-0.3618164,-0.2143555,0.7036133,0.684082,0.184082,-30,-19,-9,-4,-2,-4,-18,-30,12,0,-4,-3,0,-1,-1,4,-48,-48,-48,7.0625,7.0625,7.0625,0.819138,2.962183,6.492498,7.624887,3.343508,0.13606,-0.07628199,-0.307246,1.603158,0.3805066,-0.3368881,1.644416,0.2187803,0.4231534,1.641107,-0.1247352,-0.3134333,1.59245,0.3333429,-0.3019452,1.640667,0.1789653,-0.03594876,1.6794,0.1619571,-0.3560507,1.685994,0.01649006,0.184586,1.643477,0.07787114,-0.3418759,1.643538,-0.1277738,-0.0216454,1.689027,0.4217645,-0.07871181,1.790069,NA,NA,NotTracked,NotTracked,
0.6508789,-0.394043,-0.1157227,0.5507813,0.6098633,0.2441406,32,9,1,2,-1,1,3,10,19,-6,-7,3,-3,5,23,27,-33,-33,-33,-32.25,-32.25,-32.25,0.9751465,2.951622,6.271062,7.564934,3.300404,0.1126373,-0.07140848,-0.3040099,1.583657,0.3806554,-0.3203996,1.648416,0.2107642,0.4233078,1.621991,-0.1098738,-0.3251623,1.569296,0.3187898,-0.2873268,1.596695,0.1838402,-0.03580435,1.662584,0.1751906,-0.3563058,1.674953,0.0143077,0.178764,1.616943,0.09150772,-0.3444239,1.632433,-0.1358611,-0.01758316,1.66645,0.4272189,-0.06409718,1.792898,NA,NA,NotTracked,NotTracked,
