ALX,ALY,ALZ,ARX,ARY,ARZ,EMG0L,EMG1L,EMG2L,EMG3L,EMG4L,EMG5L,EMG6L,EMG7L,EMG0R,EMG1R,EMG2R,EMG3R,EMG4R,EMG5R,EMG6R,EMG7R,GLX,GLY,GLZ,GRX,GRY,GRZ,ORL,OPL,OYL,ORR,OPR,OYR,LHNX,LHNY,LHNZ,RHNX,RHNY,RHNZ,HX,HY,HZ,LTX,LTY,LTZ,RTX,RTY,RTZ,SpineMidX,SpineMidY,SpineMidZ,SpineBaseX,SpineBaseY,SpineBaseZ,ShoulderLeftX,ShoulderLeftY,ShoulderLeftZ,ShoulderRightX,ShoulderRightY,ShoulderRightZ,ElbowLeftX,ElbowLeftY,ElbowLeftZ,ElbowRightX,ElbowRightY,ElbowRightZ,Myo_Pose_left,Myo_Pose_Right,Kinect_pose_left,Kinect_pose_right
0.9746094,-0.1181641,-0.1357422,0.9345703,0.2607422,0.005859375,0,-2,-7,0,3,-1,-2,0,-1,-1,-1,-1,7,-2,-2,-3,-0.875,-0.875,-0.875,0.0625,0.0625,0.0625,1.099207,2.815488,7.026833,7.536236,2.954804,9.372261,-0.1930759,-0.3559489,1.679629,0.2259846,-0.3973297,1.660603,0.04484694,0.4379314,1.70834,-0.2214709,-0.3445841,1.694525,0.2481546,-0.4095711,1.647818,0.02486917,-0.03597934,1.729534,0.02805615,-0.3600888,1.72122,-0.1445066,0.1696065,1.701217,-0.0523649,-0.3509588,1.67694,-0.1982397,-0.09197374,1.738975,0.2364806,-0.1077499,1.770715,NA,NA,NotTracked,NotTracked,
0.980957,-0.1152344,-0.1416016,0.9404297,0.2680664,0.0009765625,-1,-2,2,0,2,0,-2,-1,-1,-1,0,1,7,3,2,-1,0.5,0.5,0.5,-1.75,-1.75,-1.75,1.099193,2.814922,7.02531,7.531037,2.95476,9.375185,-0.1936985,-0.3556221,1.680614,0.2260018,-0.397213,1.660799,0.04518593,0.4378269,1.708179,-0.2272701,-0.334524,1.701667,0.255424,-0.3783178,1.666,0.02507977,-0.03604568,1.729261,0.028209,-0.3601739,1.720737,-0.1443227,0.1695953,1.701234,-0.05224625,-0.3510371,1.676582,-0.1978848,-0.09214424,1.738903,0.236634,-0.1077087,1.77032,NA,NA,NotTracked,NotTracked,
0.9770508,-0.1166992,-0.1489258,0.9331055,0.2729492,-0.01171875,-1,-1,-1,-5,-1,-2,0,-2,1,0,0,0,3,3,0,-1,-0.5,-0.5,-0.5,-0.875,-0.875,-0.875,1.097523,2.814829,7.026951,7.531243,2.955394,9.372789,-0.183228,-0.3847561,1.671699,0.2255463,-0.3970062,1.659867,0.04553397,0.4378543,1.708125,-0.2173321,-0.3634492,1.696833,0.2491535,-0.3992339,1.650741,0.02523246,-0.03606022,1.729048,0.02822386,-0.3601872,1.720331,-0.1441032,0.1697037,1.701271,-0.05223728,-0.3510273,1.676305,-0.1976028,-0.09225437,1.738849,0.2368005,-0.1076072,1.770067,NA,NA,NotTracked,NotTracked,
0.972168,-0.1274414,-0.1430664,0.9379883,0.2744141,-0.00390625,-1,-1,-2,-1,1,-1,-1,-2,-1,-1,1,-1,-6,-5,-1,-1,-1.25,-1.25,-1.25,-0.375,-0.375,-0.375,1.099646,2.81509,7.024101,7.531893,2.955181,9.372709,-0.1964483,-0.3481261,1.681939,0.227638,-0.3896371,1.662472,0.04580602,0.4378671,1.70795,-0.2216257,-0.3375997,1.686062,0.2573639,-0.3547627,1.670833,0.02540328,-0.03606706,1.728747,0.02836245,-0.3601856,1.719798,-0.1438397,0.1696802,1.701176,-0.05205278,-0.351031,1.675714,-0.1972311,-0.09227235,1.738588,0.2369741,-0.1077082,1.769573,NA,NA,NotTracked,NotTracked,
0.9785156,-0.1147461,-0.1420898,0.9321289,0.2670898,0,-2,-2,-4,3,1,0,-1,0,0,-1,0,-2,3,-4,1,5,-1.5625,-1.5625,-1.5625,-0.25,-0.25,-0.25,1.098734,2.816342,7.022676,7.531243,2.955394,9.372789,-0.1962926,-0.347547,1.681626,0.2256144,-0.3946041,1.660129,0.04597201,0.4378895,1.707886,-0.2208684,-0.3465712,1.690343,0.2556144,-0.3729601,1.667296,0.02566326,-0.03610058,1.728474,0.02862229,-0.3601966,1.719366,-0.143743,0.1697305,1.701156,-0.05176799,-0.3510471,1.675287,-0.1970196,-0.09211306,1.738334,0.2370856,-0.107728,1.769304,NA,NA,NotTracked,NotTracked,
0.9799805,-0.1162109,-0.1474609,0.9360352,0.2802734,-0.006347656,-1,-3,-1,-4,1,0,-1,-1,0,0,0,1,1,2,1,-1,-1.3125,-1.3125,-1.3125,-0.875,-0.875,-0.875,1.097795,2.81486,7.022055,7.530567,2.955545,9.373126,-0.194584,-0.3539745,1.679457,0.2256747,-0.3966711,1.658841,0.04613846,0.4377292,1.707713,-0.2225949,-0.3427449,1.695791,0.247216,-0.4250448,1.645067,0.02578894,-0.03624135,1.728016,0.02864519,-0.3603216,1.718779,-0.1435652,0.169633,1.700975,-0.05179387,-0.3511194,1.674603,-0.1968703,-0.09244971,1.738094,0.2371746,-0.1078488,1.768777,NA,NA,NotTracked,NotTracked,
0.9912109,-0.1083984,-0.1938477,0.9560547,0.277832,-0.01855469,-2,-4,-2,-3,-8,-1,5,-4,2,1,0,-1,1,2,0,-3,-1.75,-1.75,-1.75,-1.125,-1.125,-1.125,1.117058,2.820759,6.999557,7.533051,2.955393,9.368408,-0.1938895,-0.3531472,1.676564,0.2258968,-0.3962134,1.659085,0.04629143,0.4377262,1.707539,-0.2191908,-0.3433263,1.685969,0.2475711,-0.4230529,1.646616,0.0259434,-0.03621629,1.727709,0.02873363,-0.3603128,1.718436,-0.1433936,0.169649,1.700788,-0.05168265,-0.3511133,1.674233,-0.1967758,-0.09240909,1.737938,0.2371803,-0.1079582,1.768475,NA,NA,NotTracked,NotTracked,
1.015625,0.01269531,-0.1357422,1.081543,0.2216797,-0.2270508,0,2,0,-11,-51,-14,-7,1,-5,-12,-20,-7,-1,0,-7,4,67.625,67.625,67.625,9.6875,9.6875,9.6875,1.410447,2.887064,6.816049,7.550122,2.963638,9.362338,-0.1862299,-0.35356,1.657447,0.2250209,-0.3965501,1.656854,0.04644313,0.4377187,1.707367,-0.2163141,-0.342402,1.665072,0.2485448,-0.3984259,1.650833,0.02607952,-0.03616727,1.727397,0.02887037,-0.3601856,1.717793,-0.1432572,0.1697883,1.700511,-0.05158592,-0.350937,1.673647,-0.1967618,-0.09172018,1.738169,0.2372289,-0.1077981,1.768403,NA,NA,NotTracked,NotTracked,
0.9575195,-0.4731445,-0.3662109,0.9946289,0.3388672,-0.002441406,0,-7,-3,-2,-12,-11,-5,-5,-4,6,3,10,4,4,0,10,-102.125,-102.125,-102.125,124.25,124.25,124.25,1.701879,3.066444,6.437127,7.402267,3.088531,9.641308,-0.1674211,-0.3417499,1.621702,0.2276115,-0.401588,1.646303,0.04650387,0.4377097,1.707138,-0.1991807,-0.3586132,1.634111,0.2608018,-0.4102657,1.6508,0.02646602,-0.03603224,1.726703,0.02991031,-0.3597628,1.716349,-0.1431797,0.1699742,1.700391,-0.05072293,-0.3507753,1.672212,-0.1969204,-0.08941277,1.739169,0.2384786,-0.1070597,1.770366,NA,NA,NotTracked,NotTracked,
0.7773438,-0.7524414,-0.2802734,0.7529297,0.9970703,0.002929688,-2,2,6,-10,10,2,0,-2,7,3,-2,10,2,-11,-4,17,-114.625,-114.625,-114.625,51.25,51.25,51.25,1.80898,3.245378,6.176593,7.377812,3.441082,9.928529,-0.1167984,-0.3225518,1.576524,0.2275141,-0.3768578,1.599082,0.04619724,0.4376777,1.706588,-0.1571517,-0.3655193,1.5888,0.2219362,-0.3936,1.622667,0.02730643,-0.03600816,1.725749,0.03209152,-0.3596697,1.714003,-0.1433114,0.1703048,1.700382,-0.04882229,-0.3513021,1.669904,-0.1970745,-0.07933126,1.736168,0.2428475,-0.1017265,1.774745,NA,NA,NotTracked,Unknown,
0.4916992,-0.8095703,-0.215332,0.612793,0.9003906,0.2734375,0,-7,-22,-7,-57,-5,-1,-2,6,3,10,-8,-9,1,2,6,-166.9375,-166.9375,-166.9375,94.3125,94.3125,94.3125,1.949395,3.642746,5.633044,7.347717,3.841302,0.1352205,-0.06959452,-0.2712002,1.550599,0.2027515,-0.284669,1.545979,0.0456221,0.4374511,1.706264,-0.1153888,-0.3068453,1.594394,0.1752041,-0.3282593,1.5834,0.02677648,-0.03606141,1.725578,0.03029848,-0.3596954,1.713421,-0.1437175,0.1705646,1.700372,-0.05027714,-0.3512531,1.669508,-0.2048482,-0.05368255,1.718351,0.2492533,-0.08252987,1.774421,NA,NA,Unknown,Unknown,
0.3999023,-0.9458008,-0.04785156,0.1425781,0.9951172,0.2592773,0,-1,5,1,5,-2,-3,-1,-4,-4,5,-1,1,-2,-4,-3,-145.4375,-145.4375,-145.4375,90.25,90.25,90.25,1.962313,3.975637,5.077764,7.408817,4.429102,0.49696,-0.01585576,-0.2281887,1.552316,0.1553051,-0.178946,1.484231,0.04441519,0.4371555,1.706023,-0.06117425,-0.2796808,1.580467,0.1049581,-0.1765514,1.521462,0.02560905,-0.03616026,1.725976,0.02783361,-0.3597704,1.713467,-0.1445752,0.17019,1.699646,-0.05190162,-0.3511799,1.669615,-0.2128993,-0.04566512,1.691996,0.2637135,-0.05928022,1.760483,NA,NA,Unknown,NotTracked,
0.4204102,-0.9086914,-0.04882813,0.0078125,0.8295898,0.2358398,-2,-1,-2,-1,-18,-2,-3,-2,1,5,2,8,9,0,2,-1,-137.6875,-137.6875,-137.6875,85.3125,85.3125,85.3125,1.956202,4.093437,4.825872,7.476327,4.780782,0.7903707,0.0436912,-0.2006111,1.559341,0.08171507,-0.07848881,1.46892,0.04208874,0.436462,1.707207,0.005423325,-0.2544851,1.55634,0.03327275,-0.05210125,1.495778,0.02492686,-0.03600305,1.727081,0.02752751,-0.3593729,1.713894,-0.146224,0.1679996,1.696703,-0.05210467,-0.3508843,1.669913,-0.2008651,-0.05009782,1.650098,0.2750723,-0.05285972,1.702933,NA,NA,NotTracked,NotTracked,
0.4643555,-0.8876953,-0.1010742,0.08007813,0.8632813,0.1899414,-1,0,1,1,-6,-4,-4,-3,7,5,2,-3,6,2,6,9,-135.5625,-135.5625,-135.5625,75.875,75.875,75.875,1.922978,4.175512,4.601805,7.58385,5.005753,1.084651,0.0332936,-0.01299263,1.480835,0.0138231,-0.00864178,1.481028,0.03911076,0.4365009,1.71073,0.0370873,-0.04297449,1.467333,0.01942451,0.01676377,1.455312,0.02426766,-0.03510285,1.729923,0.02763529,-0.357716,1.715706,-0.139881,0.1671839,1.687061,-0.05171542,-0.3494682,1.670674,-0.1682541,-0.05179175,1.617892,0.2896161,-0.04589643,1.671049,NA,NA,NotTracked,NotTracked,
0.7338867,-0.7353516,-0.1328125,0.2392578,0.8320313,0.07666016,-5,0,-10,-5,4,-3,-4,-5,0,-4,-4,0,-2,-1,1,-14,-87.0625,-87.0625,-87.0625,24.0625,24.0625,24.0625,1.804165,4.223916,4.145261,7.681158,5.12731,1.413259,0.08020746,0.01067414,1.542427,-0.03273128,0.02865645,1.512725,0.03670796,0.4366578,1.715021,0.1029156,-0.01456187,1.5216,-0.0450312,0.06904745,1.533389,0.02376884,-0.03488993,1.732288,0.02791639,-0.3571724,1.716811,-0.1344163,0.1658585,1.679043,-0.05137582,-0.348902,1.671013,-0.148923,-0.05323015,1.60162,0.2516833,-0.04261735,1.642488,NA,NA,NotTracked,NotTracked,
0.7456055,-0.7026367,-0.2661133,0.3374023,0.8261719,-0.02148438,-1,-4,-2,-9,-14,-8,-5,-2,2,1,-9,-35,-6,1,4,3,-51.1875,-51.1875,-51.1875,2.625,2.625,2.625,1.757438,4.186846,4.031879,7.697806,5.114499,1.526878,0.09395942,0.01688327,1.56245,-0.08000849,0.04109105,1.543566,0.03501929,0.4366118,1.71847,0.1078632,-0.007295351,1.530313,-0.06419698,0.0825041,1.563667,0.02359596,-0.0348761,1.733705,0.02817463,-0.3572521,1.717487,-0.1309019,0.1647036,1.674042,-0.05114323,-0.3488791,1.671166,-0.1402199,-0.05322509,1.594445,0.2370053,-0.03989723,1.626595,NA,NA,NotTracked,NotTracked,
0.5576172,-0.7246094,-0.3530273,0.3964844,0.8823242,-0.0859375,-2,2,12,9,25,0,-1,0,6,13,21,-7,10,9,0,0,11.5625,11.5625,11.5625,-27.1875,-27.1875,-27.1875,1.761278,4.145268,4.022692,7.662611,5.005898,1.613298,0.1273976,0.002659958,1.587693,-0.08540806,0.03113206,1.563377,0.03343715,0.4368672,1.720991,0.1522755,-0.04858541,1.561563,-0.0523772,0.07750252,1.579572,0.0234073,-0.03479493,1.734414,0.02839047,-0.3574114,1.717844,-0.1298962,0.1641453,1.672407,-0.05097651,-0.3489415,1.67124,-0.1381929,-0.05342184,1.591452,0.2308038,-0.04125938,1.62519,NA,NA,NotTracked,NotTracked,
0.4033203,-0.815918,-0.269043,0.04589844,1.071289,-0.1601563,0,-1,-7,-2,-20,-7,-3,0,2,-3,-7,5,-5,-8,0,5,26.3125,26.3125,26.3125,-39.9375,-39.9375,-39.9375,1.789835,4.141702,4.057223,7.605149,4.953537,1.553198,0.1251246,0.001227713,1.594716,-0.08796318,0.02248258,1.570993,0.03210229,0.43694,1.721967,0.1407433,-0.04915106,1.563937,-0.0523777,0.07358172,1.584364,0.0231759,-0.03483486,1.734802,0.02843236,-0.3575971,1.717977,-0.1298679,0.1641466,1.672187,-0.05094323,-0.349124,1.671,-0.1385529,-0.05357009,1.590636,0.2327113,-0.04271687,1.627178,NA,NA,NotTracked,NotTracked,
0.3901367,-0.8510742,-0.402832,-0.05908203,1.09082,-0.1391602,-3,0,4,0,-15,-3,-1,0,2,-2,-8,-7,2,1,-2,-5,27.625,27.625,27.625,-2.5625,-2.5625,-2.5625,1.807082,4.154663,4.100503,7.610716,4.889357,1.36512,0.1228559,0.001029043,1.597776,-0.0705066,0.01883998,1.57518,0.03011535,0.4371558,1.722469,0.1481536,-0.05094061,1.569418,-0.04982112,0.06922895,1.580168,0.02285214,-0.03488697,1.734969,0.02827533,-0.357728,1.717995,-0.131392,0.1645029,1.673537,-0.05113796,-0.3492624,1.670826,-0.1401383,-0.05487602,1.592164,0.2502502,-0.04669815,1.644828,NA,NA,NotTracked,NotTracked,
0.5375977,-0.7475586,-0.5693359,-0.04052734,1.11377,0.08007813,-1,-2,-11,-3,-8,-2,-1,-1,-9,-1,2,0,1,-3,-4,3,15.9375,15.9375,15.9375,24.875,24.875,24.875,1.801734,4.166471,4.135204,7.636296,4.827857,1.25744,0.175651,-0.00425502,1.610807,-0.04598287,0.02749706,1.592825,0.02701794,0.4369468,1.721932,0.2012312,-0.04487341,1.58165,-0.03401896,0.07539114,1.583789,0.02223449,-0.03500966,1.735098,0.02778786,-0.3578512,1.717895,-0.1314156,0.1645642,1.673545,-0.0516627,-0.3493084,1.670516,-0.1593361,-0.05399185,1.602302,0.2667676,-0.04600248,1.658486,NA,NA,NotTracked,NotTracked,
0.6245117,-0.9116211,-0.581543,-0.5087891,1.058105,-0.1113281,-2,2,-8,-2,-2,1,1,1,-7,0,0,-11,-3,-13,-16,-12,39.25,39.25,39.25,13.875,13.875,13.875,1.815004,4.175834,4.142127,7.650742,4.924046,1.150702,0.0809365,0.02169385,1.576918,-0.01500795,0.02448773,1.578969,0.02398226,0.4365582,1.721712,0.05817592,-0.0241535,1.515212,-0.02047541,0.08286631,1.585813,0.02129934,-0.03492073,1.735145,0.02687022,-0.3576256,1.717515,-0.1314531,0.1646135,1.673606,-0.05255253,-0.3490036,1.669814,-0.1635685,-0.05369119,1.603747,0.2802327,-0.0435065,1.667104,NA,NA,NotTracked,NotTracked,
0.4311523,-0.9233398,-0.3295898,-0.3989258,1.067383,0.0009765625,0,0,1,-1,-10,1,1,2,5,7,8,5,0,-2,6,1,-8,-8,-8,36.3125,36.3125,36.3125,1.820063,4.185695,4.17211,7.694677,5.128811,1.107616,0.08655683,0.02487192,1.556185,0.02492115,0.03726441,1.545434,0.02100641,0.4364954,1.721498,0.05982728,0.00519094,1.493767,0.0324469,0.06507996,1.514899,0.02042617,-0.03482845,1.73513,0.02530577,-0.3569537,1.71687,-0.1364938,0.1644737,1.677336,-0.05406219,-0.3483361,1.669208,-0.165634,-0.05340344,1.604235,0.2837011,-0.04164634,1.667706,NA,NA,NotTracked,NotTracked,
0.4018555,-0.8520508,-0.3974609,-0.3007813,0.9682617,-0.007324219,-1,-1,-3,-17,-14,-2,0,0,-4,-2,2,2,-7,4,-2,-12,0.3125,0.3125,0.3125,30,30,30,1.831531,4.206286,4.172891,7.752844,5.388813,1.181205,0.04969815,0.08394783,1.525791,0.03369925,0.08297001,1.523256,0.01939547,0.4360359,1.721557,0.07625917,0.05246238,1.50863,0.05432788,0.1071916,1.517656,0.01974694,-0.03475376,1.735004,0.02441818,-0.356573,1.716077,-0.1369617,0.1646263,1.67739,-0.05493412,-0.3479593,1.66872,-0.1661954,-0.0532182,1.604216,0.2802064,-0.03950982,1.657439,NA,NA,NotTracked,NotTracked,
0.4897461,-0.7929688,-0.4106445,-0.2304688,0.8842773,-0.03369141,-2,-2,2,1,0,-3,-2,-2,-1,-5,-6,3,1,3,8,9,-18.9375,-18.9375,-18.9375,9.625,9.625,9.625,1.808789,4.213862,4.153581,7.825369,5.594767,1.355937,0.04182978,0.115021,1.536239,0.008669937,0.1314332,1.531611,0.01847501,0.43586,1.721997,0.08906031,0.08199052,1.536667,0.03176291,0.1534051,1.530286,0.01960084,-0.0349978,1.735044,0.02438466,-0.3572354,1.715521,-0.135109,0.1643572,1.675688,-0.05505339,-0.3485664,1.668278,-0.166845,-0.05341106,1.603582,0.2543073,-0.03347198,1.623281,NA,NA,NotTracked,NotTracked,
0.4858398,-0.7983398,-0.3618164,-0.1508789,0.8037109,-0.152832,-1,0,-6,1,20,-1,-2,-2,-1,-8,-4,4,6,9,27,-10,-14.625,-14.625,-14.625,-13.0625,-13.0625,-13.0625,1.792481,4.211242,4.131156,7.933597,5.686584,1.668544,0.04105965,0.1102377,1.578094,-0.007478918,0.1426965,1.555276,0.01816479,0.4355089,1.723544,0.1040824,0.05902463,1.545,0.01957387,0.1527053,1.568444,0.01939541,-0.03525477,1.735245,0.02424599,-0.3577988,1.715273,-0.1284206,0.1639898,1.672407,-0.05525919,-0.3490352,1.668068,-0.1650781,-0.05338426,1.601804,0.2375787,-0.02809783,1.607492,NA,NA,NotTracked,NotTracked,
0.4746094,-0.8061523,-0.3354492,-0.1342773,0.7753906,-0.2275391,0,-3,4,6,39,3,0,0,3,3,-1,16,1,9,26,3,-4.9375,-4.9375,-4.9375,-26.5625,-26.5625,-26.5625,1.779292,4.20268,4.110592,7.970525,5.605983,1.859321,0.03188703,0.107292,1.573501,0.000203022,0.1132176,1.571418,0.01837203,0.4354686,1.725172,0.06580823,0.08285066,1.5464,-0.04257656,0.1472289,1.543727,0.01925428,-0.03539039,1.735337,0.02443033,-0.3582568,1.714917,-0.1240134,0.1627745,1.668739,-0.05508895,-0.3494311,1.667506,-0.1631283,-0.05456119,1.599696,0.224971,-0.02430543,1.598577,NA,NA,NotTracked,NotTracked,
0.4853516,-0.7827148,-0.3598633,-0.1884766,1.01709,-0.3076172,0,-1,-8,-10,-29,-3,-1,1,8,-1,-3,6,-9,-8,-38,-8,-1.75,-1.75,-1.75,-64.375,-64.375,-64.375,1.778179,4.201311,4.112239,7.919813,5.443303,1.93183,0.07679718,0.06372571,1.593786,-0.003727561,0.07883246,1.591332,0.01843261,0.4354317,1.726507,0.1133912,0.01094101,1.545256,0.02346344,0.1270019,1.615905,0.01896275,-0.03536581,1.7355,0.02429893,-0.3583076,1.71465,-0.12478,0.1626377,1.668473,-0.05523989,-0.3494559,1.667329,-0.1602582,-0.05492291,1.597762,0.2161268,-0.02393072,1.595064,NA,NA,NotTracked,NotTracked,
0.4897461,-0.7993164,-0.3730469,-0.1347656,0.9760742,-0.3022461,-2,-4,2,-3,-14,-3,-4,-4,-4,1,1,-8,11,2,-12,5,1.125,1.125,1.125,23.6875,23.6875,23.6875,1.776212,4.200394,4.121847,7.866228,5.259912,1.903437,0.1315279,0.03989176,1.597441,-0.005203315,0.06014316,1.587774,0.01847357,0.4355134,1.728121,0.1569265,-0.0116461,1.538423,0.0007790753,0.1111087,1.606182,0.01881337,-0.03540491,1.735652,0.02423286,-0.3583114,1.71453,-0.1259218,0.1624163,1.66851,-0.05528784,-0.349456,1.667297,-0.1570906,-0.05555045,1.59673,0.2115305,-0.02486705,1.594393,NA,NA,NotTracked,NotTracked,
0.4716797,-0.7949219,-0.3691406,0.06396484,0.9008789,-0.175293,1,2,4,-7,1,-1,-2,1,1,-1,-4,1,-12,-5,-7,5,9.5625,9.5625,9.5625,-6.25,-6.25,-6.25,1.782274,4.204946,4.134898,7.840802,5.126853,1.839103,0.01684522,0.1538611,1.449776,-0.004623295,0.05281224,1.585851,0.01819098,0.4354435,1.729281,0.04065686,0.1025701,1.390296,0.004637582,0.1040132,1.606536,0.01858747,-0.03546533,1.735851,0.024088,-0.3583669,1.71438,-0.1324784,0.1611282,1.672529,-0.0554752,-0.3495767,1.667392,-0.1497708,-0.05641317,1.593508,0.2062955,-0.0277228,1.597699,NA,NA,NotTracked,NotTracked,
0.465332,-0.7836914,-0.418457,0.1005859,1.005371,-0.1567383,-1,-1,0,-8,-13,-6,-5,-2,-3,0,2,23,-18,-17,-16,1,3.6875,3.6875,3.6875,2.5625,2.5625,2.5625,1.787623,4.211074,4.155792,7.865896,4.947958,1.761231,0.1239929,-0.003003816,1.564342,-0.09582165,0.01023388,1.550971,0.0177995,0.4355378,1.730081,0.1640753,-0.01225864,1.533273,-0.06602338,0.06637397,1.58592,0.01826822,-0.03550944,1.736202,0.02381768,-0.358425,1.714422,-0.1326194,0.1614803,1.672779,-0.05580211,-0.3497382,1.667718,-0.1479436,-0.0559631,1.592892,0.2056375,-0.03063335,1.601251,NA,NA,NotTracked,NotTracked,
0.4301758,-0.8056641,-0.3950195,0.002929688,1.200195,-0.1547852,0,-1,3,-29,-2,1,0,-1,0,-2,-2,-12,1,4,8,6,5.1875,5.1875,5.1875,-24.9375,-24.9375,-24.9375,1.789456,4.212917,4.159611,7.845884,4.855597,1.709919,0.1220458,-0.02929438,1.58139,-0.08537346,-0.01894563,1.539049,0.01736313,0.4356045,1.730518,0.1219008,0.000640913,1.543656,-0.06581604,0.03449908,1.585277,0.0178504,-0.03553794,1.736515,0.02339311,-0.3584589,1.714471,-0.1369096,0.1623522,1.67651,-0.05628548,-0.3498168,1.6681,-0.1480149,-0.05519908,1.592819,0.2075277,-0.03316724,1.604888,NA,NA,NotTracked,NotTracked,
0.4155273,-0.8808594,-0.3691406,0.03173828,0.9560547,-0.1430664,-3,-1,1,4,37,-3,-2,-1,-10,5,-2,-9,-21,-4,-6,3,31.8125,31.8125,31.8125,-14.1875,-14.1875,-14.1875,1.857386,4.207716,4.148025,7.806173,4.854382,1.677391,0.1278881,-0.03101007,1.565488,-0.08457677,-0.03612541,1.527543,0.01688338,0.4358174,1.731095,0.09138967,0.005780347,1.58,-0.06255414,0.01305174,1.583091,0.01738115,-0.03546249,1.736903,0.02288586,-0.3583951,1.714705,-0.1382777,0.1629086,1.677992,-0.05691653,-0.3496965,1.669113,-0.1498228,-0.05444251,1.593531,0.2110729,-0.03545941,1.608994,NA,NA,NotTracked,NotTracked,
0.5063477,-0.7739258,-0.3857422,0.03662109,0.9433594,-0.2324219,-2,-2,0,0,10,0,-6,-1,-12,-3,-1,1,0,0,-4,3,-14.9375,-14.9375,-14.9375,-14.9375,-14.9375,-14.9375,1.862316,4.197061,4.145434,7.789066,4.888843,1.675162,0.1239893,-0.03190925,1.567498,-0.08737604,-0.03993116,1.527086,0.01649741,0.4359464,1.73145,0.1000984,0.001460803,1.570333,-0.07114391,0.004248389,1.578786,0.01695775,-0.03540326,1.737107,0.0224088,-0.3583115,1.714858,-0.1402796,0.162447,1.6792,-0.05741068,-0.3495884,1.669722,-0.1504618,-0.05434944,1.593596,0.2133806,-0.03763055,1.613203,NA,NA,NotTracked,NotTracked,
0.5004883,-0.8334961,-0.3740234,0.128418,0.9477539,-0.2128906,-1,-4,-4,-7,1,-3,0,-2,-4,-3,-3,1,0,2,9,12,-11.4375,-11.4375,-11.4375,-14,-14,-14,1.832615,4.202127,4.131209,7.776244,4.904533,1.643696,0.1135331,-0.04015054,1.587687,-0.0890399,-0.03778585,1.526618,0.01629627,0.4360628,1.731716,0.113004,-0.002649294,1.561029,-0.07180866,0.008618434,1.579715,0.01655948,-0.03539835,1.737483,0.02203202,-0.3582883,1.7153,-0.141111,0.1621459,1.6798,-0.05767806,-0.3495958,1.670217,-0.1504936,-0.05426602,1.593458,0.2142491,-0.0382625,1.617141,NA,NA,NotTracked,NotTracked,
0.4648438,-0.8657227,-0.2763672,0.2114258,0.8886719,-0.1630859,-3,-3,0,-2,1,-3,-3,1,1,4,0,0,-1,-2,-3,-1,-12.6875,-12.6875,-12.6875,-27.9375,-27.9375,-27.9375,1.804337,4.202753,4.113876,7.74872,4.90051,1.557325,0.07491252,-0.03376113,1.576714,-0.08667788,-0.03543135,1.521391,0.01620838,0.4361434,1.731869,0.06144204,0.007241889,1.557555,-0.0708712,0.01052371,1.572333,0.01628587,-0.03539477,1.737817,0.02186363,-0.3583337,1.715741,-0.1418643,0.1621384,1.680007,-0.05772205,-0.3496541,1.670647,-0.1505508,-0.05417525,1.593274,0.2157759,-0.03955554,1.620947,NA,NA,NotTracked,NotTracked,
0.6015625,-0.7036133,-0.2724609,0.2319336,0.8857422,-0.1044922,4,-4,-4,-10,-3,-4,-3,-2,-1,-4,-2,0,-6,-10,-8,28,33.5625,33.5625,33.5625,-35.9375,-35.9375,-35.9375,1.835793,4.193485,4.166113,7.702997,4.876176,1.406638,0.09697765,-0.02911137,1.55052,-0.04055167,-0.03227764,1.499572,0.01619069,0.4363311,1.731967,0.0923604,-0.01445283,1.5318,-0.04834926,-0.07604679,1.527,0.01582686,-0.03523707,1.738031,0.02166341,-0.3582659,1.71623,-0.1406205,0.1627646,1.678726,-0.05778531,-0.3496132,1.671175,-0.1507188,-0.05429326,1.593373,0.2203141,-0.04226461,1.627652,NA,NA,NotTracked,NotTracked,
0.6035156,-0.7172852,-0.2773438,0.21875,0.9003906,-0.04296875,-1,0,1,2,2,0,3,1,6,3,1,3,1,1,8,18,54.75,54.75,54.75,-39.1875,-39.1875,-39.1875,1.861388,4.177713,4.228731,7.641769,4.783384,1.145241,0.0814654,-0.03784286,1.527217,-0.01526949,-0.04864624,1.476861,0.01624899,0.4366106,1.731964,0.07716471,-0.0179757,1.5118,-0.02383652,-0.09682406,1.528375,0.01547102,-0.03506988,1.738144,0.02157656,-0.3580367,1.716644,-0.139291,0.163094,1.677773,-0.05774548,-0.3494055,1.671396,-0.1598864,-0.05518665,1.60159,0.2264485,-0.0450318,1.636216,NA,NA,NotTracked,NotTracked,
0.6235352,-0.6508789,-0.2456055,0.2089844,0.940918,0.01904297,3,1,-3,5,4,2,2,3,15,1,2,1,0,9,26,37,62.25,62.25,62.25,-58.125,-58.125,-58.125,1.890567,4.145207,4.313003,7.58853,4.631537,0.9147105,0.02003828,-0.07994905,1.44955,0.03808264,-0.08282027,1.451876,0.01633959,0.4369797,1.731925,0.04088703,-0.120125,1.450071,0.0338992,-0.1211957,1.446437,0.0150885,-0.0349523,1.737967,0.02139593,-0.3579659,1.716695,-0.1455121,0.1624677,1.681833,-0.05784131,-0.3493539,1.67143,-0.1990825,-0.1095364,1.591405,0.2330739,-0.04736054,1.6492,NA,NA,NotTracked,NotTracked,
0.6064453,-0.7084961,-0.2128906,0.2475586,0.9360352,0.04931641,-2,1,-1,1,1,0,-2,-1,-1,-2,0,0,-5,-6,-1,-3,72.25,72.25,72.25,-62.0625,-62.0625,-62.0625,1.926695,3.930197,4.64429,7.564772,4.413595,0.66546,-0.02403286,-0.1805953,1.555009,0.08113097,-0.1446435,1.451726,0.01655971,0.437546,1.73143,-0.08287731,-0.1816901,1.527038,0.0737791,-0.1163888,1.403735,0.01502679,-0.03502223,1.737819,0.02156427,-0.3586357,1.717167,-0.1504986,0.1619395,1.685833,-0.05729074,-0.3503256,1.672245,-0.2078758,-0.05554086,1.640254,0.2470244,-0.05019913,1.671423,NA,NA,NotTracked,NotTracked,
0.6708984,-0.8051758,-0.1474609,0.4511719,0.8500977,0.1000977,-4,-3,-1,-1,-3,0,1,-1,3,2,-1,2,-8,6,1,-19,72.75,72.75,72.75,-83.625,-83.625,-83.625,1.899979,3.749686,4.855892,7.550841,4.039159,0.3357094,-0.01294988,-0.2919045,1.536969,0.1425786,-0.2126902,1.460423,0.01727169,0.4382982,1.729669,-0.04650776,-0.3342459,1.526959,0.1056259,-0.1744228,1.446565,0.01411379,-0.03555325,1.736371,0.01989432,-0.3601067,1.716674,-0.1542716,0.1623967,1.688591,-0.05831977,-0.3515989,1.672122,-0.2203993,-0.05366861,1.653966,0.2724167,-0.05043308,1.704199,NA,NA,NotTracked,NotTracked,
0.6943359,-0.7099609,-0.1318359,0.6030273,0.75,0.08642578,-5,2,3,4,4,6,4,0,-5,-1,0,-1,3,2,3,-27,101.6875,101.6875,101.6875,-62.125,-62.125,-62.125,1.849893,3.448433,5.18916,7.564905,3.747281,0.129942,-0.09522504,-0.315214,1.55652,0.1960915,-0.2706353,1.500877,0.01842289,0.4391139,1.727622,-0.1200744,-0.3623129,1.537456,0.1643709,-0.287892,1.501555,0.01356625,-0.03577545,1.733867,0.01829479,-0.361003,1.714605,-0.1574955,0.1616686,1.691446,-0.06056511,-0.3522808,1.670545,-0.2286109,-0.06021736,1.670342,0.2630523,-0.05525739,1.724601,NA,NA,Unknown,Unknown,
0.8774414,-0.6577148,-0.1523438,0.8793945,0.6020508,0.04394531,-2,0,3,3,4,4,4,-6,1,1,1,-3,-11,1,-1,-13,116.0625,116.0625,116.0625,-70.5,-70.5,-70.5,1.729717,3.209266,5.533514,7.63196,3.387756,9.851299,-0.1463631,-0.3796265,1.574604,0.2262527,-0.327046,1.54566,0.0199214,0.4399429,1.725354,-0.1892439,-0.3821178,1.582333,0.1881953,-0.3196177,1.507171,0.01525452,-0.03580093,1.731756,0.02270844,-0.3616748,1.713035,-0.1584774,0.1616208,1.692966,-0.05743876,-0.3537182,1.669416,-0.2294616,-0.07095865,1.687738,0.2599219,-0.07023447,1.734181,NA,NA,NotTracked,Unknown,
0.9077148,-0.546875,-0.1928711,0.9667969,0.5014648,0.0078125,1,0,-6,-1,-1,1,0,-14,1,-3,-2,-5,-5,-11,-2,28,139.0625,139.0625,139.0625,-60.875,-60.875,-60.875,1.620218,3.074511,5.815434,7.713572,3.172816,9.641938,-0.1870926,-0.3914903,1.613482,0.2420584,-0.3818665,1.58755,0.02177002,0.4407257,1.723216,-0.2212549,-0.3961526,1.604652,0.2099621,-0.380253,1.54344,0.01546876,-0.03586235,1.731069,0.02285274,-0.3618883,1.713252,-0.1590321,0.1616219,1.694173,-0.05732312,-0.3539344,1.66988,-0.2246376,-0.08089503,1.702928,0.2582117,-0.08519949,1.741477,NA,NA,NotTracked,Unknown,
0.972168,-0.190918,-0.1826172,0.9956055,0.3452148,-0.01269531,3,-3,5,0,1,-3,-2,5,-1,-3,-4,-3,-2,-1,0,-4,94.0625,94.0625,94.0625,-73.5,-73.5,-73.5,1.119318,2.838359,6.693423,7.78832,3.009595,9.437183,-0.2053615,-0.400659,1.650047,0.2430801,-0.4089302,1.629995,0.02365473,0.4415637,1.721743,-0.2393481,-0.3944005,1.642546,0.2180326,-0.4112929,1.589,0.0156237,-0.03572494,1.730345,0.02304167,-0.3619854,1.71369,-0.1590645,0.1616667,1.695505,-0.05725012,-0.3539329,1.670377,-0.2213808,-0.09458737,1.71536,0.2545206,-0.1000007,1.748539,NA,NA,NotTracked,NotTracked,
0.9902344,-0.1333008,-0.1665039,0.9995117,0.2670898,-0.04150391,8,1,-1,-3,-3,-1,-2,1,-1,-1,0,0,-1,5,3,-8,64.8125,64.8125,64.8125,-51,-51,-51,0.7896354,2.775913,7.151235,7.843657,2.895556,9.275066,-0.2114,-0.4138493,1.675279,0.231152,-0.4222531,1.661947,0.02528512,0.4423996,1.720437,-0.2412725,-0.3795822,1.677067,0.1975244,-0.4344878,1.63145,0.01552582,-0.03542383,1.729399,0.02268455,-0.3619359,1.714182,-0.1589711,0.162334,1.696665,-0.05778385,-0.3537022,1.671135,-0.218927,-0.100934,1.725922,0.2473497,-0.1049918,1.756552,NA,NA,NotTracked,NotTracked,
