ALX,ALY,ALZ,ARX,ARY,ARZ,EMG0L,EMG1L,EMG2L,EMG3L,EMG4L,EMG5L,EMG6L,EMG7L,EMG0R,EMG1R,EMG2R,EMG3R,EMG4R,EMG5R,EMG6R,EMG7R,GLX,GLY,GLZ,GRX,GRY,GRZ,ORL,OPL,OYL,ORR,OPR,OYR,LHNX,LHNY,LHNZ,RHNX,RHNY,RHNZ,HX,HY,HZ,LTX,LTY,LTZ,RTX,RTY,RTZ,SpineMidX,SpineMidY,SpineMidZ,SpineBaseX,SpineBaseY,SpineBaseZ,ShoulderLeftX,ShoulderLeftY,ShoulderLeftZ,ShoulderRightX,ShoulderRightY,ShoulderRightZ,ElbowLeftX,ElbowLeftY,ElbowLeftZ,ElbowRightX,ElbowRightY,ElbowRightZ,Myo_Pose_left,Myo_Pose_Right,Kinect_pose_left,Kinect_pose_right
0.9482422,-0.2231445,-0.2094727,0.8808594,0.4165039,-0.02880859,-6,-2,-3,6,1,0,-1,-2,-1,0,-1,0,-3,-5,-5,3,5.3125,5.3125,5.3125,0.8125,0.8125,0.8125,1.310431,2.961882,5.539842,7.593166,3.212719,8.61549,-0.1688638,-0.3335777,1.661347,0.2772219,-0.3368857,1.64747,0.07340718,0.4401661,1.704805,-0.1249143,-0.3314705,1.630958,0.3063482,-0.3587463,1.641889,0.05677855,-0.0332444,1.723465,0.05941398,-0.3569098,1.712946,-0.1150106,0.1795547,1.722909,-0.02129744,-0.3489562,1.673759,-0.1755993,-0.07501637,1.744832,0.2860129,-0.09256411,1.79315,NA,NA,NotTracked,NotTracked,
0.9482422,-0.2231445,-0.2094727,0.8759766,0.4125977,-0.03417969,-6,-2,-3,6,1,0,-1,-2,0,-2,-2,-2,-3,-2,-7,2,5.3125,5.3125,5.3125,4.125,4.125,4.125,1.310431,2.961882,5.539842,7.591229,3.213294,8.625079,-0.1678156,-0.3333734,1.660467,0.2766598,-0.3363699,1.645427,0.07368559,0.440133,1.704139,-0.125701,-0.3405768,1.623828,0.3056307,-0.3574461,1.639686,0.05702761,-0.03316024,1.72245,0.05942404,-0.3567167,1.711869,-0.1145246,0.1795059,1.721844,-0.02124331,-0.3487248,1.67262,-0.1756051,-0.07487117,1.744064,0.2864023,-0.09306989,1.791478,NA,NA,NotTracked,NotTracked,
0.9482422,-0.2231445,-0.2094727,0.8764648,0.4140625,-0.03076172,-6,-2,-3,6,1,0,-1,-2,-3,-3,-6,-5,-7,-14,-36,-6,5.3125,5.3125,5.3125,6.4375,6.4375,6.4375,1.310431,2.961882,5.539842,7.591517,3.213109,8.636126,-0.168531,-0.3344164,1.658998,0.2766462,-0.3389568,1.643788,0.07400146,0.4402095,1.703691,-0.1283365,-0.3127949,1.6665,0.3049683,-0.3598863,1.629476,0.05709058,-0.03316684,1.721991,0.05926126,-0.3567224,1.711018,-0.1141931,0.1796723,1.721316,-0.02137877,-0.3486923,1.67187,-0.1753248,-0.0748214,1.743498,0.2868589,-0.09324399,1.790468,NA,NA,NotTracked,NotTracked,
0.9482422,-0.2231445,-0.2094727,0.8847656,0.4208984,-0.0234375,-6,-2,-3,6,1,0,-1,-2,2,1,3,-2,3,5,12,16,5.3125,5.3125,5.3125,7.0625,7.0625,7.0625,1.310431,2.961882,5.539842,7.590685,3.212636,8.649319,-0.1681503,-0.3346127,1.6597,0.2766611,-0.3386112,1.643583,0.07428157,0.4403306,1.703419,-0.1254468,-0.3380515,1.624806,0.305272,-0.3540621,1.637349,0.05725729,-0.03303394,1.721561,0.059284,-0.3566625,1.710471,-0.1139222,0.1796658,1.721018,-0.02131986,-0.3485631,1.671362,-0.1751851,-0.07439785,1.743111,0.2873918,-0.09342378,1.789613,NA,NA,NotTracked,NotTracked,
0.9482422,-0.2231445,-0.2094727,0.8745117,0.40625,-0.02685547,-6,-2,-3,6,1,0,-1,-2,-2,-2,-2,-1,-4,0,-10,-19,5.3125,5.3125,5.3125,3.6875,3.6875,3.6875,1.310431,2.961882,5.539842,7.585922,3.213146,8.666499,-0.1685355,-0.333214,1.661438,0.2766483,-0.3388581,1.644034,0.07455282,0.4404054,1.703295,-0.1260665,-0.3372859,1.627222,0.3059756,-0.3523594,1.638097,0.05733819,-0.03301588,1.721304,0.05917845,-0.3566367,1.710037,-0.1136361,0.1798005,1.721003,-0.02143341,-0.3484922,1.671072,-0.1749816,-0.07441205,1.743043,0.2877648,-0.09363507,1.788762,NA,NA,NotTracked,NotTracked,
0.9482422,-0.2231445,-0.2094727,0.8798828,0.4233398,-0.02539063,-6,-2,-3,6,1,0,-1,-2,0,1,0,0,3,4,2,3,5.3125,5.3125,5.3125,4.6875,4.6875,4.6875,1.310431,2.961882,5.539842,7.585325,3.212342,8.676335,-0.1686368,-0.3334743,1.661614,0.27633,-0.3387263,1.643188,0.07480361,0.4404103,1.703357,-0.1269615,-0.2998755,1.6615,0.305875,-0.3536682,1.633842,0.05737978,-0.03302385,1.721196,0.05908614,-0.3566616,1.709782,-0.11342,0.1798392,1.72103,-0.0215103,-0.3484718,1.670888,-0.1748256,-0.07434813,1.743042,0.2882408,-0.09385352,1.788067,NA,NA,NotTracked,NotTracked,
0.9482422,-0.2231445,-0.2094727,0.8793945,0.4169922,-0.01513672,-6,-2,-3,6,1,0,-1,-2,-1,-1,0,2,2,1,-10,-5,5.3125,5.3125,5.3125,1.625,1.625,1.625,1.310431,2.961882,5.539842,7.580708,3.211991,8.685464,-0.1679406,-0.3338214,1.6629,0.2768506,-0.3390941,1.643459,0.07507839,0.440453,1.703692,-0.1254555,-0.3375432,1.629794,0.3061155,-0.3534353,1.635734,0.05746337,-0.03300068,1.721191,0.05905187,-0.3566456,1.709732,-0.1129819,0.179948,1.721198,-0.02155531,-0.3484355,1.670861,-0.174765,-0.07451989,1.743122,0.2886328,-0.09409929,1.787772,NA,NA,NotTracked,NotTracked,
0.9482422,-0.2231445,-0.2094727,0.9931641,0.3369141,-0.2231445,-6,-2,-3,6,1,0,-1,-2,-4,-4,1,-2,15,3,1,1,5.3125,5.3125,5.3125,9.125,9.125,9.125,1.310431,2.961882,5.539842,7.568523,3.219535,8.707721,-0.168617,-0.333267,1.666031,0.2778937,-0.3369288,1.642422,0.07525285,0.4404616,1.7041,-0.1259688,-0.3367093,1.631687,0.3136971,-0.3522562,1.634681,0.05760284,-0.03292983,1.721327,0.0590586,-0.3566051,1.709753,-0.1124741,0.1801183,1.721859,-0.02155164,-0.3483914,1.670906,-0.174474,-0.07473194,1.743616,0.2898076,-0.09380209,1.787785,NA,NA,NotTracked,NotTracked,
0.9482422,-0.2231445,-0.2094727,0.9667969,0.5688477,-0.08105469,-6,-2,-3,6,1,0,-1,-2,-1,-11,7,30,-9,0,-2,-3,5.3125,5.3125,5.3125,40,40,40,1.310431,2.961882,5.539842,7.579534,3.312874,8.73259,-0.1680202,-0.3325929,1.667408,0.2846167,-0.3233452,1.631322,0.07516217,0.4407186,1.705724,-0.1260853,-0.3375043,1.631579,0.3251066,-0.3385672,1.62265,0.05769787,-0.03281663,1.721636,0.05889214,-0.3565671,1.709886,-0.1121656,0.1802513,1.722643,-0.0217739,-0.3483354,1.671229,-0.1741847,-0.07458533,1.744233,0.2947751,-0.09059209,1.789922,NA,NA,NotTracked,NotTracked,
0.9482422,-0.2231445,-0.2094727,0.715332,0.902832,-0.1445313,-6,-2,-3,6,1,0,-1,-2,-2,-2,4,0,3,2,1,6,5.3125,5.3125,5.3125,16.4375,16.4375,16.4375,1.310431,2.961882,5.539842,7.669738,3.534497,8.697934,-0.1690199,-0.3334158,1.669166,0.2976597,-0.2946824,1.616352,0.07474909,0.4410686,1.707866,-0.1257777,-0.3354524,1.63558,0.34593,-0.3114305,1.611167,0.05775482,-0.03251921,1.722275,0.0584503,-0.356212,1.710404,-0.111777,0.1809575,1.723753,-0.02225108,-0.3479183,1.671887,-0.1738869,-0.07449804,1.744879,0.3054668,-0.07246536,1.794899,NA,NA,NotTracked,NotTracked,
0.9482422,-0.2231445,-0.2094727,0.590332,0.8369141,-0.1782227,-6,-2,-3,6,1,0,-1,-2,6,-9,-4,9,3,1,1,-4,5.3125,5.3125,5.3125,9.3125,9.3125,9.3125,1.310431,2.961882,5.539842,7.701909,3.709734,8.67237,-0.1696389,-0.3329922,1.671557,0.3143167,-0.2346459,1.576261,0.0742827,0.4411847,1.710249,-0.1243972,-0.3176328,1.650562,0.3506056,-0.2333477,1.55332,0.05755979,-0.03221614,1.723485,0.05763623,-0.3557695,1.711477,-0.1117318,0.1812406,1.724732,-0.02315982,-0.3474528,1.673175,-0.173742,-0.07451137,1.74596,0.3144377,-0.05097744,1.796439,NA,NA,NotTracked,Unknown,
0.9482422,-0.2231445,-0.2094727,0.5893555,0.9360352,-0.08740234,-6,-2,-3,6,1,0,-1,-2,19,10,4,-3,1,3,11,25,5.3125,5.3125,5.3125,5.3125,5.3125,5.3125,1.310431,2.961882,5.539842,7.74013,4.027757,8.621388,-0.16947,-0.3322915,1.671438,0.3092946,-0.1479209,1.507099,0.07372349,0.4415216,1.71353,-0.1254949,-0.3325238,1.642903,0.349032,-0.1269023,1.503517,0.05727917,-0.03206716,1.725603,0.05677014,-0.3556553,1.713118,-0.1118506,0.1811375,1.725989,-0.02401002,-0.3472696,1.674789,-0.1742459,-0.07466929,1.747249,0.3236292,-0.03652707,1.792939,NA,NA,NotTracked,Open,
0.9482422,-0.2231445,-0.2094727,-0.00390625,1.065918,0.03857422,-6,-2,-3,6,1,0,-1,-2,-10,-20,-10,-14,-2,-5,-9,-5,5.3125,5.3125,5.3125,-11.125,-11.125,-11.125,1.310431,2.961882,5.539842,7.725366,4.684783,8.63369,-0.169624,-0.333176,1.670102,0.2856365,-0.02291126,1.454739,0.0735202,0.4415928,1.716033,-0.1253598,-0.3322271,1.640308,0.3114347,-0.03426087,1.4225,0.05709187,-0.03199722,1.727696,0.05668166,-0.3557742,1.714626,-0.112197,0.1807175,1.726892,-0.02413476,-0.3473411,1.676,-0.174632,-0.07425908,1.747759,0.3355048,-0.03294781,1.786294,NA,NA,NotTracked,Closed,
0.9482422,-0.2231445,-0.2094727,-0.15625,1.119141,0.0859375,-6,-2,-3,6,1,0,-1,-2,2,-14,-10,-3,-1,-5,-9,-9,5.3125,5.3125,5.3125,-18.9375,-18.9375,-18.9375,1.310431,2.961882,5.539842,7.68824,5.126827,8.706919,-0.1688281,-0.3334711,1.669446,0.2705155,0.1025746,1.458819,0.07366822,0.4418723,1.720711,-0.125795,-0.3352464,1.639747,0.2522028,0.0812675,1.417333,0.05696081,-0.03195271,1.731574,0.05690016,-0.355999,1.717298,-0.1123408,0.1801924,1.728339,-0.02407417,-0.3475327,1.677723,-0.1747936,-0.07412542,1.748024,0.3741482,-0.07656175,1.729913,NA,NA,NotTracked,Unknown,
0.9482422,-0.2231445,-0.2094727,-0.3222656,1.006348,0.01513672,-6,-2,-3,6,1,0,-1,-2,1,-16,-10,-8,-1,-2,-3,-6,5.3125,5.3125,5.3125,-3.6875,-3.6875,-3.6875,1.310431,2.961882,5.539842,7.709515,5.699299,8.852401,-0.1690538,-0.3343873,1.669901,0.2487926,0.1913396,1.496889,0.07404408,0.4414288,1.724924,-0.1257362,-0.3369277,1.637401,0.260772,0.2101472,1.451,0.05711194,-0.03210182,1.734662,0.05685002,-0.3564597,1.719523,-0.1126168,0.1798652,1.730639,-0.02435976,-0.3477054,1.679667,-0.1746989,-0.0737774,1.748299,0.3470218,-0.02489201,1.67837,NA,NA,NotTracked,Closed,
0.9482422,-0.2231445,-0.2094727,-0.4038086,0.9052734,-0.05273438,-6,-2,-3,6,1,0,-1,-2,-18,-5,-4,-5,-8,-4,-5,1,5.3125,5.3125,5.3125,-13.5,-13.5,-13.5,1.310431,2.961882,5.539842,7.78037,6.066397,9.020644,-0.1688092,-0.3348419,1.671247,0.2203875,0.2570976,1.535529,0.07408544,0.4412546,1.728432,-0.1266026,-0.3420701,1.637633,0.2281853,0.3040533,1.52675,0.05739528,-0.03100501,1.737562,0.05703469,-0.3546513,1.721414,-0.1112784,0.179919,1.733029,-0.02484551,-0.3454256,1.68146,-0.1737877,-0.07081877,1.750006,0.3459994,-0.007737403,1.637759,NA,NA,NotTracked,Closed,
0.9482422,-0.2231445,-0.2094727,-0.512207,0.6791992,-0.1000977,-6,-2,-3,6,1,0,-1,-2,-12,-5,-5,-7,-3,-1,-13,-17,5.3125,5.3125,5.3125,-16.375,-16.375,-16.375,1.310431,2.961882,5.539842,7.904547,6.352825,9.252845,-0.170247,-0.3336016,1.674714,0.2017602,0.2898651,1.574291,0.07444523,0.4407135,1.730129,-0.1264502,-0.3384341,1.641734,0.2104293,0.3389352,1.566235,0.05752865,-0.02861115,1.739108,0.05685072,-0.3525008,1.723326,-0.1093945,0.1816327,1.73499,-0.02569407,-0.3426426,1.682997,-0.173242,-0.06662248,1.75234,0.3386639,0.02361606,1.591103,NA,NA,NotTracked,Unknown,
0.9482422,-0.2231445,-0.2094727,-0.5151367,0.5927734,-0.1743164,-6,-2,-3,6,1,0,-1,-2,7,-1,-7,-7,-2,-1,2,7,5.3125,5.3125,5.3125,-29.5,-29.5,-29.5,1.310431,2.961882,5.539842,8.095489,6.542838,9.541578,-0.1703577,-0.3334288,1.677328,0.1828132,0.3087193,1.605753,0.07481105,0.4397125,1.730934,-0.1263324,-0.3379457,1.643792,0.2001801,0.3526013,1.602118,0.05711224,-0.02751893,1.739313,0.05640636,-0.35204,1.724432,-0.1077155,0.181211,1.737506,-0.02670002,-0.3417207,1.684834,-0.1725287,-0.06532267,1.754883,0.3301533,0.04121597,1.567856,NA,NA,NotTracked,Unknown,
0.9482422,-0.2231445,-0.2094727,-0.5810547,0.3969727,-0.3408203,-6,-2,-3,6,1,0,-1,-2,-9,-1,-3,1,-5,-6,-20,-8,5.3125,5.3125,5.3125,-35.1875,-35.1875,-35.1875,1.310431,2.961882,5.539842,8.342183,6.640897,9.920727,-0.1704615,-0.3399704,1.678349,0.1786227,0.2999298,1.621028,0.07503574,0.4385207,1.732239,-0.12861,-0.3403881,1.645097,0.1842558,0.341739,1.60535,0.05943329,-0.0268726,1.742204,0.05588426,-0.3513907,1.725528,-0.107162,0.1810451,1.741303,-0.02773267,-0.3411005,1.687222,-0.172147,-0.0631424,1.759612,0.3248895,0.05125963,1.554439,NA,NA,NotTracked,Unknown,
0.9482422,-0.2231445,-0.2094727,-1.421387,0.3911133,-0.6557617,-6,-2,-3,6,1,0,-1,-2,-9,-9,-5,-9,3,5,15,3,5.3125,5.3125,5.3125,-6.25,-6.25,-6.25,1.310431,2.961882,5.539842,8.434841,6.658907,0.0878961,-0.1709605,-0.3407685,1.680928,0.1288401,0.3396125,1.635267,0.07445298,0.4376724,1.733971,-0.1313435,-0.3469914,1.643205,0.1709135,0.3441769,1.602941,0.06080819,-0.02590138,1.744154,0.05543583,-0.3507831,1.72655,-0.107084,0.1805121,1.74431,-0.0282857,-0.3407374,1.689352,-0.1718526,-0.06273311,1.764331,0.3220387,0.05158729,1.553777,NA,NA,NotTracked,NotTracked,
0.9482422,-0.2231445,-0.2094727,-1.584473,0.4882813,-0.640625,-6,-2,-3,6,1,0,-1,-2,2,5,-5,4,4,1,1,-2,5.3125,5.3125,5.3125,4.4375,4.4375,4.4375,1.310431,2.961882,5.539842,8.422756,6.661007,0.05868639,-0.1719393,-0.3408012,1.684105,0.1690774,0.3099201,1.611819,0.07366303,0.4371349,1.734789,-0.1312332,-0.3462936,1.645311,0.1912346,0.3498366,1.59975,0.0607266,-0.0261023,1.745669,0.05435494,-0.3513261,1.727632,-0.1074101,0.1798961,1.747326,-0.02961392,-0.3415138,1.691185,-0.1722656,-0.06174927,1.768585,0.3203045,0.05277059,1.547052,NA,NA,NotTracked,Unknown,
0.9482422,-0.2231445,-0.2094727,-0.5175781,0.6494141,-0.2255859,-6,-2,-3,6,1,0,-1,-2,-17,-4,4,0,-5,-19,-78,-13,5.3125,5.3125,5.3125,-21.9375,-21.9375,-21.9375,1.310431,2.961882,5.539842,8.284553,6.62264,9.921176,-0.1729031,-0.3407917,1.686186,0.1424621,0.3450959,1.629418,0.072758,0.436432,1.736079,-0.1341785,-0.3483104,1.645785,0.1823165,0.3405772,1.590369,0.06034362,-0.02612785,1.747119,0.05301609,-0.3515663,1.729075,-0.1080474,0.1806198,1.748914,-0.03095414,-0.3417462,1.692941,-0.1724401,-0.06279788,1.771424,0.3164595,0.05373941,1.543615,NA,NA,NotTracked,Unknown,
0.9482422,-0.2231445,-0.2094727,-0.2216797,0.5439453,0.2158203,-6,-2,-3,6,1,0,-1,-2,-17,-8,-1,-1,0,0,17,-1,5.3125,5.3125,5.3125,-13.5625,-13.5625,-13.5625,1.310431,2.961882,5.539842,8.308427,6.658023,9.987524,-0.1737902,-0.3401484,1.687263,0.1268338,0.3816279,1.643632,0.07208785,0.4358661,1.737096,-0.1338412,-0.3466854,1.648817,0.09367415,0.4460228,1.609945,0.06031047,-0.02592616,1.748456,0.05178588,-0.3514788,1.730448,-0.1087167,0.1808624,1.750078,-0.03221703,-0.3417343,1.694864,-0.1727936,-0.06343464,1.772878,0.3135469,0.05365091,1.542649,NA,NA,NotTracked,NotTracked,
0.9482422,-0.2231445,-0.2094727,-0.2963867,0.5180664,0.1430664,-6,-2,-3,6,1,0,-1,-2,1,13,3,0,-2,1,9,-3,5.3125,5.3125,5.3125,15.8125,15.8125,15.8125,1.310431,2.961882,5.539842,8.30405,6.691138,9.978154,-0.1756671,-0.3325981,1.691077,0.1629702,0.3071369,1.621582,0.07140077,0.4354546,1.737696,-0.1326985,-0.3382812,1.656167,0.1847734,0.3434098,1.602556,0.05896157,-0.02550465,1.748998,0.05082245,-0.3516958,1.731764,-0.1093903,0.1801905,1.751993,-0.03299169,-0.3420007,1.696245,-0.1732064,-0.063353,1.773479,0.3110858,0.05272394,1.542285,NA,NA,NotTracked,Unknown,
0.9482422,-0.2231445,-0.2094727,-0.527832,0.3579102,0.2089844,-6,-2,-3,6,1,0,-1,-2,3,0,-5,-9,-2,5,4,1,5.3125,5.3125,5.3125,2.125,2.125,2.125,1.310431,2.961882,5.539842,8.265295,6.672006,9.909032,-0.1754875,-0.3321045,1.691961,0.1274048,0.3877148,1.63875,0.07077242,0.4352248,1.738416,-0.1315922,-0.3330286,1.66375,0.1858362,0.3486741,1.598949,0.0584938,-0.02590816,1.750567,0.05008582,-0.3519558,1.732856,-0.1100684,0.180095,1.753119,-0.03363739,-0.3421756,1.697279,-0.1739682,-0.06328267,1.774577,0.3101557,0.05279928,1.541978,NA,NA,NotTracked,NotTracked,
0.9482422,-0.2231445,-0.2094727,-0.8432617,0.4384766,-0.2231445,-6,-2,-3,6,1,0,-1,-2,-19,-23,-10,-12,-9,-25,-46,-27,5.3125,5.3125,5.3125,-1.125,-1.125,-1.125,1.310431,2.961882,5.539842,8.281983,6.681602,9.936185,-0.1762555,-0.3325765,1.690751,0.1631964,0.3147332,1.627127,0.07026258,0.4349687,1.738949,-0.1322983,-0.3344731,1.657123,0.1898214,0.3440527,1.609195,0.05832995,-0.02594641,1.751514,0.0496513,-0.3518662,1.733603,-0.1101968,0.1817172,1.751973,-0.03397663,-0.3420266,1.697812,-0.174419,-0.06272537,1.7749,0.3093567,0.05252097,1.542065,NA,NA,NotTracked,Unknown,
0.9482422,-0.2231445,-0.2094727,-0.949707,0.4038086,-0.2319336,-6,-2,-3,6,1,0,-1,-2,-13,-17,-20,-17,1,-1,-11,-2,5.3125,5.3125,5.3125,19.8125,19.8125,19.8125,1.310431,2.961882,5.539842,8.283776,6.698882,9.911402,-0.175144,-0.3400979,1.686945,0.1552924,0.3303562,1.628274,0.06991729,0.434698,1.739129,-0.1328886,-0.3379802,1.654297,0.1963618,0.3415127,1.60781,0.05808673,-0.02612738,1.752144,0.04954394,-0.3518897,1.733908,-0.1109033,0.1805141,1.752886,-0.03409279,-0.3420876,1.698076,-0.1747192,-0.06290235,1.77511,0.3086377,0.05240265,1.543475,NA,NA,NotTracked,Unknown,
0.9482422,-0.2231445,-0.2094727,-0.7983398,0.4267578,-0.1904297,-6,-2,-3,6,1,0,-1,-2,-9,-15,-19,-18,-13,-27,-36,-7,5.3125,5.3125,5.3125,-1.8125,-1.8125,-1.8125,1.310431,2.961882,5.539842,8.235982,6.676867,9.838589,-0.1742836,-0.3400086,1.686205,0.1617333,0.3253983,1.629879,0.06973941,0.434541,1.739345,-0.1366565,-0.3492538,1.64717,0.1929183,0.3462634,1.607001,0.05773497,-0.02628666,1.752702,0.04954134,-0.3518204,1.734243,-0.1109258,0.1803416,1.753212,-0.03414246,-0.342049,1.69825,-0.1750881,-0.06304539,1.775166,0.308621,0.05205543,1.544882,NA,NA,NotTracked,Unknown,
0.9482422,-0.2231445,-0.2094727,-0.8164063,0.4204102,-0.2011719,-6,-2,-3,6,1,0,-1,-2,1,-6,-3,-2,0,-14,-21,7,5.3125,5.3125,5.3125,-2.75,-2.75,-2.75,1.310431,2.961882,5.539842,8.234226,6.683363,9.84406,-0.1766103,-0.3319968,1.68849,0.1687742,0.3122222,1.632994,0.06969343,0.4344547,1.739431,-0.1346959,-0.3397822,1.651723,0.1970817,0.3454977,1.620333,0.05760707,-0.02629474,1.753175,0.04963121,-0.3515586,1.734647,-0.1109327,0.182057,1.751528,-0.03407686,-0.3418757,1.698411,-0.1754926,-0.06350605,1.774837,0.3094449,0.05078409,1.54728,NA,NA,NotTracked,Unknown,
0.9482422,-0.2231445,-0.2094727,-0.6635742,0.4506836,-0.2626953,-6,-2,-3,6,1,0,-1,-2,1,-2,-2,-1,0,8,-1,3,5.3125,5.3125,5.3125,14.875,14.875,14.875,1.310431,2.961882,5.539842,8.216164,6.690413,9.795736,-0.1765665,-0.3324407,1.687315,0.1572336,0.3344139,1.628122,0.06960771,0.4343613,1.739543,-0.1340232,-0.3388233,1.650095,0.1983139,0.3351482,1.594809,0.05728609,-0.02658786,1.753631,0.04992094,-0.3514827,1.734887,-0.1119542,0.180952,1.752279,-0.03390776,-0.3418579,1.698392,-0.1758889,-0.06341752,1.774219,0.3133207,0.04243255,1.562194,NA,NA,NotTracked,Unknown,
0.9482422,-0.2231445,-0.2094727,-0.5332031,0.4731445,-0.2397461,-6,-2,-3,6,1,0,-1,-2,1,3,2,-2,-18,-13,-6,2,5.3125,5.3125,5.3125,23.75,23.75,23.75,1.310431,2.961882,5.539842,8.064509,6.601793,9.582211,-0.1762597,-0.3336343,1.684663,0.1883129,0.2856759,1.57428,0.06932686,0.4343874,1.739389,-0.1339031,-0.3402041,1.646445,0.1804301,0.2925416,1.534417,0.05647634,-0.02726186,1.753993,0.05043322,-0.3512198,1.735002,-0.1122988,0.1806333,1.752532,-0.03337178,-0.3416292,1.697974,-0.1763171,-0.06374333,1.773182,0.3188402,0.02514928,1.58633,NA,NA,NotTracked,Unknown,
0.9482422,-0.2231445,-0.2094727,-0.3867188,0.855957,-0.1669922,-6,-2,-3,6,1,0,-1,-2,1,3,5,2,-3,3,-8,3,5.3125,5.3125,5.3125,42.75,42.75,42.75,1.310431,2.961882,5.539842,7.833546,6.179635,9.126691,-0.1751859,-0.3361419,1.683755,0.2124424,0.2339205,1.528012,0.06838668,0.4342971,1.738723,-0.1337509,-0.3336415,1.655943,0.1994288,0.2383614,1.472318,0.05557521,-0.02803681,1.754133,0.05114393,-0.3511022,1.735013,-0.1141401,0.1796064,1.753297,-0.03250822,-0.3416219,1.697419,-0.1768343,-0.06499223,1.772091,0.3234139,-0.009814866,1.637233,NA,NA,NotTracked,Unknown,
0.9482422,-0.2231445,-0.2094727,-0.3720703,0.9174805,-0.03613281,-6,-2,-3,6,1,0,-1,-2,-4,-5,-3,-3,2,1,11,-2,5.3125,5.3125,5.3125,22.125,22.125,22.125,1.310431,2.961882,5.539842,7.765162,5.763695,8.949664,-0.1751271,-0.3369118,1.686855,0.2393094,0.1510321,1.480343,0.06683517,0.4339979,1.736875,-0.1322967,-0.3401134,1.653381,0.2452427,0.135395,1.438714,0.05336913,-0.03138285,1.754154,0.05111954,-0.3553779,1.735478,-0.1171394,0.1784189,1.754192,-0.03187521,-0.3465648,1.697737,-0.1780549,-0.06842714,1.771474,0.3322366,-0.03390785,1.692425,NA,NA,NotTracked,Unknown,
0.9482422,-0.2231445,-0.2094727,0.1816406,1.285156,0.8969727,-6,-2,-3,6,1,0,-1,-2,-4,-4,-2,10,-16,-12,-15,-4,5.3125,5.3125,5.3125,27.8125,27.8125,27.8125,1.310431,2.961882,5.539842,7.760706,5.170384,8.760873,-0.1745557,-0.3378027,1.688093,0.26637,0.04176321,1.451941,0.06516665,0.433382,1.732806,-0.1320113,-0.3395448,1.653959,0.2974091,0.04709262,1.430133,0.0527447,-0.03236374,1.753855,0.0514327,-0.3558657,1.735466,-0.1191787,0.1777326,1.754574,-0.03114661,-0.3476134,1.69764,-0.1783329,-0.07050502,1.771448,0.3296779,-0.03532625,1.702703,NA,NA,NotTracked,Closed,
0.9482422,-0.2231445,-0.2094727,0.1474609,1.28125,0.8813477,-6,-2,-3,6,1,0,-1,-2,-1,-4,-2,-4,2,-7,-1,-3,5.3125,5.3125,5.3125,17.9375,17.9375,17.9375,1.310431,2.961882,5.539842,7.770895,4.748207,8.63718,-0.1743425,-0.3365304,1.689818,0.293155,-0.07569023,1.470027,0.0632363,0.4320195,1.725789,-0.1328518,-0.338513,1.654666,0.3231972,-0.0593719,1.442191,0.05229798,-0.03367833,1.75261,0.05168182,-0.3563554,1.735198,-0.1204858,0.1770419,1.754345,-0.03066385,-0.3483369,1.697461,-0.1786805,-0.07227413,1.771587,0.359716,-0.0905127,1.721988,NA,NA,NotTracked,Unknown,
0.9482422,-0.2231445,-0.2094727,0.625,1.211426,-0.2001953,-6,-2,-3,6,1,0,-1,-2,-3,3,-2,-2,4,1,0,-2,5.3125,5.3125,5.3125,16.25,16.25,16.25,1.310431,2.961882,5.539842,7.829904,4.398331,8.532366,-0.1743132,-0.3365944,1.691451,0.3206258,-0.1719713,1.528026,0.06233854,0.4306526,1.719294,-0.1326639,-0.3406284,1.65429,0.3489666,-0.2273138,1.528636,0.05132845,-0.03492104,1.750706,0.05134654,-0.3568536,1.734642,-0.1209572,0.1768326,1.753796,-0.03085398,-0.3487542,1.697013,-0.1788798,-0.07378331,1.771378,0.3569375,-0.01589927,1.791319,NA,NA,NotTracked,Unknown,
0.9482422,-0.2231445,-0.2094727,0.4570313,0.9282227,-0.1157227,-6,-2,-3,6,1,0,-1,-2,10,1,1,3,2,1,1,6,5.3125,5.3125,5.3125,46.5625,46.5625,46.5625,1.310431,2.961882,5.539842,7.884691,4.112655,8.518352,-0.1748345,-0.3358871,1.691826,0.3311669,-0.240228,1.589545,0.06281897,0.4296927,1.712439,-0.1325466,-0.3381591,1.656215,0.3648534,-0.2134214,1.568175,0.05104849,-0.03576728,1.749045,0.05113782,-0.3570122,1.73428,-0.1211299,0.1767636,1.75245,-0.03093384,-0.3488789,1.696773,-0.1789059,-0.0746574,1.77133,0.3332485,-0.02907856,1.810013,NA,NA,NotTracked,Unknown,
0.9482422,-0.2231445,-0.2094727,0.08251953,0.8134766,-0.265625,-6,-2,-3,6,1,0,-1,-2,7,0,1,-3,0,0,-1,-4,5.3125,5.3125,5.3125,21.625,21.625,21.625,1.310431,2.961882,5.539842,7.906314,3.863875,8.585501,-0.1748862,-0.3358475,1.688283,0.319843,-0.2771248,1.634688,0.06438079,0.4275228,1.703489,-0.1330154,-0.3389277,1.654522,0.2693096,-0.2857529,1.662368,0.05104699,-0.03649393,1.746259,0.05108111,-0.3571849,1.733445,-0.1210629,0.1765724,1.749015,-0.03089624,-0.3490689,1.695917,-0.1784492,-0.07512241,1.770162,0.3307995,-0.04003447,1.815827,NA,NA,NotTracked,Unknown,
0.9482422,-0.2231445,-0.2094727,0.3276367,0.7275391,0.08789063,-6,-2,-3,6,1,0,-1,-2,-34,-5,-3,-1,-2,-8,2,-20,5.3125,5.3125,5.3125,-46,-46,-46,1.310431,2.961882,5.539842,7.858346,3.655017,8.57792,-0.1741632,-0.3361806,1.685333,0.2977969,-0.2983744,1.653702,0.06688701,0.426078,1.695997,-0.1346262,-0.3200428,1.688857,0.2480115,-0.292478,1.651038,0.05174179,-0.03725744,1.743374,0.05152189,-0.3575976,1.732496,-0.1201639,0.1769017,1.743708,-0.03021885,-0.3495093,1.694597,-0.1779094,-0.07548493,1.766523,0.3231246,-0.05508849,1.82354,NA,NA,NotTracked,NotTracked,
0.9482422,-0.2231445,-0.2094727,0.6108398,0.6435547,-0.1098633,-6,-2,-3,6,1,0,-1,-2,0,1,1,0,-3,0,-5,1,5.3125,5.3125,5.3125,-32.3125,-32.3125,-32.3125,1.310431,2.961882,5.539842,7.701982,3.460248,8.634292,-0.1741599,-0.3349259,1.67889,0.2866501,-0.3148515,1.651341,0.06958844,0.4247642,1.689065,-0.1312252,-0.3374012,1.64708,0.2317117,-0.2950747,1.630966,0.05253334,-0.03835705,1.73981,0.05252359,-0.3585406,1.730551,-0.1182875,0.1761336,1.736417,-0.02897619,-0.350391,1.691993,-0.1769098,-0.07558443,1.760216,0.3115687,-0.06925073,1.824793,NA,NA,NotTracked,NotTracked,
0.9482422,-0.2231445,-0.2094727,0.8129883,0.6503906,-0.1362305,-6,-2,-3,6,1,0,-1,-2,-1,-1,3,1,-5,0,7,1,5.3125,5.3125,5.3125,-60.375,-60.375,-60.375,1.310431,2.961882,5.539842,7.642945,3.396751,8.627388,-0.1736783,-0.3341825,1.674227,0.274491,-0.3306668,1.647323,0.07173739,0.4238283,1.683365,-0.1277503,-0.32681,1.659529,0.2227305,-0.2949826,1.621217,0.05356086,-0.03915631,1.736387,0.05376109,-0.3592993,1.728079,-0.1165985,0.1764244,1.730022,-0.02750573,-0.35112,1.688672,-0.176529,-0.0758481,1.753832,0.2980119,-0.08254476,1.821322,NA,NA,NotTracked,NotTracked,
0.9482422,-0.2231445,-0.2094727,0.8417969,0.4584961,-0.1796875,-6,-2,-3,6,1,0,-1,-2,0,1,0,-1,0,-9,3,-5,5.3125,5.3125,5.3125,-12.25,-12.25,-12.25,1.310431,2.961882,5.539842,7.532679,3.303321,8.69704,-0.1739919,-0.3346127,1.669007,0.2691406,-0.344287,1.649845,0.0735535,0.4229667,1.678294,-0.1286267,-0.3249441,1.650365,0.2316074,-0.323027,1.619583,0.05451095,-0.03931871,1.73341,0.05543013,-0.3593957,1.725359,-0.1159843,0.1763093,1.724163,-0.02554282,-0.3513488,1.684836,-0.1765579,-0.07609662,1.746855,0.2898247,-0.09009015,1.814418,NA,NA,NotTracked,NotTracked,
0.9482422,-0.2231445,-0.2094727,1.159668,0.2407227,-0.1835938,-6,-2,-3,6,1,0,-1,-2,-2,-2,-3,0,-2,-13,4,5,5.3125,5.3125,5.3125,-38.125,-38.125,-38.125,1.310431,2.961882,5.539842,7.61269,3.223798,8.53237,-0.17386,-0.3336633,1.660535,0.2707953,-0.3496341,1.645654,0.0748558,0.422423,1.673366,-0.1289928,-0.3250524,1.655013,0.2329914,-0.3224369,1.618719,0.05503689,-0.03964688,1.728671,0.05634345,-0.3596745,1.720884,-0.1157866,0.1763279,1.718547,-0.02444669,-0.3516458,1.679871,-0.176873,-0.07619166,1.740779,0.2841627,-0.09462149,1.807577,NA,NA,NotTracked,NotTracked,
0.9482422,-0.2231445,-0.2094727,0.7661133,0.4526367,-0.008300781,-6,-2,-3,6,1,0,-1,-2,0,-1,1,1,2,-11,2,5,5.3125,5.3125,5.3125,35.75,35.75,35.75,1.310431,2.961882,5.539842,7.608305,3.235374,8.570383,-0.1744476,-0.3347378,1.653907,0.2715401,-0.3495937,1.640887,0.07559749,0.4222938,1.669767,-0.1291026,-0.315566,1.657333,0.234242,-0.3343209,1.608769,0.05534228,-0.04002823,1.72334,0.05683999,-0.3603847,1.714878,-0.1154744,0.1761787,1.713895,-0.02387513,-0.3523087,1.674062,-0.1772209,-0.07505286,1.735537,0.2831063,-0.09532864,1.804467,NA,NA,NotTracked,NotTracked,
0.9482422,-0.2231445,-0.2094727,0.7905273,0.519043,0.03125,-6,-2,-3,6,1,0,-1,-2,-1,0,0,1,5,13,-2,0,5.3125,5.3125,5.3125,14.5,14.5,14.5,1.310431,2.961882,5.539842,7.625876,3.249492,8.595077,-0.1736067,-0.3344386,1.645622,0.2718015,-0.3496272,1.636211,0.07570302,0.4222129,1.664858,-0.1321791,-0.3198643,1.65825,0.2364566,-0.3322843,1.605037,0.05521079,-0.04006268,1.717377,0.05686306,-0.3604057,1.707153,-0.1157689,0.1760146,1.709083,-0.02394622,-0.3522548,1.66593,-0.1775177,-0.0746101,1.729919,0.2833309,-0.09578092,1.798472,NA,NA,NotTracked,NotTracked,
