ALX,ALY,ALZ,ARX,ARY,ARZ,EMG0L,EMG1L,EMG2L,EMG3L,EMG4L,EMG5L,EMG6L,EMG7L,EMG0R,EMG1R,EMG2R,EMG3R,EMG4R,EMG5R,EMG6R,EMG7R,GLX,GLY,GLZ,GRX,GRY,GRZ,ORL,OPL,OYL,ORR,OPR,OYR,LHNX,LHNY,LHNZ,RHNX,RHNY,RHNZ,HX,HY,HZ,LTX,LTY,LTZ,RTX,RTY,RTZ,SpineMidX,SpineMidY,SpineMidZ,SpineBaseX,SpineBaseY,SpineBaseZ,ShoulderLeftX,ShoulderLeftY,ShoulderLeftZ,ShoulderRightX,ShoulderRightY,ShoulderRightZ,ElbowLeftX,ElbowLeftY,ElbowLeftZ,ElbowRightX,ElbowRightY,ElbowRightZ,Myo_Pose_left,Myo_Pose_Right,Kinect_pose_left,Kinect_pose_right
0.9482422,-0.2231445,-0.2094727,0.8920898,0.3789063,-0.05126953,-6,-2,-3,6,1,0,-1,-2,0,-1,-1,-2,-3,-1,-9,1,5.3125,5.3125,5.3125,-1.125,-1.125,-1.125,1.310431,2.961882,5.539842,7.720666,3.133629,8.494658,-0.1684086,-0.3348953,1.64235,0.276239,-0.3657338,1.612389,0.07476927,0.4467289,1.682596,-0.1252162,-0.3349861,1.608366,0.2426704,-0.3536331,1.572531,0.05929633,-0.02901628,1.688194,0.05831478,-0.3543822,1.679642,-0.1096628,0.1813711,1.692843,-0.02205777,-0.346272,1.64221,-0.1680396,-0.07706751,1.716007,0.2908777,-0.09009409,1.744979,NA,NA,NotTracked,NotTracked,
0.9482422,-0.2231445,-0.2094727,0.894043,0.3774414,-0.05566406,-6,-2,-3,6,1,0,-1,-2,0,-1,0,1,0,1,10,7,5.3125,5.3125,5.3125,0.0625,0.0625,0.0625,1.310431,2.961882,5.539842,7.724875,3.128299,8.48658,-0.1690528,-0.3339937,1.648294,0.2747487,-0.3652579,1.616947,0.07394895,0.4467452,1.683966,-0.1262337,-0.338704,1.615263,0.2413606,-0.3530596,1.579416,0.05931994,-0.02906003,1.691236,0.0587846,-0.3542337,1.683519,-0.1103511,0.1814791,1.695452,-0.02162436,-0.3463009,1.6461,-0.1682533,-0.07678529,1.719087,0.2905186,-0.08951373,1.748274,NA,NA,NotTracked,NotTracked,
0.9482422,-0.2231445,-0.2094727,0.8920898,0.3735352,-0.05224609,-6,-2,-3,6,1,0,-1,-2,0,-2,-1,-1,1,1,-2,-1,5.3125,5.3125,5.3125,-0.5625,-0.5625,-0.5625,1.310431,2.961882,5.539842,7.728218,3.125552,8.481356,-0.1689027,-0.3345581,1.65061,0.2743451,-0.364995,1.618501,0.07312381,0.4466705,1.684685,-0.1265659,-0.3394415,1.61461,0.242131,-0.3532245,1.581246,0.05906643,-0.02916255,1.693592,0.05892153,-0.3543124,1.686778,-0.1109754,0.1816187,1.697109,-0.02155942,-0.3466038,1.649755,-0.1688185,-0.07644853,1.722133,0.2900277,-0.08866689,1.750599,NA,NA,NotTracked,NotTracked,
0.9482422,-0.2231445,-0.2094727,0.9033203,0.3774414,-0.05957031,-6,-2,-3,6,1,0,-1,-2,-2,-1,0,1,4,0,0,3,5.3125,5.3125,5.3125,-0.0625,-0.0625,-0.0625,1.310431,2.961882,5.539842,7.734394,3.120543,8.475273,-0.1683295,-0.3346178,1.653082,0.2741587,-0.365477,1.62091,0.07197245,0.4466733,1.685493,-0.124657,-0.3374496,1.6219,0.2423422,-0.3537563,1.580431,0.05876781,-0.02916617,1.695744,0.05882135,-0.3542352,1.689936,-0.1114855,0.1815633,1.698765,-0.02170426,-0.3466728,1.652625,-0.1693171,-0.07599993,1.724178,0.2896588,-0.0883919,1.752399,NA,NA,NotTracked,NotTracked,
0.9482422,-0.2231445,-0.2094727,0.8964844,0.3696289,-0.05615234,-6,-2,-3,6,1,0,-1,-2,1,0,-1,0,4,-3,5,0,5.3125,5.3125,5.3125,-0.0625,-0.0625,-0.0625,1.310431,2.961882,5.539842,7.736236,3.116795,8.472908,-0.1697182,-0.3340716,1.657024,0.2728896,-0.3647162,1.623788,0.0708685,0.4465995,1.686405,-0.1242381,-0.3263991,1.631378,0.2396742,-0.3540594,1.58518,0.0585898,-0.02917914,1.697864,0.05903552,-0.3539604,1.692857,-0.1123754,0.1813672,1.700251,-0.02145625,-0.3466827,1.655684,-0.1697332,-0.07595568,1.726221,0.2891991,-0.08787667,1.754116,NA,NA,NotTracked,NotTracked,
0.9482422,-0.2231445,-0.2094727,0.9780273,0.3193359,-0.1318359,-6,-2,-3,6,1,0,-1,-2,0,-5,-7,0,10,3,-1,1,5.3125,5.3125,5.3125,-8.4375,-8.4375,-8.4375,1.310431,2.961882,5.539842,7.730339,3.115982,8.474763,-0.1691701,-0.3342504,1.659298,0.2726696,-0.3634987,1.624274,0.06889962,0.446492,1.686947,-0.1249367,-0.331663,1.632838,0.2368635,-0.3539072,1.589061,0.05798372,-0.02915363,1.699788,0.05875089,-0.3537774,1.695339,-0.1132927,0.1811608,1.701723,-0.02176902,-0.3466988,1.658394,-0.1701956,-0.07594245,1.728393,0.2892389,-0.08694505,1.756209,NA,NA,NotTracked,NotTracked,
0.9482422,-0.2231445,-0.2094727,0.9301758,0.4873047,-0.1489258,-6,-2,-3,6,1,0,-1,-2,-2,-5,-2,1,-5,-2,-1,-1,5.3125,5.3125,5.3125,28.9375,28.9375,28.9375,1.310431,2.961882,5.539842,7.69061,3.219922,8.545587,-0.1696224,-0.3352433,1.662493,0.277182,-0.3573227,1.622662,0.06631128,0.4466747,1.688044,-0.1262373,-0.3409138,1.629516,0.2407536,-0.3407629,1.593702,0.05733745,-0.02897897,1.70188,0.05841938,-0.3536425,1.697892,-0.1143048,0.18127,1.703446,-0.02217909,-0.3466578,1.661015,-0.1710413,-0.07580718,1.730318,0.2918184,-0.08627271,1.760036,NA,NA,NotTracked,NotTracked,
0.9482422,-0.2231445,-0.2094727,0.875,0.9013672,-0.1689453,-6,-2,-3,6,1,0,-1,-2,-8,-27,-9,0,-9,-5,-3,-4,5.3125,5.3125,5.3125,54.625,54.625,54.625,1.310431,2.961882,5.539842,7.742177,3.373146,8.554016,-0.1699055,-0.3333981,1.665112,0.2877392,-0.3224259,1.614575,0.06420095,0.4468063,1.689019,-0.1258445,-0.3357282,1.632313,0.2418025,-0.3119543,1.606,0.05663674,-0.02876277,1.703442,0.05759143,-0.3532979,1.699928,-0.1162113,0.1814929,1.706155,-0.02306916,-0.3463493,1.663089,-0.1712834,-0.0752789,1.732005,0.2996621,-0.07733069,1.764986,NA,NA,NotTracked,NotTracked,
0.9482422,-0.2231445,-0.2094727,0.6430664,0.7509766,-0.1972656,-6,-2,-3,6,1,0,-1,-2,-15,-24,-5,4,5,2,1,-8,5.3125,5.3125,5.3125,-1.625,-1.625,-1.625,1.310431,2.961882,5.539842,7.727459,3.765757,8.594378,-0.1711203,-0.3332843,1.666865,0.3058257,-0.2453903,1.576484,0.06265385,0.4466698,1.690171,-0.1266852,-0.3344463,1.63332,0.2541341,-0.2721746,1.599313,0.05553994,-0.02842024,1.705346,0.05557252,-0.3526533,1.702159,-0.1170078,0.1819516,1.707799,-0.02521093,-0.3455663,1.6654,-0.171872,-0.07487161,1.734558,0.312968,-0.0487258,1.7685,NA,NA,NotTracked,Unknown,
0.9482422,-0.2231445,-0.2094727,0.2783203,1.058594,-0.0390625,-6,-2,-3,6,1,0,-1,-2,-13,-10,-2,-5,-7,-2,-5,-11,5.3125,5.3125,5.3125,34.6875,34.6875,34.6875,1.310431,2.961882,5.539842,7.778335,4.131532,8.584567,-0.1717414,-0.3311131,1.668061,0.2994712,-0.155953,1.503867,0.06171416,0.4462403,1.69141,-0.127646,-0.3337337,1.634632,0.3110333,-0.217896,1.506429,0.05420062,-0.02822621,1.70781,0.05381452,-0.3521466,1.704301,-0.1173176,0.1822447,1.709052,-0.02692422,-0.3449826,1.66754,-0.1729015,-0.07435322,1.736108,0.3212101,-0.02699965,1.767326,NA,NA,NotTracked,Unknown,
0.9482422,-0.2231445,-0.2094727,0.04101563,1.032715,0.1235352,-6,-2,-3,6,1,0,-1,-2,11,3,5,20,8,1,-1,3,5.3125,5.3125,5.3125,-8.5625,-8.5625,-8.5625,1.310431,2.961882,5.539842,7.746819,4.558303,8.636495,-0.172006,-0.3313668,1.665278,0.273275,-0.02686622,1.440005,0.06133583,0.4456283,1.692746,-0.126351,-0.3201614,1.643265,0.3022907,-0.03707745,1.412111,0.05358338,-0.02846948,1.710248,0.05324036,-0.3521318,1.705286,-0.1178127,0.1820931,1.709907,-0.02745439,-0.3448696,1.668171,-0.1738678,-0.07351805,1.736887,0.3623629,-0.004882723,1.757968,NA,NA,NotTracked,Unknown,
0.9482422,-0.2231445,-0.2094727,-0.1958008,1.120605,0.05322266,-6,-2,-3,6,1,0,-1,-2,14,-9,-4,-21,-5,1,6,5,5.3125,5.3125,5.3125,-11.4375,-11.4375,-11.4375,1.310431,2.961882,5.539842,7.715454,5.215567,8.749534,-0.1723294,-0.3309755,1.663881,0.2528655,0.1091477,1.440898,0.06152224,0.4446388,1.696637,-0.1281212,-0.3189623,1.6385,0.2630329,0.08302761,1.412257,0.05288729,-0.02894195,1.713628,0.05285772,-0.3523645,1.706517,-0.1178612,0.1823141,1.711305,-0.02783867,-0.3450274,1.668942,-0.1740089,-0.07338041,1.736936,0.3594403,-0.05027494,1.674513,NA,NA,NotTracked,Unknown,
0.9482422,-0.2231445,-0.2094727,-0.3364258,1.037109,-0.02050781,-6,-2,-3,6,1,0,-1,-2,-17,-5,-7,-8,-6,-1,-8,-30,5.3125,5.3125,5.3125,1.4375,1.4375,1.4375,1.310431,2.961882,5.539842,7.744477,5.678045,8.866677,-0.1717748,-0.331132,1.661579,0.2322896,0.198618,1.479784,0.06214082,0.4438163,1.700455,-0.1275925,-0.3285207,1.638338,0.190636,0.1995382,1.496,0.05225137,-0.02974221,1.716688,0.05199034,-0.3538372,1.707759,-0.1179181,0.1825535,1.7141,-0.02892509,-0.3460062,1.669948,-0.1741727,-0.07311627,1.73715,0.3464726,-0.009087065,1.630248,NA,NA,NotTracked,Unknown,
0.9482422,-0.2231445,-0.2094727,-0.40625,0.831543,-0.06591797,-6,-2,-3,6,1,0,-1,-2,8,-10,-5,-2,-6,-1,4,18,5.3125,5.3125,5.3125,-22.625,-22.625,-22.625,1.310431,2.961882,5.539842,7.857294,6.158223,9.122218,-0.1730731,-0.3310603,1.663602,0.2052778,0.260613,1.517524,0.06316552,0.4430119,1.704307,-0.1303189,-0.3371688,1.629893,0.1633802,0.2575481,1.540727,0.05290636,-0.02809366,1.71954,0.05175461,-0.3520387,1.7084,-0.1162739,0.1829175,1.717257,-0.03000979,-0.3434067,1.670424,-0.1740703,-0.06968756,1.738861,0.3422819,0.003612265,1.605251,NA,NA,NotTracked,Unknown,
0.9482422,-0.2231445,-0.2094727,-0.5019531,0.6459961,-0.128418,-6,-2,-3,6,1,0,-1,-2,9,5,0,-1,2,0,3,2,5.3125,5.3125,5.3125,-17.8125,-17.8125,-17.8125,1.310431,2.961882,5.539842,8.006936,6.389753,9.376027,-0.1739071,-0.3315622,1.664422,0.1932787,0.2836794,1.548118,0.0640275,0.4422827,1.706894,-0.1302833,-0.3258461,1.636882,0.1750637,0.2557427,1.533927,0.05377826,-0.02703102,1.721999,0.05139196,-0.3510442,1.70898,-0.1149509,0.1821693,1.719114,-0.03098395,-0.341864,1.671042,-0.1740209,-0.06731195,1.74128,0.3359802,0.01825402,1.577861,NA,NA,NotTracked,Unknown,
0.9482422,-0.2231445,-0.2094727,-0.5166016,0.550293,-0.2158203,-6,-2,-3,6,1,0,-1,-2,-3,-1,-1,-2,0,1,4,-2,5.3125,5.3125,5.3125,-27.4375,-27.4375,-27.4375,1.310431,2.961882,5.539842,8.180649,6.513853,9.64796,-0.1740771,-0.3315635,1.668132,0.1702366,0.312816,1.579668,0.06500427,0.4410963,1.708902,-0.1308414,-0.3284763,1.635791,0.1366385,0.2973167,1.611909,0.0547628,-0.02636955,1.723507,0.05046727,-0.3508121,1.709501,-0.1132551,0.1820378,1.721831,-0.03268416,-0.3413043,1.672548,-0.1735143,-0.06589196,1.744454,0.329268,0.04762213,1.538149,NA,NA,NotTracked,Unknown,
0.9482422,-0.2231445,-0.2094727,-0.5024414,0.4257813,-0.1948242,-6,-2,-3,6,1,0,-1,-2,-26,-13,-6,-4,-8,-10,-34,-8,5.3125,5.3125,5.3125,-34.75,-34.75,-34.75,1.310431,2.961882,5.539842,8.318801,6.5696,9.880292,-0.1748079,-0.3317711,1.67029,0.1659842,0.308631,1.595746,0.06549486,0.4396818,1.710411,-0.1307619,-0.3332701,1.635034,0.1469279,0.2813259,1.575339,0.05632335,-0.02527918,1.724802,0.04992662,-0.3507736,1.709877,-0.1125063,0.1818708,1.724809,-0.0336832,-0.3412783,1.673841,-0.173444,-0.06564562,1.747868,0.3246985,0.05509182,1.529501,NA,NA,NotTracked,Unknown,
0.9482422,-0.2231445,-0.2094727,-0.2661133,0.4111328,0.002441406,-6,-2,-3,6,1,0,-1,-2,-4,-21,-2,-6,-1,-4,-5,7,5.3125,5.3125,5.3125,-12.375,-12.375,-12.375,1.310431,2.961882,5.539842,8.319237,6.59847,9.946644,-0.175601,-0.3311701,1.67456,0.1685277,0.3042985,1.590684,0.06521762,0.4389703,1.712305,-0.1319123,-0.3234254,1.648129,0.1484484,0.274186,1.574348,0.05687311,-0.0249645,1.72605,0.04893357,-0.3512791,1.710634,-0.1116937,0.1820405,1.728691,-0.03502519,-0.3419431,1.675618,-0.1730924,-0.0652459,1.751968,0.3236078,0.05604487,1.526451,NA,NA,NotTracked,Unknown,
0.9482422,-0.2231445,-0.2094727,-0.9956055,0.4023438,0.05908203,-6,-2,-3,6,1,0,-1,-2,-8,1,3,-26,-5,-2,-1,-9,5.3125,5.3125,5.3125,0.375,0.375,0.375,1.310431,2.961882,5.539842,8.204608,6.552011,9.801465,-0.1761766,-0.3312318,1.676293,0.1560716,0.3203638,1.58452,0.06451117,0.4384007,1.713408,-0.1328623,-0.3229619,1.64725,0.1414683,0.281691,1.564017,0.057039,-0.02510927,1.726979,0.04767608,-0.3517695,1.711476,-0.1114234,0.1820157,1.731583,-0.03626604,-0.3424311,1.677215,-0.1729404,-0.06465718,1.754709,0.3210662,0.05670138,1.523194,NA,NA,NotTracked,Lasso,
0.9482422,-0.2231445,-0.2094727,-0.5136719,0.3852539,0.1689453,-6,-2,-3,6,1,0,-1,-2,8,15,1,2,-2,-10,-63,2,5.3125,5.3125,5.3125,-29.875,-29.875,-29.875,1.310431,2.961882,5.539842,8.196138,6.572842,9.854999,-0.1762887,-0.3291091,1.678551,0.1602288,0.3067147,1.599388,0.06347911,0.4380466,1.715378,-0.1327384,-0.3188408,1.647167,0.1419539,0.2686203,1.605,0.05716161,-0.02442132,1.726919,0.04729727,-0.3513129,1.711962,-0.1114527,0.1821244,1.72648,-0.03654454,-0.3419569,1.678429,-0.1726294,-0.06537361,1.757613,0.3177742,0.05015741,1.524094,NA,NA,NotTracked,NotTracked,
0.9482422,-0.2231445,-0.2094727,-1.31543,0.5317383,-0.878418,-6,-2,-3,6,1,0,-1,-2,-18,-4,-4,0,-7,13,45,-10,5.3125,5.3125,5.3125,-5.1875,-5.1875,-5.1875,1.310431,2.961882,5.539842,8.279406,6.611387,9.960881,-0.1769017,-0.3297346,1.678152,0.1636284,0.3051284,1.607913,0.06296621,0.4375856,1.717002,-0.13458,-0.3330368,1.642364,0.1490715,0.2707606,1.585533,0.05867581,-0.0233089,1.728971,0.04730757,-0.3504795,1.712707,-0.1116589,0.1816015,1.728835,-0.03594645,-0.341463,1.680035,-0.1725906,-0.06530852,1.75908,0.3098325,0.04928555,1.542294,NA,NA,NotTracked,NotTracked,
0.9482422,-0.2231445,-0.2094727,-1.530273,0.4311523,-0.6318359,-6,-2,-3,6,1,0,-1,-2,-5,-9,-20,-1,7,-1,-4,-2,5.3125,5.3125,5.3125,20.8125,20.8125,20.8125,1.310431,2.961882,5.539842,8.266147,6.648038,9.895787,-0.1779392,-0.3305463,1.676892,0.1659532,0.3065574,1.595026,0.06299295,0.4370784,1.718144,-0.1346302,-0.3304181,1.643075,0.1406661,0.271108,1.588154,0.05890192,-0.0234662,1.72981,0.04695774,-0.3508434,1.713138,-0.1112522,0.1810272,1.731992,-0.03605085,-0.3420547,1.680561,-0.1728215,-0.06555736,1.759691,0.3150084,0.0562196,1.522336,NA,NA,NotTracked,Unknown,
0.9482422,-0.2231445,-0.2094727,-1.321289,0.4980469,-0.3378906,-6,-2,-3,6,1,0,-1,-2,-21,-2,-7,-8,-4,-13,-60,-18,5.3125,5.3125,5.3125,-1.25,-1.25,-1.25,1.310431,2.961882,5.539842,8.182842,6.621085,9.791151,-0.1779793,-0.3300777,1.678165,0.1670912,0.3055339,1.595224,0.06318337,0.4369813,1.719853,-0.1354715,-0.3223443,1.647728,0.1501385,0.2690484,1.588194,0.05859799,-0.02420778,1.731099,0.04551016,-0.3526146,1.714121,-0.1108621,0.1810615,1.734695,-0.03739723,-0.3432992,1.681244,-0.1730237,-0.06557309,1.760248,0.3156044,0.05677375,1.519816,NA,NA,NotTracked,Unknown,
0.9482422,-0.2231445,-0.2094727,-0.8662109,0.4790039,-0.2519531,-6,-2,-3,6,1,0,-1,-2,-2,-10,-4,-4,-2,-13,-37,0,5.3125,5.3125,5.3125,0.5625,0.5625,0.5625,1.310431,2.961882,5.539842,8.237222,6.643147,9.872916,-0.1777945,-0.3302686,1.676847,0.1679448,0.3026128,1.604022,0.06361656,0.4367842,1.721371,-0.1366587,-0.3363255,1.638681,0.1486145,0.2686134,1.589474,0.0585602,-0.02446444,1.73191,0.04522615,-0.353265,1.714392,-0.1109018,0.1807245,1.735753,-0.03782539,-0.3438579,1.681431,-0.1730942,-0.06564867,1.760422,0.3156664,0.05660411,1.519447,NA,NA,NotTracked,NotTracked,
0.9482422,-0.2231445,-0.2094727,-0.8891602,0.4702148,-0.2270508,-6,-2,-3,6,1,0,-1,-2,19,33,9,23,2,-4,6,13,5.3125,5.3125,5.3125,22.0625,22.0625,22.0625,1.310431,2.961882,5.539842,8.244678,6.667347,9.847771,-0.1779048,-0.3299424,1.675535,0.169369,0.3066607,1.603186,0.06430871,0.4367947,1.723027,-0.1356218,-0.3312407,1.642077,0.140544,0.271327,1.584987,0.05833134,-0.02464215,1.732928,0.04507075,-0.3534702,1.714705,-0.1108338,0.1808197,1.736759,-0.03798781,-0.343986,1.681522,-0.1731226,-0.06542205,1.760568,0.314827,0.05694495,1.520495,NA,NA,NotTracked,Unknown,
0.9482422,-0.2231445,-0.2094727,-0.8061523,0.4516602,-0.1938477,-6,-2,-3,6,1,0,-1,-2,-33,-3,22,10,-12,-6,-66,-14,5.3125,5.3125,5.3125,-7.375,-7.375,-7.375,1.310431,2.961882,5.539842,8.203149,6.648101,9.792612,-0.177973,-0.3301204,1.675486,0.1711753,0.3048876,1.606566,0.06505095,0.4365802,1.724542,-0.1368916,-0.335379,1.638736,0.1549893,0.2686222,1.600068,0.05827856,-0.02480589,1.733548,0.0450492,-0.3535571,1.714876,-0.1106426,0.1807084,1.737203,-0.03807019,-0.3440342,1.681487,-0.1733413,-0.06513014,1.760463,0.3132013,0.05676121,1.523571,NA,NA,NotTracked,Unknown,
0.9482422,-0.2231445,-0.2094727,-0.7958984,0.3417969,-0.3193359,-6,-2,-3,6,1,0,-1,-2,5,2,7,5,0,2,14,-9,5.3125,5.3125,5.3125,16.125,16.125,16.125,1.310431,2.961882,5.539842,8.221354,6.668131,9.799571,-0.1787985,-0.3300566,1.676154,0.125299,0.3948198,1.639671,0.06607857,0.4366463,1.726642,-0.1359052,-0.332001,1.641617,0.09700973,0.3658887,1.616117,0.05837442,-0.02465692,1.735201,0.04506519,-0.35324,1.715875,-0.110398,0.180662,1.737778,-0.03814533,-0.3436984,1.68188,-0.1734003,-0.06514218,1.760488,0.3117967,0.05592974,1.530325,NA,NA,NotTracked,NotTracked,
0.9482422,-0.2231445,-0.2094727,-0.6293945,0.4306641,-0.2670898,-6,-2,-3,6,1,0,-1,-2,3,3,0,4,0,2,8,-2,5.3125,5.3125,5.3125,14,14,14,1.310431,2.961882,5.539842,8.150822,6.649448,9.684422,-0.1775641,-0.3297719,1.675498,0.1442609,0.3483995,1.615611,0.06655244,0.4368567,1.727657,-0.1369893,-0.3368587,1.636929,0.09812117,0.3189707,1.640273,0.05794505,-0.02483793,1.736441,0.04512417,-0.3531323,1.716668,-0.1103871,0.1806123,1.738104,-0.03818173,-0.3435336,1.682005,-0.1735384,-0.06486426,1.760372,0.3172784,0.04811351,1.539491,NA,NA,NotTracked,Unknown,
0.9482422,-0.2231445,-0.2094727,-0.4350586,0.5185547,-0.2563477,-6,-2,-3,6,1,0,-1,-2,1,-3,-2,2,-7,-3,-8,1,5.3125,5.3125,5.3125,53.375,53.375,53.375,1.310431,2.961882,5.539842,8.002772,6.522604,9.429184,-0.1778469,-0.3302466,1.673728,0.1833784,0.2938308,1.549233,0.06593697,0.4373862,1.72903,-0.1374384,-0.3383206,1.636801,0.1562309,0.2879181,1.584538,0.05662669,-0.02560144,1.737584,0.04601945,-0.3518933,1.717522,-0.1105016,0.1805803,1.738541,-0.03749647,-0.3424457,1.68188,-0.1736889,-0.06485601,1.760296,0.3210099,0.02456147,1.572922,NA,NA,NotTracked,Unknown,
0.9482422,-0.2231445,-0.2094727,-0.4501953,0.8457031,-0.2104492,-6,-2,-3,6,1,0,-1,-2,-1,-2,-2,4,-21,-14,27,0,5.3125,5.3125,5.3125,46.5625,46.5625,46.5625,1.310431,2.961882,5.539842,7.873563,6.106261,9.086747,-0.1781365,-0.3314714,1.676252,0.212267,0.2299652,1.5007,0.06465118,0.4382723,1.730805,-0.1364904,-0.3368455,1.639255,0.1803586,0.2304155,1.525219,0.05532965,-0.02615522,1.738786,0.04688582,-0.3509562,1.718657,-0.1121624,0.1804479,1.740774,-0.03676282,-0.3417187,1.682289,-0.173949,-0.06520825,1.760375,0.3267707,-0.01006591,1.627699,NA,NA,NotTracked,Closed,
0.9482422,-0.2231445,-0.2094727,-0.3569336,0.9077148,-0.06298828,-6,-2,-3,6,1,0,-1,-2,0,1,-4,-1,2,5,0,-2,5.3125,5.3125,5.3125,34.125,34.125,34.125,1.310431,2.961882,5.539842,7.82705,5.662323,8.915847,-0.1772252,-0.331908,1.679746,0.2408972,0.1372187,1.447836,0.0630342,0.4389822,1.732089,-0.1357893,-0.3378572,1.641273,0.1859654,0.1402326,1.4518,0.05277069,-0.02883839,1.740428,0.04662877,-0.3540868,1.721042,-0.1160066,0.1795957,1.743027,-0.03621407,-0.3450202,1.684388,-0.1752551,-0.06894065,1.761668,0.3577513,-0.03093021,1.640238,NA,NA,NotTracked,Unknown,
0.9482422,-0.2231445,-0.2094727,0.1958008,1.394043,0.925293,-6,-2,-3,6,1,0,-1,-2,-3,0,-4,-5,0,2,-2,3,5.3125,5.3125,5.3125,43.875,43.875,43.875,1.310431,2.961882,5.539842,7.868554,5.050195,8.720259,-0.1756809,-0.3337561,1.682829,0.2704623,0.01569127,1.424329,0.05994,0.4399585,1.732788,-0.1317238,-0.3238087,1.656485,0.2321174,-0.0154405,1.4345,0.05205685,-0.02923962,1.741145,0.04716472,-0.3541112,1.722568,-0.1182614,0.1789446,1.744603,-0.0351935,-0.3455139,1.68621,-0.1763683,-0.0715205,1.763198,0.3665738,-0.05152302,1.660268,NA,NA,NotTracked,Unknown,
0.9482422,-0.2231445,-0.2094727,-0.3491211,0.9453125,-0.1733398,-6,-2,-3,6,1,0,-1,-2,-1,6,2,-7,-4,-3,-1,1,5.3125,5.3125,5.3125,31.625,31.625,31.625,1.310431,2.961882,5.539842,7.908622,4.647172,8.624763,-0.1757966,-0.3343643,1.686789,0.3013389,-0.109846,1.464855,0.05649772,0.4411618,1.73253,-0.1320016,-0.3337296,1.65346,0.3356255,-0.1427313,1.454905,0.05162567,-0.02948506,1.741383,0.04734927,-0.3542358,1.724028,-0.1197219,0.1785272,1.745654,-0.03470521,-0.3458523,1.687826,-0.1767557,-0.07289119,1.76421,0.3751976,0.003437384,1.763968,NA,NA,NotTracked,Unknown,
0.9482422,-0.2231445,-0.2094727,0.2885742,0.9511719,-0.01953125,-6,-2,-3,6,1,0,-1,-2,-4,-4,1,0,-1,-2,2,3,5.3125,5.3125,5.3125,20.4375,20.4375,20.4375,1.310431,2.961882,5.539842,7.977472,4.293486,8.602525,-0.1749597,-0.3347723,1.689395,0.3256463,-0.2094959,1.525816,0.0536311,0.4416707,1.731408,-0.1312079,-0.3376237,1.656841,0.345371,-0.2736951,1.535182,0.05144459,-0.02967562,1.741398,0.04718926,-0.3544148,1.725385,-0.1206279,0.178268,1.746186,-0.03463188,-0.3462341,1.689449,-0.1765978,-0.07369418,1.765164,0.3523976,-0.01279207,1.778476,NA,NA,NotTracked,Open,
0.9482422,-0.2231445,-0.2094727,0.5356445,1.013184,-0.1918945,-6,-2,-3,6,1,0,-1,-2,-10,-1,0,1,0,1,1,3,5.3125,5.3125,5.3125,15.875,15.875,15.875,1.310431,2.961882,5.539842,8.030172,3.853136,8.596913,-0.1744371,-0.3346714,1.690551,0.3243571,-0.2720533,1.58452,0.05208852,0.4419746,1.729842,-0.1319721,-0.3377006,1.655676,0.2810512,-0.2764245,1.628869,0.05124537,-0.02984476,1.741152,0.04691869,-0.3545125,1.726272,-0.1208396,0.1782109,1.74621,-0.03478324,-0.3464566,1.690628,-0.1764172,-0.07482929,1.765975,0.3468428,-0.02791928,1.786496,NA,NA,NotTracked,Open,
0.9482422,-0.2231445,-0.2094727,0.3139648,0.9746094,-0.640625,-6,-2,-3,6,1,0,-1,-2,1,3,2,0,-1,0,1,-2,5.3125,5.3125,5.3125,-45.1875,-45.1875,-45.1875,1.310431,2.961882,5.539842,8.019773,3.692302,8.575087,-0.1753325,-0.3351906,1.690959,0.3073939,-0.3094825,1.630965,0.05156793,0.4423797,1.7285,-0.1326017,-0.3380512,1.654731,0.2581439,-0.3102268,1.657,0.05139921,-0.02995265,1.740776,0.04724757,-0.3545533,1.727132,-0.1209578,0.1781981,1.746042,-0.03437625,-0.3465868,1.691527,-0.1761306,-0.07512689,1.766144,0.3411464,-0.04546862,1.798927,NA,NA,NotTracked,NotTracked,
0.9482422,-0.2231445,-0.2094727,0.6640625,0.7324219,-0.04052734,-6,-2,-3,6,1,0,-1,-2,21,2,-1,0,2,4,11,19,5.3125,5.3125,5.3125,-56.9375,-56.9375,-56.9375,1.310431,2.961882,5.539842,7.884192,3.456075,8.556046,-0.174462,-0.335267,1.690352,0.2995819,-0.3178512,1.64749,0.05192002,0.4427226,1.726961,-0.1329629,-0.3384273,1.654812,0.2624657,-0.3078521,1.627935,0.05171826,-0.03006343,1.740428,0.04785723,-0.3546206,1.727801,-0.1207201,0.1783614,1.745307,-0.03368494,-0.3466214,1.69221,-0.1756328,-0.07528809,1.765899,0.3274683,-0.06453203,1.810068,NA,NA,NotTracked,NotTracked,
0.9482422,-0.2231445,-0.2094727,0.8051758,0.6591797,-0.08300781,-6,-2,-3,6,1,0,-1,-2,-23,-11,-9,-7,-2,-19,-47,-61,5.3125,5.3125,5.3125,-83.625,-83.625,-83.625,1.310431,2.961882,5.539842,7.762843,3.362394,8.554193,-0.1732098,-0.3342558,1.68703,0.2834705,-0.3377364,1.648653,0.05278502,0.4429802,1.725353,-0.1321705,-0.3398287,1.652623,0.2451134,-0.3282239,1.624583,0.05236905,-0.03019935,1.739809,0.04882256,-0.3547683,1.728552,-0.1201135,0.1783237,1.744015,-0.03259507,-0.3467303,1.692622,-0.1745812,-0.07569491,1.764936,0.311,-0.07814596,1.814488,NA,NA,NotTracked,NotTracked,
0.9482422,-0.2231445,-0.2094727,0.8061523,0.5922852,-0.1928711,-6,-2,-3,6,1,0,-1,-2,-2,1,0,4,19,6,-8,-18,5.3125,5.3125,5.3125,-65.5,-65.5,-65.5,1.310431,2.961882,5.539842,7.615466,3.317204,8.595407,-0.1722714,-0.3333236,1.686241,0.2671943,-0.347888,1.654434,0.05424881,0.4432807,1.724365,-0.1323976,-0.3387039,1.651949,0.2338488,-0.3316158,1.62194,0.05314402,-0.03034282,1.739221,0.04984547,-0.3549429,1.728947,-0.1190704,0.178493,1.742467,-0.03162253,-0.3469781,1.692635,-0.1737317,-0.07615926,1.763598,0.2954658,-0.08743111,1.814277,NA,NA,NotTracked,NotTracked,
0.9482422,-0.2231445,-0.2094727,1.101563,0.4160156,-0.4609375,-6,-2,-3,6,1,0,-1,-2,5,-1,-1,1,1,-1,-2,1,5.3125,5.3125,5.3125,-72.3125,-72.3125,-72.3125,1.310431,2.961882,5.539842,7.625966,3.232935,8.452084,-0.1738126,-0.3338521,1.685566,0.266269,-0.3559001,1.659628,0.05584687,0.443635,1.724233,-0.1324136,-0.3379845,1.652117,0.2308748,-0.3331515,1.627538,0.05384249,-0.0303251,1.738673,0.05073196,-0.3548916,1.729082,-0.118062,0.1790331,1.741114,-0.03059675,-0.3470142,1.692533,-0.1731732,-0.076402,1.762279,0.2872384,-0.09127023,1.811818,NA,NA,NotTracked,NotTracked,
0.9482422,-0.2231445,-0.2094727,0.8959961,0.3144531,-0.04785156,-6,-2,-3,6,1,0,-1,-2,-1,2,1,1,-1,-1,-2,3,5.3125,5.3125,5.3125,42.5625,42.5625,42.5625,1.310431,2.961882,5.539842,7.658457,3.189327,8.357905,-0.1737326,-0.333458,1.68183,0.269812,-0.3580742,1.660166,0.05725981,0.4441718,1.724392,-0.1320357,-0.3361509,1.651872,0.2348992,-0.3402777,1.625043,0.05450845,-0.03023266,1.737874,0.05151004,-0.3548664,1.728949,-0.117591,0.1793054,1.739955,-0.02956861,-0.3470825,1.692162,-0.172778,-0.07670768,1.760902,0.2848265,-0.0918482,1.811198,NA,NA,NotTracked,NotTracked,
0.9482422,-0.2231445,-0.2094727,0.7890625,0.5961914,0.01269531,-6,-2,-3,6,1,0,-1,-2,1,-1,-1,0,-1,-3,0,-1,5.3125,5.3125,5.3125,55.8125,55.8125,55.8125,1.310431,2.961882,5.539842,7.711483,3.198777,8.40863,-0.1744423,-0.3335464,1.67978,0.2705692,-0.3594721,1.660384,0.05803105,0.4446649,1.724569,-0.1318478,-0.3356017,1.650167,0.2380932,-0.3423564,1.623498,0.05500168,-0.03014659,1.737082,0.05245173,-0.3549134,1.728775,-0.1174915,0.1791528,1.738697,-0.02829826,-0.3473233,1.691722,-0.172694,-0.07712793,1.759212,0.2847015,-0.0920528,1.809932,NA,NA,NotTracked,NotTracked,
0.9482422,-0.2231445,-0.2094727,0.8774414,0.3681641,0.03564453,-6,-2,-3,6,1,0,-1,-2,3,1,0,-1,-9,4,2,7,5.3125,5.3125,5.3125,21.25,21.25,21.25,1.310431,2.961882,5.539842,7.71806,3.185574,8.440154,-0.1737467,-0.3325893,1.677366,0.2718201,-0.360412,1.659989,0.05849957,0.4452846,1.724794,-0.1310262,-0.3369704,1.646119,0.2376213,-0.3460888,1.621228,0.05534181,-0.02987631,1.735882,0.05326318,-0.3548427,1.728098,-0.117441,0.1793969,1.73772,-0.02730024,-0.3473774,1.690635,-0.1724626,-0.07789214,1.757526,0.2852516,-0.09173764,1.805958,NA,NA,NotTracked,NotTracked,
0.9482422,-0.2231445,-0.2094727,0.9008789,0.3789063,-0.01220703,-6,-2,-3,6,1,0,-1,-2,0,2,0,0,18,1,9,28,5.3125,5.3125,5.3125,12.25,12.25,12.25,1.310431,2.961882,5.539842,7.753289,3.166853,8.455517,-0.17418,-0.3331118,1.675289,0.2721834,-0.3636274,1.656047,0.05861045,0.4457563,1.725117,-0.1303086,-0.3139424,1.6725,0.238718,-0.3498254,1.614568,0.05513892,-0.02951661,1.734421,0.05354225,-0.3547632,1.727111,-0.1177232,0.179629,1.736497,-0.02696919,-0.3473321,1.689528,-0.1725153,-0.07799025,1.756365,0.2856268,-0.09048704,1.80134,NA,NA,NotTracked,NotTracked,
0.9482422,-0.2231445,-0.2094727,0.9018555,0.3442383,-0.01074219,-6,-2,-3,6,1,0,-1,-2,0,0,1,-2,-1,0,1,-2,5.3125,5.3125,5.3125,0.25,0.25,0.25,1.310431,2.961882,5.539842,7.757313,3.15699,8.452216,-0.1740317,-0.3333271,1.672123,0.2726394,-0.3633736,1.652591,0.05847897,0.4461672,1.72512,-0.1300337,-0.3300833,1.64369,0.2414955,-0.3464333,1.612817,0.05486931,-0.02918684,1.732082,0.05422853,-0.3547727,1.725163,-0.118402,0.1792106,1.734223,-0.02617486,-0.3474953,1.687376,-0.1729206,-0.07830656,1.754864,0.2854996,-0.08942578,1.795433,NA,NA,NotTracked,NotTracked,
